File Path	chrom://chromeleon01/ikbm_chromeleon/2022/ICS-5000/ED1/Esteban/20220612_Cell_7_4_eg.seq/104.smp/ED_1.channel/ED_1.chm
Channel	ED_1

Injection Information:
Data Vault	ikbm_chromeleon
Injection	7_06h-EGS_1
Injection Number	75
Position	GC1
Comment	
Processing Method	Stop sequence after Cell Death
Instrument Method	ICS5000_PA200_FullNative_Ox_26min_ED1
Type	Unknown
Status	Finished
Injection Date	14.06.2022
Injection Time	03:19:40
Injection Volume (µl)	5,0
Dilution Factor	1,0000
Weight	1,0000

Chromatogram Data Information:
Time Min. (min)	0,000333
Time Max. (min)	26,000333
Data Points	3121
Detector	EDet1
Generating Data System	Chromeleon 7.2.9.11323
Exporting Data System	Chromeleon 7.2.9.0
Operator	Instrument Controller
Signal Quantity	
Signal Unit	nC
Signal Min.	-2,237600
Signal Max.	982,053865
Channel	ED_1
Driver Name	DC-5000
Channel Type	Evaluation
Min. Step (s)	0,5
Max. Step (s)	0,5
Average Step (s)	0,5

Signal Parameter Information:
Signal Info	

Chromatogram Data:
Time (min)	Step (s)	Value (nC)
0,000333	n.a.	-0,025550
0,008667	0,5	-0,076000
0,017000	0,5	-0,072600
0,025333	0,5	-0,062600
0,033667	0,5	-0,033950
0,042000	0,5	-0,024500
0,050333	0,5	-0,023400
0,058667	0,5	-0,017400
0,067000	0,5	-0,020700
0,075333	0,5	-0,023300
0,083667	0,5	-0,023350
0,092000	0,5	-0,030250
0,100333	0,5	-0,031600
0,108667	0,5	-0,037600
0,117000	0,5	-0,035050
0,125333	0,5	-0,054750
0,133667	0,5	-0,032050
0,142000	0,5	-0,024050
0,150333	0,5	-0,040900
0,158667	0,5	-0,056050
0,167000	0,5	-0,046750
0,175333	0,5	-0,036400
0,183667	0,5	-0,020050
0,192000	0,5	-0,032500
0,200333	0,5	-0,032700
0,208667	0,5	-0,037100
0,217000	0,5	-0,036400
0,225333	0,5	-0,044150
0,233667	0,5	-0,047550
0,242000	0,5	-0,048750
0,250333	0,5	-0,054550
0,258667	0,5	-0,051600
0,267000	0,5	-0,056000
0,275333	0,5	-0,061950
0,283667	0,5	-0,048150
0,292000	0,5	-0,054150
0,300333	0,5	-0,047750
0,308667	0,5	-0,009450
0,317000	0,5	-0,025800
0,325333	0,5	-0,049850
0,333667	0,5	-0,069550
0,342000	0,5	-0,079950
0,350333	0,5	-0,083750
0,358667	0,5	-0,077450
0,367000	0,5	-0,082450
0,375333	0,5	-0,077550
0,383667	0,5	-0,084800
0,392000	0,5	-0,085800
0,400333	0,5	-0,084200
0,408667	0,5	-0,086100
0,417000	0,5	-0,065450
0,425333	0,5	-0,084450
0,433667	0,5	-0,060350
0,442000	0,5	-0,087350
0,450333	0,5	-0,092650
0,458667	0,5	-0,098300
0,467000	0,5	-0,093700
0,475333	0,5	-0,071750
0,483667	0,5	-0,076250
0,492000	0,5	-0,091650
0,500333	0,5	-0,083950
0,508667	0,5	-0,087650
0,517000	0,5	-0,078500
0,525333	0,5	-0,089700
0,533667	0,5	-0,084800
0,542000	0,5	-0,099150
0,550333	0,5	-0,094300
0,558667	0,5	-0,089400
0,567000	0,5	-0,093050
0,575333	0,5	-0,102400
0,583667	0,5	-0,069600
0,592000	0,5	-0,106200
0,600333	0,5	-0,104400
0,608667	0,5	-0,105650
0,617000	0,5	-0,093850
0,625333	0,5	-0,062900
0,633667	0,5	-0,074250
0,642000	0,5	-0,073300
0,650333	0,5	-0,080800
0,658667	0,5	-0,078600
0,667000	0,5	-0,087100
0,675333	0,5	-0,085050
0,683667	0,5	-0,091650
0,692000	0,5	-0,081050
0,700333	0,5	-0,085800
0,708667	0,5	-0,087050
0,717000	0,5	-0,097000
0,725333	0,5	-0,088650
0,733667	0,5	-0,084550
0,742000	0,5	-0,105350
0,750333	0,5	-0,103550
0,758667	0,5	-0,095700
0,767000	0,5	-0,083950
0,775333	0,5	-0,062950
0,783667	0,5	-0,062650
0,792000	0,5	-0,068450
0,800333	0,5	-0,072650
0,808667	0,5	-0,074100
0,817000	0,5	-0,071800
0,825333	0,5	-0,075000
0,833667	0,5	-0,077800
0,842000	0,5	-0,084850
0,850333	0,5	-0,078500
0,858667	0,5	-0,082700
0,867000	0,5	-0,073850
0,875333	0,5	-0,063100
0,883667	0,5	-0,074550
0,892000	0,5	-0,095050
0,900333	0,5	-0,083450
0,908667	0,5	-0,083350
0,917000	0,5	-0,058100
0,925333	0,5	-0,051450
0,933667	0,5	-0,045050
0,942000	0,5	-0,053850
0,950333	0,5	-0,048700
0,958667	0,5	-0,051400
0,967000	0,5	-0,055950
0,975333	0,5	-0,062000
0,983667	0,5	-0,064450
0,992000	0,5	-0,060950
1,000333	0,5	-0,063100
1,008667	0,5	-0,056700
1,017000	0,5	-0,054700
1,025333	0,5	-0,041100
1,033667	0,5	-0,065550
1,042000	0,5	-0,074350
1,050333	0,5	-0,068800
1,058667	0,5	-0,052050
1,067000	0,5	-0,036800
1,075333	0,5	-0,036800
1,083667	0,5	-0,048350
1,092000	0,5	-0,043600
1,100333	0,5	-0,047150
1,108667	0,5	-0,044850
1,117000	0,5	-0,045450
1,125333	0,5	-0,046600
1,133667	0,5	-0,047400
1,142000	0,5	-0,041250
1,150333	0,5	-0,035050
1,158667	0,5	-0,052400
1,167000	0,5	-0,042950
1,175333	0,5	-0,032700
1,183667	0,5	-0,053750
1,192000	0,5	-0,058050
1,200333	0,5	-0,052000
1,208667	0,5	-0,042450
1,217000	0,5	-0,022650
1,225333	0,5	-0,028600
1,233667	0,5	-0,013500
1,242000	0,5	-0,028500
1,250333	0,5	-0,019850
1,258667	0,5	-0,028600
1,267000	0,5	-0,026500
1,275333	0,5	-0,031950
1,283667	0,5	-0,036950
1,292000	0,5	-0,032400
1,300333	0,5	-0,037450
1,308667	0,5	-0,047050
1,317000	0,5	-0,019500
1,325333	0,5	-0,029450
1,333667	0,5	-0,040900
1,342000	0,5	-0,044350
1,350333	0,5	-0,036950
1,358667	0,5	-0,011100
1,367000	0,5	-0,020550
1,375333	0,5	-0,015700
1,383667	0,5	-0,024950
1,392000	0,5	-0,021700
1,400333	0,5	-0,028450
1,408667	0,5	-0,021500
1,417000	0,5	-0,029200
1,425333	0,5	-0,030600
1,433667	0,5	-0,036100
1,442000	0,5	-0,033400
1,450333	0,5	-0,029350
1,458667	0,5	-0,041900
1,467000	0,5	-0,024600
1,475333	0,5	-0,037600
1,483667	0,5	-0,047550
1,492000	0,5	-0,049850
1,500333	0,5	-0,042150
1,508667	0,5	-0,022750
1,517000	0,5	-0,027250
1,525333	0,5	-0,042000
1,533667	0,5	-0,039200
1,542000	0,5	-0,042950
1,550333	0,5	-0,040550
1,558667	0,5	-0,029950
1,567000	0,5	0,031300
1,575333	0,5	0,183300
1,583667	0,5	0,454850
1,592000	0,5	1,587400
1,600333	0,5	7,839300
1,608667	0,5	32,456400
1,617000	0,5	111,882252
1,625333	0,5	308,795755
1,633667	0,5	621,309509
1,642000	0,5	899,705163
1,650333	0,5	982,053865
1,658667	0,5	854,876463
1,667000	0,5	632,992209
1,675333	0,5	436,677157
1,683667	0,5	301,539404
1,692000	0,5	215,164803
1,700333	0,5	160,209152
1,708667	0,5	124,709452
1,717000	0,5	101,272002
1,725333	0,5	85,201151
1,733667	0,5	73,818201
1,742000	0,5	65,903101
1,750333	0,5	60,055051
1,758667	0,5	54,718901
1,767000	0,5	49,308801
1,775333	0,5	44,241601
1,783667	0,5	40,230401
1,792000	0,5	37,512801
1,800333	0,5	35,955251
1,808667	0,5	35,033001
1,817000	0,5	34,003001
1,825333	0,5	32,498900
1,833667	0,5	30,613650
1,842000	0,5	28,726750
1,850333	0,5	27,083700
1,858667	0,5	25,785900
1,867000	0,5	24,745400
1,875333	0,5	23,940950
1,883667	0,5	23,419950
1,892000	0,5	23,124650
1,900333	0,5	22,920450
1,908667	0,5	22,721750
1,917000	0,5	22,655800
1,925333	0,5	22,780350
1,933667	0,5	22,706200
1,942000	0,5	22,048400
1,950333	0,5	21,054350
1,958667	0,5	20,100350
1,967000	0,5	19,382600
1,975333	0,5	18,959450
1,983667	0,5	18,947050
1,992000	0,5	19,388000
2,000333	0,5	20,376700
2,008667	0,5	22,018450
2,017000	0,5	24,619900
2,025333	0,5	28,402950
2,033667	0,5	32,648200
2,042000	0,5	35,291701
2,050333	0,5	34,776351
2,058667	0,5	31,884700
2,067000	0,5	28,534200
2,075333	0,5	25,949250
2,083667	0,5	24,320700
2,092000	0,5	23,456250
2,100333	0,5	23,032150
2,108667	0,5	22,835750
2,117000	0,5	22,844350
2,125333	0,5	22,795000
2,133667	0,5	22,291750
2,142000	0,5	21,498800
2,150333	0,5	20,717600
2,158667	0,5	20,046750
2,167000	0,5	19,423750
2,175333	0,5	18,897200
2,183667	0,5	18,505800
2,192000	0,5	18,277000
2,200333	0,5	18,255800
2,208667	0,5	18,515350
2,217000	0,5	19,080250
2,225333	0,5	19,807200
2,233667	0,5	20,194650
2,242000	0,5	19,958500
2,250333	0,5	19,374800
2,258667	0,5	18,820800
2,267000	0,5	18,492250
2,275333	0,5	18,302300
2,283667	0,5	18,212450
2,292000	0,5	18,195200
2,300333	0,5	18,254400
2,308667	0,5	18,318050
2,317000	0,5	18,354200
2,325333	0,5	18,369750
2,333667	0,5	18,431150
2,342000	0,5	18,564650
2,350333	0,5	18,862150
2,358667	0,5	19,418150
2,367000	0,5	20,769350
2,375333	0,5	22,736750
2,383667	0,5	23,343900
2,392000	0,5	22,402150
2,400333	0,5	21,537300
2,408667	0,5	21,134500
2,417000	0,5	20,963500
2,425333	0,5	20,835700
2,433667	0,5	20,685600
2,442000	0,5	20,511750
2,450333	0,5	20,314600
2,458667	0,5	20,113750
2,467000	0,5	19,916400
2,475333	0,5	19,730300
2,483667	0,5	19,553350
2,492000	0,5	19,414050
2,500333	0,5	19,359450
2,508667	0,5	19,409600
2,517000	0,5	19,681750
2,525333	0,5	20,292850
2,533667	0,5	21,271150
2,542000	0,5	22,500400
2,550333	0,5	23,669300
2,558667	0,5	24,520550
2,567000	0,5	24,880900
2,575333	0,5	24,707200
2,583667	0,5	24,138700
2,592000	0,5	23,429300
2,600333	0,5	22,875150
2,608667	0,5	22,705950
2,617000	0,5	23,057250
2,625333	0,5	23,999500
2,633667	0,5	25,728200
2,642000	0,5	28,639250
2,650333	0,5	33,212750
2,658667	0,5	39,004801
2,667000	0,5	44,533951
2,675333	0,5	47,747601
2,683667	0,5	47,582751
2,692000	0,5	44,535201
2,700333	0,5	39,964951
2,708667	0,5	35,246701
2,717000	0,5	31,206750
2,725333	0,5	28,183700
2,733667	0,5	26,337800
2,742000	0,5	25,797450
2,750333	0,5	26,794600
2,758667	0,5	29,415350
2,767000	0,5	33,260750
2,775333	0,5	37,303901
2,783667	0,5	40,179851
2,792000	0,5	40,849701
2,800333	0,5	39,061551
2,808667	0,5	35,409201
2,817000	0,5	31,033750
2,825333	0,5	26,893450
2,833667	0,5	23,533250
2,842000	0,5	21,072600
2,850333	0,5	19,337800
2,858667	0,5	18,150550
2,867000	0,5	17,301250
2,875333	0,5	16,689450
2,883667	0,5	16,206050
2,892000	0,5	15,830450
2,900333	0,5	15,518650
2,908667	0,5	15,284900
2,917000	0,5	15,144800
2,925333	0,5	15,127450
2,933667	0,5	15,277150
2,942000	0,5	15,603250
2,950333	0,5	15,944400
2,958667	0,5	16,160600
2,967000	0,5	16,127100
2,975333	0,5	15,795600
2,983667	0,5	15,273100
2,992000	0,5	14,682700
3,000333	0,5	14,149300
3,008667	0,5	13,709950
3,017000	0,5	13,404800
3,025333	0,5	13,177950
3,033667	0,5	13,053250
3,042000	0,5	12,991300
3,050333	0,5	13,017300
3,058667	0,5	13,158950
3,067000	0,5	13,495750
3,075333	0,5	14,121450
3,083667	0,5	15,102750
3,092000	0,5	16,311100
3,100333	0,5	17,369350
3,108667	0,5	17,894150
3,117000	0,5	17,711350
3,125333	0,5	16,880550
3,133667	0,5	15,697550
3,142000	0,5	14,439500
3,150333	0,5	13,350100
3,158667	0,5	12,537950
3,167000	0,5	11,965250
3,175333	0,5	11,580100
3,183667	0,5	11,308050
3,192000	0,5	11,130500
3,200333	0,5	10,986650
3,208667	0,5	10,883600
3,217000	0,5	10,775700
3,225333	0,5	10,666350
3,233667	0,5	10,553150
3,242000	0,5	10,453150
3,250333	0,5	10,327400
3,258667	0,5	10,239450
3,267000	0,5	10,170950
3,275333	0,5	10,121050
3,283667	0,5	10,060950
3,292000	0,5	9,972950
3,300333	0,5	9,883450
3,308667	0,5	9,792800
3,317000	0,5	9,712400
3,325333	0,5	9,638000
3,333667	0,5	9,572050
3,342000	0,5	9,511250
3,350333	0,5	9,466150
3,358667	0,5	9,425250
3,367000	0,5	9,399050
3,375333	0,5	9,358550
3,383667	0,5	9,355150
3,392000	0,5	9,325050
3,400333	0,5	9,299500
3,408667	0,5	9,276750
3,417000	0,5	9,266500
3,425333	0,5	9,253450
3,433667	0,5	9,228200
3,442000	0,5	9,171500
3,450333	0,5	9,119950
3,458667	0,5	9,052550
3,467000	0,5	8,991350
3,475333	0,5	8,923450
3,483667	0,5	8,860400
3,492000	0,5	8,798250
3,500333	0,5	8,735700
3,508667	0,5	8,672250
3,517000	0,5	8,596000
3,525333	0,5	8,525750
3,533667	0,5	8,473250
3,542000	0,5	8,406300
3,550333	0,5	8,353800
3,558667	0,5	8,316150
3,567000	0,5	8,290150
3,575333	0,5	8,285700
3,583667	0,5	8,260000
3,592000	0,5	8,244150
3,600333	0,5	8,218850
3,608667	0,5	8,205350
3,617000	0,5	8,171400
3,625333	0,5	8,146200
3,633667	0,5	8,110900
3,642000	0,5	8,073650
3,650333	0,5	8,041800
3,658667	0,5	8,010950
3,667000	0,5	7,982950
3,675333	0,5	7,956200
3,683667	0,5	7,948550
3,692000	0,5	7,907700
3,700333	0,5	7,876200
3,708667	0,5	7,840400
3,717000	0,5	7,820150
3,725333	0,5	7,800850
3,733667	0,5	7,767350
3,742000	0,5	7,719200
3,750333	0,5	7,687150
3,758667	0,5	7,642600
3,767000	0,5	7,604800
3,775333	0,5	7,559650
3,783667	0,5	7,526050
3,792000	0,5	7,486400
3,800333	0,5	7,453900
3,808667	0,5	7,424200
3,817000	0,5	7,392150
3,825333	0,5	7,363850
3,833667	0,5	7,343100
3,842000	0,5	7,296450
3,850333	0,5	7,275700
3,858667	0,5	7,252950
3,867000	0,5	7,242500
3,875333	0,5	7,239300
3,883667	0,5	7,213400
3,892000	0,5	7,192550
3,900333	0,5	7,171000
3,908667	0,5	7,157450
3,917000	0,5	7,142000
3,925333	0,5	7,131300
3,933667	0,5	7,111800
3,942000	0,5	7,105600
3,950333	0,5	7,096650
3,958667	0,5	7,093450
3,967000	0,5	7,094950
3,975333	0,5	7,125200
3,983667	0,5	7,143550
3,992000	0,5	7,176300
4,000333	0,5	7,249200
4,008667	0,5	7,354850
4,017000	0,5	7,505600
4,025333	0,5	7,669150
4,033667	0,5	7,845500
4,042000	0,5	8,013450
4,050333	0,5	8,156750
4,058667	0,5	8,244300
4,067000	0,5	8,276600
4,075333	0,5	8,234950
4,083667	0,5	8,137650
4,092000	0,5	7,996450
4,100333	0,5	7,845050
4,108667	0,5	7,676250
4,117000	0,5	7,536300
4,125333	0,5	7,432450
4,133667	0,5	7,319250
4,142000	0,5	7,225650
4,150333	0,5	7,156350
4,158667	0,5	7,101400
4,167000	0,5	7,051650
4,175333	0,5	6,987700
4,183667	0,5	6,924100
4,192000	0,5	6,860150
4,200333	0,5	6,809500
4,208667	0,5	6,760300
4,217000	0,5	6,724500
4,225333	0,5	6,690350
4,233667	0,5	6,663450
4,242000	0,5	6,649000
4,250333	0,5	6,639400
4,258667	0,5	6,638550
4,267000	0,5	6,632800
4,275333	0,5	6,635450
4,283667	0,5	6,616650
4,292000	0,5	6,602450
4,300333	0,5	6,598800
4,308667	0,5	6,595700
4,317000	0,5	6,594050
4,325333	0,5	6,572400
4,333667	0,5	6,550650
4,342000	0,5	6,537800
4,350333	0,5	6,521000
4,358667	0,5	6,508100
4,367000	0,5	6,490050
4,375333	0,5	6,480900
4,383667	0,5	6,470000
4,392000	0,5	6,462450
4,400333	0,5	6,470100
4,408667	0,5	6,461500
4,417000	0,5	6,480200
4,425333	0,5	6,484750
4,433667	0,5	6,484600
4,442000	0,5	6,491600
4,450333	0,5	6,507400
4,458667	0,5	6,530300
4,467000	0,5	6,537350
4,475333	0,5	6,511850
4,483667	0,5	6,504650
4,492000	0,5	6,475850
4,500333	0,5	6,455800
4,508667	0,5	6,423650
4,517000	0,5	6,400650
4,525333	0,5	6,376300
4,533667	0,5	6,366150
4,542000	0,5	6,357900
4,550333	0,5	6,347050
4,558667	0,5	6,332900
4,567000	0,5	6,348600
4,575333	0,5	6,335050
4,583667	0,5	6,329400
4,592000	0,5	6,331000
4,600333	0,5	6,336650
4,608667	0,5	6,361150
4,617000	0,5	6,364950
4,625333	0,5	6,370400
4,633667	0,5	6,375650
4,642000	0,5	6,389400
4,650333	0,5	6,388650
4,658667	0,5	6,394050
4,667000	0,5	6,385350
4,675333	0,5	6,383800
4,683667	0,5	6,372800
4,692000	0,5	6,362600
4,700333	0,5	6,350650
4,708667	0,5	6,335350
4,717000	0,5	6,323850
4,725333	0,5	6,290550
4,733667	0,5	6,267600
4,742000	0,5	6,267300
4,750333	0,5	6,215050
4,758667	0,5	6,185900
4,767000	0,5	6,133700
4,775333	0,5	6,063750
4,783667	0,5	5,987700
4,792000	0,5	5,911950
4,800333	0,5	5,839950
4,808667	0,5	5,774500
4,817000	0,5	5,727750
4,825333	0,5	5,691750
4,833667	0,5	5,670300
4,842000	0,5	5,650500
4,850333	0,5	5,641950
4,858667	0,5	5,619300
4,867000	0,5	5,607400
4,875333	0,5	5,569900
4,883667	0,5	5,544550
4,892000	0,5	5,519100
4,900333	0,5	5,505600
4,908667	0,5	5,491700
4,917000	0,5	5,461800
4,925333	0,5	5,437950
4,933667	0,5	5,410050
4,942000	0,5	5,387550
4,950333	0,5	5,364750
4,958667	0,5	5,343550
4,967000	0,5	5,324550
4,975333	0,5	5,309000
4,983667	0,5	5,290600
4,992000	0,5	5,277750
5,000333	0,5	5,257150
5,008667	0,5	5,255450
5,017000	0,5	5,236900
5,025333	0,5	5,217300
5,033667	0,5	5,205750
5,042000	0,5	5,196800
5,050333	0,5	5,196950
5,058667	0,5	5,194950
5,067000	0,5	5,183600
5,075333	0,5	5,181150
5,083667	0,5	5,169650
5,092000	0,5	5,171650
5,100333	0,5	5,164200
5,108667	0,5	5,165300
5,117000	0,5	5,165600
5,125333	0,5	5,164200
5,133667	0,5	5,172250
5,142000	0,5	5,163100
5,150333	0,5	5,160700
5,158667	0,5	5,162300
5,167000	0,5	5,138150
5,175333	0,5	5,110800
5,183667	0,5	5,091100
5,192000	0,5	5,071800
5,200333	0,5	5,064300
5,208667	0,5	5,038100
5,217000	0,5	5,021850
5,225333	0,5	5,000100
5,233667	0,5	4,986350
5,242000	0,5	4,964350
5,250333	0,5	4,954700
5,258667	0,5	4,943200
5,267000	0,5	4,929500
5,275333	0,5	4,920950
5,283667	0,5	4,908650
5,292000	0,5	4,895550
5,300333	0,5	4,886400
5,308667	0,5	4,883700
5,317000	0,5	4,858200
5,325333	0,5	4,837050
5,333667	0,5	4,823700
5,342000	0,5	4,813800
5,350333	0,5	4,802700
5,358667	0,5	4,783100
5,367000	0,5	4,760100
5,375333	0,5	4,746200
5,383667	0,5	4,727950
5,392000	0,5	4,715350
5,400333	0,5	4,691550
5,408667	0,5	4,680250
5,417000	0,5	4,660900
5,425333	0,5	4,647250
5,433667	0,5	4,632650
5,442000	0,5	4,610100
5,450333	0,5	4,603850
5,458667	0,5	4,592600
5,467000	0,5	4,570600
5,475333	0,5	4,558350
5,483667	0,5	4,550150
5,492000	0,5	4,550050
5,500333	0,5	4,552400
5,508667	0,5	4,535650
5,517000	0,5	4,533750
5,525333	0,5	4,529300
5,533667	0,5	4,537650
5,542000	0,5	4,543100
5,550333	0,5	4,565300
5,558667	0,5	4,591750
5,567000	0,5	4,637300
5,575333	0,5	4,696500
5,583667	0,5	4,765300
5,592000	0,5	4,840050
5,600333	0,5	4,940300
5,608667	0,5	5,012150
5,617000	0,5	5,077100
5,625333	0,5	5,129150
5,633667	0,5	5,178900
5,642000	0,5	5,235900
5,650333	0,5	5,301850
5,658667	0,5	5,416750
5,667000	0,5	5,600150
5,675333	0,5	5,877950
5,683667	0,5	6,264500
5,692000	0,5	6,744950
5,700333	0,5	7,289450
5,708667	0,5	7,851600
5,717000	0,5	8,373800
5,725333	0,5	8,783700
5,733667	0,5	9,021900
5,742000	0,5	9,068100
5,750333	0,5	8,933500
5,758667	0,5	8,614900
5,767000	0,5	8,161800
5,775333	0,5	7,645850
5,783667	0,5	7,112450
5,792000	0,5	6,605150
5,800333	0,5	6,130350
5,808667	0,5	5,713050
5,817000	0,5	5,365700
5,825333	0,5	5,083150
5,833667	0,5	4,853750
5,842000	0,5	4,675650
5,850333	0,5	4,534250
5,858667	0,5	4,425550
5,867000	0,5	4,340350
5,875333	0,5	4,266000
5,883667	0,5	4,208650
5,892000	0,5	4,164450
5,900333	0,5	4,133500
5,908667	0,5	4,087450
5,917000	0,5	4,057100
5,925333	0,5	4,027100
5,933667	0,5	4,017450
5,942000	0,5	4,004150
5,950333	0,5	3,982100
5,958667	0,5	3,956800
5,967000	0,5	3,937750
5,975333	0,5	3,913750
5,983667	0,5	3,897300
5,992000	0,5	3,881750
6,000333	0,5	3,864850
6,008667	0,5	3,845500
6,017000	0,5	3,832050
6,025333	0,5	3,820700
6,033667	0,5	3,798050
6,042000	0,5	3,794400
6,050333	0,5	3,777100
6,058667	0,5	3,758050
6,067000	0,5	3,743450
6,075333	0,5	3,734750
6,083667	0,5	3,731600
6,092000	0,5	3,717050
6,100333	0,5	3,700900
6,108667	0,5	3,688050
6,117000	0,5	3,671550
6,125333	0,5	3,660150
6,133667	0,5	3,643150
6,142000	0,5	3,632750
6,150333	0,5	3,621200
6,158667	0,5	3,614450
6,167000	0,5	3,607050
6,175333	0,5	3,592700
6,183667	0,5	3,583050
6,192000	0,5	3,582350
6,200333	0,5	3,565950
6,208667	0,5	3,547200
6,217000	0,5	3,536500
6,225333	0,5	3,527800
6,233667	0,5	3,528500
6,242000	0,5	3,513900
6,250333	0,5	3,505950
6,258667	0,5	3,492150
6,267000	0,5	3,485600
6,275333	0,5	3,470400
6,283667	0,5	3,467500
6,292000	0,5	3,455950
6,300333	0,5	3,448800
6,308667	0,5	3,439600
6,317000	0,5	3,428050
6,325333	0,5	3,413900
6,333667	0,5	3,406100
6,342000	0,5	3,403050
6,350333	0,5	3,384650
6,358667	0,5	3,372100
6,367000	0,5	3,365450
6,375333	0,5	3,359550
6,383667	0,5	3,360250
6,392000	0,5	3,345350
6,400333	0,5	3,334800
6,408667	0,5	3,327050
6,417000	0,5	3,321000
6,425333	0,5	3,314400
6,433667	0,5	3,307050
6,442000	0,5	3,302300
6,450333	0,5	3,294000
6,458667	0,5	3,295600
6,467000	0,5	3,297100
6,475333	0,5	3,296850
6,483667	0,5	3,305350
6,492000	0,5	3,307450
6,500333	0,5	3,301900
6,508667	0,5	3,301550
6,517000	0,5	3,303700
6,525333	0,5	3,311050
6,533667	0,5	3,315650
6,542000	0,5	3,307800
6,550333	0,5	3,306050
6,558667	0,5	3,306000
6,567000	0,5	3,303400
6,575333	0,5	3,303900
6,583667	0,5	3,308000
6,592000	0,5	3,312600
6,600333	0,5	3,325300
6,608667	0,5	3,342300
6,617000	0,5	3,365600
6,625333	0,5	3,385550
6,633667	0,5	3,429000
6,642000	0,5	3,468550
6,650333	0,5	3,519250
6,658667	0,5	3,578950
6,667000	0,5	3,656900
6,675333	0,5	3,753600
6,683667	0,5	3,843150
6,692000	0,5	3,938950
6,700333	0,5	4,044550
6,708667	0,5	4,143700
6,717000	0,5	4,245050
6,725333	0,5	4,331000
6,733667	0,5	4,400500
6,742000	0,5	4,452500
6,750333	0,5	4,487450
6,758667	0,5	4,496400
6,767000	0,5	4,476500
6,775333	0,5	4,437800
6,783667	0,5	4,372500
6,792000	0,5	4,270600
6,800333	0,5	4,145450
6,808667	0,5	4,002400
6,817000	0,5	3,859850
6,825333	0,5	3,727050
6,833667	0,5	3,598750
6,842000	0,5	3,491900
6,850333	0,5	3,403250
6,858667	0,5	3,334150
6,867000	0,5	3,281350
6,875333	0,5	3,245450
6,883667	0,5	3,220200
6,892000	0,5	3,202150
6,900333	0,5	3,189650
6,908667	0,5	3,175800
6,917000	0,5	3,162000
6,925333	0,5	3,159050
6,933667	0,5	3,153250
6,942000	0,5	3,139150
6,950333	0,5	3,132350
6,958667	0,5	3,126700
6,967000	0,5	3,131400
6,975333	0,5	3,132500
6,983667	0,5	3,131050
6,992000	0,5	3,123250
7,000333	0,5	3,115250
7,008667	0,5	3,109900
7,017000	0,5	3,107300
7,025333	0,5	3,105650
7,033667	0,5	3,113300
7,042000	0,5	3,113750
7,050333	0,5	3,122150
7,058667	0,5	3,121900
7,067000	0,5	3,117750
7,075333	0,5	3,109000
7,083667	0,5	3,087850
7,092000	0,5	3,057200
7,100333	0,5	3,034700
7,108667	0,5	3,006150
7,117000	0,5	2,997350
7,125333	0,5	2,987200
7,133667	0,5	2,975650
7,142000	0,5	2,976700
7,150333	0,5	2,980750
7,158667	0,5	2,995300
7,167000	0,5	3,010300
7,175333	0,5	3,029150
7,183667	0,5	3,059000
7,192000	0,5	3,093050
7,200333	0,5	3,129150
7,208667	0,5	3,161600
7,217000	0,5	3,198550
7,225333	0,5	3,256900
7,233667	0,5	3,316150
7,242000	0,5	3,411500
7,250333	0,5	3,555950
7,258667	0,5	3,751200
7,267000	0,5	3,994050
7,275333	0,5	4,239900
7,283667	0,5	4,448750
7,292000	0,5	4,580350
7,300333	0,5	4,593100
7,308667	0,5	4,482750
7,317000	0,5	4,268150
7,325333	0,5	3,993500
7,333667	0,5	3,706650
7,342000	0,5	3,448050
7,350333	0,5	3,236400
7,358667	0,5	3,070200
7,367000	0,5	2,958500
7,375333	0,5	2,889600
7,383667	0,5	2,839750
7,392000	0,5	2,806150
7,400333	0,5	2,789600
7,408667	0,5	2,776450
7,417000	0,5	2,771600
7,425333	0,5	2,762400
7,433667	0,5	2,755250
7,442000	0,5	2,750750
7,450333	0,5	2,749600
7,458667	0,5	2,750900
7,467000	0,5	2,754150
7,475333	0,5	2,753800
7,483667	0,5	2,757750
7,492000	0,5	2,758550
7,500333	0,5	2,756650
7,508667	0,5	2,746900
7,517000	0,5	2,742750
7,525333	0,5	2,740200
7,533667	0,5	2,729200
7,542000	0,5	2,736150
7,550333	0,5	2,754700
7,558667	0,5	2,795400
7,567000	0,5	2,853300
7,575333	0,5	2,909700
7,583667	0,5	2,944950
7,592000	0,5	2,955600
7,600333	0,5	2,917100
7,608667	0,5	2,859200
7,617000	0,5	2,788050
7,625333	0,5	2,724200
7,633667	0,5	2,677900
7,642000	0,5	2,646150
7,650333	0,5	2,626950
7,658667	0,5	2,616100
7,667000	0,5	2,613200
7,675333	0,5	2,611150
7,683667	0,5	2,612700
7,692000	0,5	2,618250
7,700333	0,5	2,628950
7,708667	0,5	2,642100
7,717000	0,5	2,654850
7,725333	0,5	2,650050
7,733667	0,5	2,651150
7,742000	0,5	2,642800
7,750333	0,5	2,636600
7,758667	0,5	2,627300
7,767000	0,5	2,622550
7,775333	0,5	2,625300
7,783667	0,5	2,646900
7,792000	0,5	2,696000
7,800333	0,5	2,758650
7,808667	0,5	2,844050
7,817000	0,5	2,918650
7,825333	0,5	2,947200
7,833667	0,5	2,924150
7,842000	0,5	2,862000
7,850333	0,5	2,778700
7,858667	0,5	2,700150
7,867000	0,5	2,628600
7,875333	0,5	2,577750
7,883667	0,5	2,540800
7,892000	0,5	2,518600
7,900333	0,5	2,503050
7,908667	0,5	2,493800
7,917000	0,5	2,488250
7,925333	0,5	2,487250
7,933667	0,5	2,482250
7,942000	0,5	2,482550
7,950333	0,5	2,472050
7,958667	0,5	2,469550
7,967000	0,5	2,462900
7,975333	0,5	2,449150
7,983667	0,5	2,436300
7,992000	0,5	2,425700
8,000333	0,5	2,426250
8,008667	0,5	2,424700
8,017000	0,5	2,423000
8,025333	0,5	2,424400
8,033667	0,5	2,428050
8,042000	0,5	2,436000
8,050333	0,5	2,459150
8,058667	0,5	2,497050
8,067000	0,5	2,555750
8,075333	0,5	2,618900
8,083667	0,5	2,668050
8,092000	0,5	2,683100
8,100333	0,5	2,663900
8,108667	0,5	2,616450
8,117000	0,5	2,561100
8,125333	0,5	2,505550
8,133667	0,5	2,475600
8,142000	0,5	2,454750
8,150333	0,5	2,446250
8,158667	0,5	2,436150
8,167000	0,5	2,423150
8,175333	0,5	2,411800
8,183667	0,5	2,400650
8,192000	0,5	2,392100
8,200333	0,5	2,386550
8,208667	0,5	2,384050
8,217000	0,5	2,376800
8,225333	0,5	2,374800
8,233667	0,5	2,371650
8,242000	0,5	2,371200
8,250333	0,5	2,366750
8,258667	0,5	2,374000
8,267000	0,5	2,371350
8,275333	0,5	2,371800
8,283667	0,5	2,379900
8,292000	0,5	2,391300
8,300333	0,5	2,408550
8,308667	0,5	2,425700
8,317000	0,5	2,444800
8,325333	0,5	2,454250
8,333667	0,5	2,460500
8,342000	0,5	2,458450
8,350333	0,5	2,449750
8,358667	0,5	2,435750
8,367000	0,5	2,422750
8,375333	0,5	2,409350
8,383667	0,5	2,401000
8,392000	0,5	2,392550
8,400333	0,5	2,390550
8,408667	0,5	2,393000
8,417000	0,5	2,391400
8,425333	0,5	2,389850
8,433667	0,5	2,389750
8,442000	0,5	2,396950
8,450333	0,5	2,412600
8,458667	0,5	2,429000
8,467000	0,5	2,455500
8,475333	0,5	2,486000
8,483667	0,5	2,525800
8,492000	0,5	2,577300
8,500333	0,5	2,641650
8,508667	0,5	2,727000
8,517000	0,5	2,836750
8,525333	0,5	2,959150
8,533667	0,5	3,067450
8,542000	0,5	3,142500
8,550333	0,5	3,179800
8,558667	0,5	3,186000
8,567000	0,5	3,183300
8,575333	0,5	3,205750
8,583667	0,5	3,277700
8,592000	0,5	3,414450
8,600333	0,5	3,623200
8,608667	0,5	3,888000
8,617000	0,5	4,179700
8,625333	0,5	4,458850
8,633667	0,5	4,687500
8,642000	0,5	4,824800
8,650333	0,5	4,846750
8,658667	0,5	4,765850
8,667000	0,5	4,641000
8,675333	0,5	4,562500
8,683667	0,5	4,566400
8,692000	0,5	4,638750
8,700333	0,5	4,745300
8,708667	0,5	4,835200
8,717000	0,5	4,879350
8,725333	0,5	4,850000
8,733667	0,5	4,753100
8,742000	0,5	4,600600
8,750333	0,5	4,400100
8,758667	0,5	4,173000
8,767000	0,5	3,936100
8,775333	0,5	3,714450
8,783667	0,5	3,513400
8,792000	0,5	3,335750
8,800333	0,5	3,183000
8,808667	0,5	3,059500
8,817000	0,5	2,961300
8,825333	0,5	2,887150
8,833667	0,5	2,841100
8,842000	0,5	2,815200
8,850333	0,5	2,818950
8,858667	0,5	2,848050
8,867000	0,5	2,907700
8,875333	0,5	2,997250
8,883667	0,5	3,114400
8,892000	0,5	3,252850
8,900333	0,5	3,372850
8,908667	0,5	3,450500
8,917000	0,5	3,449100
8,925333	0,5	3,374950
8,933667	0,5	3,243100
8,942000	0,5	3,095250
8,950333	0,5	2,963750
8,958667	0,5	2,861550
8,967000	0,5	2,791850
8,975333	0,5	2,752850
8,983667	0,5	2,725800
8,992000	0,5	2,704550
9,000333	0,5	2,678700
9,008667	0,5	2,644500
9,017000	0,5	2,601150
9,025333	0,5	2,557200
9,033667	0,5	2,519050
9,042000	0,5	2,486750
9,050333	0,5	2,462150
9,058667	0,5	2,444550
9,067000	0,5	2,430350
9,075333	0,5	2,416950
9,083667	0,5	2,406150
9,092000	0,5	2,403850
9,100333	0,5	2,398650
9,108667	0,5	2,396800
9,117000	0,5	2,398050
9,125333	0,5	2,401250
9,133667	0,5	2,409350
9,142000	0,5	2,423150
9,150333	0,5	2,438350
9,158667	0,5	2,461150
9,167000	0,5	2,490050
9,175333	0,5	2,522900
9,183667	0,5	2,565750
9,192000	0,5	2,616600
9,200333	0,5	2,679100
9,208667	0,5	2,754000
9,217000	0,5	2,831100
9,225333	0,5	2,899450
9,233667	0,5	2,941050
9,242000	0,5	2,940100
9,250333	0,5	2,903250
9,258667	0,5	2,847950
9,267000	0,5	2,784950
9,275333	0,5	2,727700
9,283667	0,5	2,681450
9,292000	0,5	2,648650
9,300333	0,5	2,630950
9,308667	0,5	2,627000
9,317000	0,5	2,647950
9,325333	0,5	2,692900
9,333667	0,5	2,760650
9,342000	0,5	2,860950
9,350333	0,5	2,987000
9,358667	0,5	3,149800
9,367000	0,5	3,346550
9,375333	0,5	3,581700
9,383667	0,5	3,863600
9,392000	0,5	4,174600
9,400333	0,5	4,520700
9,408667	0,5	4,891450
9,417000	0,5	5,277050
9,425333	0,5	5,662800
9,433667	0,5	6,036100
9,442000	0,5	6,399800
9,450333	0,5	6,726950
9,458667	0,5	7,003500
9,467000	0,5	7,191950
9,475333	0,5	7,264100
9,483667	0,5	7,167450
9,492000	0,5	6,871100
9,500333	0,5	6,372950
9,508667	0,5	5,729050
9,517000	0,5	5,016750
9,525333	0,5	4,327000
9,533667	0,5	3,733100
9,542000	0,5	3,269800
9,550333	0,5	2,934600
9,558667	0,5	2,704850
9,567000	0,5	2,558550
9,575333	0,5	2,461250
9,583667	0,5	2,399900
9,592000	0,5	2,361300
9,600333	0,5	2,335000
9,608667	0,5	2,319500
9,617000	0,5	2,306950
9,625333	0,5	2,307450
9,633667	0,5	2,322850
9,642000	0,5	2,350200
9,650333	0,5	2,393800
9,658667	0,5	2,445950
9,667000	0,5	2,507000
9,675333	0,5	2,553550
9,683667	0,5	2,577200
9,692000	0,5	2,577000
9,700333	0,5	2,546750
9,708667	0,5	2,502850
9,717000	0,5	2,444050
9,725333	0,5	2,385900
9,733667	0,5	2,330250
9,742000	0,5	2,287900
9,750333	0,5	2,257650
9,758667	0,5	2,241050
9,767000	0,5	2,237000
9,775333	0,5	2,234700
9,783667	0,5	2,231650
9,792000	0,5	2,222600
9,800333	0,5	2,204450
9,808667	0,5	2,177800
9,817000	0,5	2,156550
9,825333	0,5	2,142200
9,833667	0,5	2,132500
9,842000	0,5	2,133500
9,850333	0,5	2,137150
9,858667	0,5	2,142750
9,867000	0,5	2,148350
9,875333	0,5	2,151650
9,883667	0,5	2,162650
9,892000	0,5	2,178250
9,900333	0,5	2,185600
9,908667	0,5	2,190800
9,917000	0,5	2,186500
9,925333	0,5	2,174650
9,933667	0,5	2,159700
9,942000	0,5	2,142200
9,950333	0,5	2,124650
9,958667	0,5	2,109550
9,967000	0,5	2,097000
9,975333	0,5	2,086450
9,983667	0,5	2,088300
9,992000	0,5	2,095550
10,000333	0,5	2,123100
10,008667	0,5	2,163550
10,017000	0,5	2,227650
10,025333	0,5	2,292500
10,033667	0,5	2,351800
10,042000	0,5	2,384100
10,050333	0,5	2,382900
10,058667	0,5	2,356050
10,067000	0,5	2,307350
10,075333	0,5	2,262350
10,083667	0,5	2,219600
10,092000	0,5	2,176100
10,100333	0,5	2,136800
10,108667	0,5	2,091100
10,117000	0,5	2,054150
10,125333	0,5	2,016600
10,133667	0,5	1,989050
10,142000	0,5	1,969450
10,150333	0,5	1,958900
10,158667	0,5	1,948950
10,167000	0,5	1,954950
10,175333	0,5	1,961800
10,183667	0,5	1,981750
10,192000	0,5	2,009700
10,200333	0,5	2,049150
10,208667	0,5	2,097300
10,217000	0,5	2,155800
10,225333	0,5	2,218800
10,233667	0,5	2,279150
10,242000	0,5	2,319750
10,250333	0,5	2,334850
10,258667	0,5	2,319550
10,267000	0,5	2,270000
10,275333	0,5	2,197600
10,283667	0,5	2,111400
10,292000	0,5	2,029450
10,300333	0,5	1,962900
10,308667	0,5	1,925500
10,317000	0,5	1,916850
10,325333	0,5	1,939850
10,333667	0,5	1,988750
10,342000	0,5	2,039400
10,350333	0,5	2,074900
10,358667	0,5	2,087550
10,367000	0,5	2,076300
10,375333	0,5	2,049800
10,383667	0,5	2,015650
10,392000	0,5	1,976550
10,400333	0,5	1,953100
10,408667	0,5	1,926800
10,417000	0,5	1,906400
10,425333	0,5	1,879950
10,433667	0,5	1,850400
10,442000	0,5	1,815600
10,450333	0,5	1,782950
10,458667	0,5	1,756250
10,467000	0,5	1,729600
10,475333	0,5	1,712500
10,483667	0,5	1,701450
10,492000	0,5	1,694250
10,500333	0,5	1,692950
10,508667	0,5	1,698500
10,517000	0,5	1,703250
10,525333	0,5	1,721400
10,533667	0,5	1,733400
10,542000	0,5	1,744450
10,550333	0,5	1,752850
10,558667	0,5	1,756300
10,567000	0,5	1,757750
10,575333	0,5	1,762600
10,583667	0,5	1,779500
10,592000	0,5	1,809100
10,600333	0,5	1,857750
10,608667	0,5	1,910400
10,617000	0,5	1,955100
10,625333	0,5	1,979850
10,633667	0,5	1,981900
10,642000	0,5	1,954300
10,650333	0,5	1,906450
10,658667	0,5	1,855600
10,667000	0,5	1,810500
10,675333	0,5	1,772700
10,683667	0,5	1,743900
10,692000	0,5	1,719700
10,700333	0,5	1,703250
10,708667	0,5	1,681400
10,717000	0,5	1,659050
10,725333	0,5	1,644450
10,733667	0,5	1,628150
10,742000	0,5	1,614000
10,750333	0,5	1,612650
10,758667	0,5	1,619600
10,767000	0,5	1,629250
10,775333	0,5	1,650250
10,783667	0,5	1,673850
10,792000	0,5	1,692700
10,800333	0,5	1,710350
10,808667	0,5	1,720550
10,817000	0,5	1,741450
10,825333	0,5	1,770000
10,833667	0,5	1,807200
10,842000	0,5	1,855500
10,850333	0,5	1,910150
10,858667	0,5	1,955150
10,867000	0,5	1,979700
10,875333	0,5	1,976300
10,883667	0,5	1,951350
10,892000	0,5	1,906300
10,900333	0,5	1,860250
10,908667	0,5	1,818600
10,917000	0,5	1,789050
10,925333	0,5	1,776050
10,933667	0,5	1,766300
10,942000	0,5	1,766200
10,950333	0,5	1,767800
10,958667	0,5	1,779000
10,967000	0,5	1,807350
10,975333	0,5	1,848400
10,983667	0,5	1,929200
10,992000	0,5	2,062000
11,000333	0,5	2,263850
11,008667	0,5	2,554500
11,017000	0,5	2,922100
11,025333	0,5	3,345500
11,033667	0,5	3,776150
11,042000	0,5	4,147450
11,050333	0,5	4,415200
11,058667	0,5	4,539100
11,067000	0,5	4,531500
11,075333	0,5	4,395600
11,083667	0,5	4,157350
11,092000	0,5	3,854300
11,100333	0,5	3,527550
11,108667	0,5	3,212400
11,117000	0,5	2,937200
11,125333	0,5	2,713000
11,133667	0,5	2,549950
11,142000	0,5	2,434950
11,150333	0,5	2,362300
11,158667	0,5	2,308400
11,167000	0,5	2,261850
11,175333	0,5	2,214500
11,183667	0,5	2,157800
11,192000	0,5	2,101050
11,200333	0,5	2,045550
11,208667	0,5	1,993650
11,217000	0,5	1,967450
11,225333	0,5	1,954400
11,233667	0,5	1,955700
11,242000	0,5	1,969000
11,250333	0,5	1,982150
11,258667	0,5	1,992300
11,267000	0,5	1,975450
11,275333	0,5	1,944250
11,283667	0,5	1,881150
11,292000	0,5	1,817550
11,300333	0,5	1,754050
11,308667	0,5	1,704250
11,317000	0,5	1,667450
11,325333	0,5	1,646050
11,333667	0,5	1,637100
11,342000	0,5	1,644450
11,350333	0,5	1,660400
11,358667	0,5	1,685150
11,367000	0,5	1,737050
11,375333	0,5	1,802350
11,383667	0,5	1,886500
11,392000	0,5	1,999650
11,400333	0,5	2,117850
11,408667	0,5	2,235200
11,417000	0,5	2,323150
11,425333	0,5	2,367300
11,433667	0,5	2,366050
11,442000	0,5	2,316500
11,450333	0,5	2,230550
11,458667	0,5	2,119650
11,467000	0,5	2,005700
11,475333	0,5	1,902800
11,483667	0,5	1,809100
11,492000	0,5	1,745850
11,500333	0,5	1,700150
11,508667	0,5	1,676650
11,517000	0,5	1,682200
11,525333	0,5	1,690100
11,533667	0,5	1,705100
11,542000	0,5	1,714850
11,550333	0,5	1,716050
11,558667	0,5	1,702650
11,567000	0,5	1,672600
11,575333	0,5	1,630400
11,583667	0,5	1,584500
11,592000	0,5	1,545000
11,600333	0,5	1,509400
11,608667	0,5	1,483650
11,617000	0,5	1,468050
11,625333	0,5	1,466700
11,633667	0,5	1,472900
11,642000	0,5	1,491450
11,650333	0,5	1,507450
11,658667	0,5	1,528550
11,667000	0,5	1,542550
11,675333	0,5	1,543550
11,683667	0,5	1,530550
11,692000	0,5	1,509750
11,700333	0,5	1,491400
11,708667	0,5	1,474250
11,717000	0,5	1,458050
11,725333	0,5	1,451350
11,733667	0,5	1,448300
11,742000	0,5	1,453900
11,750333	0,5	1,466200
11,758667	0,5	1,479650
11,767000	0,5	1,487800
11,775333	0,5	1,491750
11,783667	0,5	1,496750
11,792000	0,5	1,491450
11,800333	0,5	1,486650
11,808667	0,5	1,477100
11,817000	0,5	1,468650
11,825333	0,5	1,459700
11,833667	0,5	1,449800
11,842000	0,5	1,443150
11,850333	0,5	1,445550
11,858667	0,5	1,453050
11,867000	0,5	1,467200
11,875333	0,5	1,481700
11,883667	0,5	1,499200
11,892000	0,5	1,516450
11,900333	0,5	1,521300
11,908667	0,5	1,516600
11,917000	0,5	1,503600
11,925333	0,5	1,507150
11,933667	0,5	1,507850
11,942000	0,5	1,532000
11,950333	0,5	1,612550
11,958667	0,5	1,784900
11,967000	0,5	1,984350
11,975333	0,5	2,123950
11,983667	0,5	2,023800
11,992000	0,5	1,797300
12,000333	0,5	1,543150
12,008667	0,5	1,211250
12,017000	0,5	0,932950
12,025333	0,5	0,653300
12,033667	0,5	0,399300
12,042000	0,5	0,225150
12,050333	0,5	0,110650
12,058667	0,5	0,024800
12,067000	0,5	-0,037650
12,075333	0,5	-0,077450
12,083667	0,5	-0,102550
12,092000	0,5	-0,118100
12,100333	0,5	-0,110200
12,108667	0,5	-0,088050
12,117000	0,5	-0,058050
12,125333	0,5	-0,010450
12,133667	0,5	0,046100
12,142000	0,5	0,117850
12,150333	0,5	0,190600
12,158667	0,5	0,258100
12,167000	0,5	0,321100
12,175333	0,5	0,374300
12,183667	0,5	0,413700
12,192000	0,5	0,437450
12,200333	0,5	0,451650
12,208667	0,5	0,456400
12,217000	0,5	0,454050
12,225333	0,5	0,453150
12,233667	0,5	0,449150
12,242000	0,5	0,435800
12,250333	0,5	0,441150
12,258667	0,5	0,439000
12,267000	0,5	0,433800
12,275333	0,5	0,432850
12,283667	0,5	0,431350
12,292000	0,5	0,438900
12,300333	0,5	0,440950
12,308667	0,5	0,444000
12,317000	0,5	0,446650
12,325333	0,5	0,451350
12,333667	0,5	0,452100
12,342000	0,5	0,456750
12,350333	0,5	0,455650
12,358667	0,5	0,457900
12,367000	0,5	0,459200
12,375333	0,5	0,461700
12,383667	0,5	0,457100
12,392000	0,5	0,445300
12,400333	0,5	0,446400
12,408667	0,5	0,441400
12,417000	0,5	0,434200
12,425333	0,5	0,425100
12,433667	0,5	0,420350
12,442000	0,5	0,420300
12,450333	0,5	0,416300
12,458667	0,5	0,411250
12,467000	0,5	0,408600
12,475333	0,5	0,406600
12,483667	0,5	0,407100
12,492000	0,5	0,402350
12,500333	0,5	0,405700
12,508667	0,5	0,396350
12,517000	0,5	0,396950
12,525333	0,5	0,396850
12,533667	0,5	0,391200
12,542000	0,5	0,390700
12,550333	0,5	0,393500
12,558667	0,5	0,386400
12,567000	0,5	0,382950
12,575333	0,5	0,375850
12,583667	0,5	0,375500
12,592000	0,5	0,378800
12,600333	0,5	0,378950
12,608667	0,5	0,378400
12,617000	0,5	0,378600
12,625333	0,5	0,380500
12,633667	0,5	0,380600
12,642000	0,5	0,386100
12,650333	0,5	0,384850
12,658667	0,5	0,386100
12,667000	0,5	0,387400
12,675333	0,5	0,390500
12,683667	0,5	0,383150
12,692000	0,5	0,393750
12,700333	0,5	0,393100
12,708667	0,5	0,390350
12,717000	0,5	0,389350
12,725333	0,5	0,383250
12,733667	0,5	0,384150
12,742000	0,5	0,389800
12,750333	0,5	0,385150
12,758667	0,5	0,382350
12,767000	0,5	0,382550
12,775333	0,5	0,386000
12,783667	0,5	0,385650
12,792000	0,5	0,382850
12,800333	0,5	0,381450
12,808667	0,5	0,381200
12,817000	0,5	0,383900
12,825333	0,5	0,380500
12,833667	0,5	0,375500
12,842000	0,5	0,374650
12,850333	0,5	0,373700
12,858667	0,5	0,365950
12,867000	0,5	0,363300
12,875333	0,5	0,356550
12,883667	0,5	0,355450
12,892000	0,5	0,358600
12,900333	0,5	0,358000
12,908667	0,5	0,358300
12,917000	0,5	0,359600
12,925333	0,5	0,358150
12,933667	0,5	0,356900
12,942000	0,5	0,360250
12,950333	0,5	0,353900
12,958667	0,5	0,357300
12,967000	0,5	0,361350
12,975333	0,5	0,354750
12,983667	0,5	0,355650
12,992000	0,5	0,358150
13,000333	0,5	0,356000
13,008667	0,5	0,356550
13,017000	0,5	0,349150
13,025333	0,5	0,350200
13,033667	0,5	0,351100
13,042000	0,5	0,355600
13,050333	0,5	0,351750
13,058667	0,5	0,354750
13,067000	0,5	0,353550
13,075333	0,5	0,354700
13,083667	0,5	0,353000
13,092000	0,5	0,351050
13,100333	0,5	0,346600
13,108667	0,5	0,350250
13,117000	0,5	0,348800
13,125333	0,5	0,340500
13,133667	0,5	0,341050
13,142000	0,5	0,340000
13,150333	0,5	0,337850
13,158667	0,5	0,338550
13,167000	0,5	0,331400
13,175333	0,5	0,334700
13,183667	0,5	0,336500
13,192000	0,5	0,337450
13,200333	0,5	0,342000
13,208667	0,5	0,345950
13,217000	0,5	0,350950
13,225333	0,5	0,352350
13,233667	0,5	0,358650
13,242000	0,5	0,361850
13,250333	0,5	0,368500
13,258667	0,5	0,377250
13,267000	0,5	0,388150
13,275333	0,5	0,390600
13,283667	0,5	0,410200
13,292000	0,5	0,423400
13,300333	0,5	0,437150
13,308667	0,5	0,445650
13,317000	0,5	0,444050
13,325333	0,5	0,451200
13,333667	0,5	0,447800
13,342000	0,5	0,444050
13,350333	0,5	0,434850
13,358667	0,5	0,429800
13,367000	0,5	0,425700
13,375333	0,5	0,427750
13,383667	0,5	0,426450
13,392000	0,5	0,428350
13,400333	0,5	0,425350
13,408667	0,5	0,433100
13,417000	0,5	0,430000
13,425333	0,5	0,431550
13,433667	0,5	0,449400
13,442000	0,5	0,462800
13,450333	0,5	0,483500
13,458667	0,5	0,515800
13,467000	0,5	0,554550
13,475333	0,5	0,599250
13,483667	0,5	0,639600
13,492000	0,5	0,664000
13,500333	0,5	0,674350
13,508667	0,5	0,676200
13,517000	0,5	0,663500
13,525333	0,5	0,640250
13,533667	0,5	0,622600
13,542000	0,5	0,593200
13,550333	0,5	0,581100
13,558667	0,5	0,572950
13,567000	0,5	0,570700
13,575333	0,5	0,584500
13,583667	0,5	0,612850
13,592000	0,5	0,650600
13,600333	0,5	0,694400
13,608667	0,5	0,730800
13,617000	0,5	0,771850
13,625333	0,5	0,800950
13,633667	0,5	0,811350
13,642000	0,5	0,805250
13,650333	0,5	0,787750
13,658667	0,5	0,760600
13,667000	0,5	0,733000
13,675333	0,5	0,709350
13,683667	0,5	0,694400
13,692000	0,5	0,697800
13,700333	0,5	0,717350
13,708667	0,5	0,753650
13,717000	0,5	0,786100
13,725333	0,5	0,836000
13,733667	0,5	0,865400
13,742000	0,5	0,886200
13,750333	0,5	0,893550
13,758667	0,5	0,890650
13,767000	0,5	0,882050
13,775333	0,5	0,874550
13,783667	0,5	0,855400
13,792000	0,5	0,846100
13,800333	0,5	0,839600
13,808667	0,5	0,843650
13,817000	0,5	0,854100
13,825333	0,5	0,865200
13,833667	0,5	0,869000
13,842000	0,5	0,874000
13,850333	0,5	0,881400
13,858667	0,5	0,877800
13,867000	0,5	0,870050
13,875333	0,5	0,876650
13,883667	0,5	0,877950
13,892000	0,5	0,881700
13,900333	0,5	0,884900
13,908667	0,5	0,893300
13,917000	0,5	0,914050
13,925333	0,5	0,933900
13,933667	0,5	0,956550
13,942000	0,5	0,979150
13,950333	0,5	1,001750
13,958667	0,5	1,012800
13,967000	0,5	1,017000
13,975333	0,5	1,008050
13,983667	0,5	0,994650
13,992000	0,5	0,990050
14,000333	0,5	0,980100
14,008667	0,5	0,967150
14,017000	0,5	0,973600
14,025333	0,5	0,973550
14,033667	0,5	0,968200
14,042000	0,5	0,964300
14,050333	0,5	0,953550
14,058667	0,5	0,956400
14,067000	0,5	0,965750
14,075333	0,5	0,972650
14,083667	0,5	0,975100
14,092000	0,5	0,978450
14,100333	0,5	0,972600
14,108667	0,5	0,972500
14,117000	0,5	0,963750
14,125333	0,5	0,955150
14,133667	0,5	0,950600
14,142000	0,5	0,950200
14,150333	0,5	0,943250
14,158667	0,5	0,932950
14,167000	0,5	0,934450
14,175333	0,5	0,935250
14,183667	0,5	0,926350
14,192000	0,5	0,917000
14,200333	0,5	0,898700
14,208667	0,5	0,893150
14,217000	0,5	0,893950
14,225333	0,5	0,888800
14,233667	0,5	0,889350
14,242000	0,5	0,884450
14,250333	0,5	0,883800
14,258667	0,5	0,877900
14,267000	0,5	0,871550
14,275333	0,5	0,859200
14,283667	0,5	0,850550
14,292000	0,5	0,849700
14,300333	0,5	0,845400
14,308667	0,5	0,836300
14,317000	0,5	0,845050
14,325333	0,5	0,839600
14,333667	0,5	0,830600
14,342000	0,5	0,823100
14,350333	0,5	0,812450
14,358667	0,5	0,816700
14,367000	0,5	0,805450
14,375333	0,5	0,803700
14,383667	0,5	0,803350
14,392000	0,5	0,804300
14,400333	0,5	0,802250
14,408667	0,5	0,807450
14,417000	0,5	0,796500
14,425333	0,5	0,795250
14,433667	0,5	0,792150
14,442000	0,5	0,797750
14,450333	0,5	0,784350
14,458667	0,5	0,787800
14,467000	0,5	0,789500
14,475333	0,5	0,788950
14,483667	0,5	0,780350
14,492000	0,5	0,769600
14,500333	0,5	0,763400
14,508667	0,5	0,763950
14,517000	0,5	0,757000
14,525333	0,5	0,757250
14,533667	0,5	0,758800
14,542000	0,5	0,758150
14,550333	0,5	0,758550
14,558667	0,5	0,760650
14,567000	0,5	0,760100
14,575333	0,5	0,753050
14,583667	0,5	0,756150
14,592000	0,5	0,750450
14,600333	0,5	0,737800
14,608667	0,5	0,742900
14,617000	0,5	0,739750
14,625333	0,5	0,737500
14,633667	0,5	0,729800
14,642000	0,5	0,716450
14,650333	0,5	0,715050
14,658667	0,5	0,706200
14,667000	0,5	0,699500
14,675333	0,5	0,692850
14,683667	0,5	0,687150
14,692000	0,5	0,685000
14,700333	0,5	0,679600
14,708667	0,5	0,675750
14,717000	0,5	0,666550
14,725333	0,5	0,667400
14,733667	0,5	0,662100
14,742000	0,5	0,659750
14,750333	0,5	0,650250
14,758667	0,5	0,653800
14,767000	0,5	0,648850
14,775333	0,5	0,644250
14,783667	0,5	0,630100
14,792000	0,5	0,622250
14,800333	0,5	0,618450
14,808667	0,5	0,617700
14,817000	0,5	0,610550
14,825333	0,5	0,611900
14,833667	0,5	0,604000
14,842000	0,5	0,607300
14,850333	0,5	0,600150
14,858667	0,5	0,598050
14,867000	0,5	0,596150
14,875333	0,5	0,593900
14,883667	0,5	0,591450
14,892000	0,5	0,583800
14,900333	0,5	0,578950
14,908667	0,5	0,582550
14,917000	0,5	0,576950
14,925333	0,5	0,569150
14,933667	0,5	0,559000
14,942000	0,5	0,554450
14,950333	0,5	0,556000
14,958667	0,5	0,553400
14,967000	0,5	0,560550
14,975333	0,5	0,559400
14,983667	0,5	0,563050
14,992000	0,5	0,563300
15,000333	0,5	0,567650
15,008667	0,5	0,566800
15,017000	0,5	0,570800
15,025333	0,5	0,585200
15,033667	0,5	0,585250
15,042000	0,5	0,576500
15,050333	0,5	0,585850
15,058667	0,5	0,588900
15,067000	0,5	0,589150
15,075333	0,5	0,583900
15,083667	0,5	0,569100
15,092000	0,5	0,573250
15,100333	0,5	0,569700
15,108667	0,5	0,577850
15,117000	0,5	0,582350
15,125333	0,5	0,589350
15,133667	0,5	0,592600
15,142000	0,5	0,603650
15,150333	0,5	0,609900
15,158667	0,5	0,615500
15,167000	0,5	0,615000
15,175333	0,5	0,620900
15,183667	0,5	0,614750
15,192000	0,5	0,604750
15,200333	0,5	0,614950
15,208667	0,5	0,628650
15,217000	0,5	0,639550
15,225333	0,5	0,646800
15,233667	0,5	0,653150
15,242000	0,5	0,658300
15,250333	0,5	0,659050
15,258667	0,5	0,642150
15,267000	0,5	0,628150
15,275333	0,5	0,612050
15,283667	0,5	0,599200
15,292000	0,5	0,586000
15,300333	0,5	0,571050
15,308667	0,5	0,548750
15,317000	0,5	0,532250
15,325333	0,5	0,513550
15,333667	0,5	0,483600
15,342000	0,5	0,465850
15,350333	0,5	0,462600
15,358667	0,5	0,449350
15,367000	0,5	0,432500
15,375333	0,5	0,412150
15,383667	0,5	0,402450
15,392000	0,5	0,400650
15,400333	0,5	0,391100
15,408667	0,5	0,383300
15,417000	0,5	0,374850
15,425333	0,5	0,372800
15,433667	0,5	0,360900
15,442000	0,5	0,363600
15,450333	0,5	0,356100
15,458667	0,5	0,354700
15,467000	0,5	0,355250
15,475333	0,5	0,368050
15,483667	0,5	0,357050
15,492000	0,5	0,362850
15,500333	0,5	0,363700
15,508667	0,5	0,362150
15,517000	0,5	0,353450
15,525333	0,5	0,338400
15,533667	0,5	0,338100
15,542000	0,5	0,344550
15,550333	0,5	0,337900
15,558667	0,5	0,333700
15,567000	0,5	0,332400
15,575333	0,5	0,324350
15,583667	0,5	0,324500
15,592000	0,5	0,310600
15,600333	0,5	0,304550
15,608667	0,5	0,296450
15,617000	0,5	0,301350
15,625333	0,5	0,292700
15,633667	0,5	0,273600
15,642000	0,5	0,276350
15,650333	0,5	0,271300
15,658667	0,5	0,262400
15,667000	0,5	0,254450
15,675333	0,5	0,236500
15,683667	0,5	0,238100
15,692000	0,5	0,228750
15,700333	0,5	0,230300
15,708667	0,5	0,226150
15,717000	0,5	0,225150
15,725333	0,5	0,222250
15,733667	0,5	0,217900
15,742000	0,5	0,217650
15,750333	0,5	0,214500
15,758667	0,5	0,218550
15,767000	0,5	0,220400
15,775333	0,5	0,219750
15,783667	0,5	0,213600
15,792000	0,5	0,225550
15,800333	0,5	0,228100
15,808667	0,5	0,232900
15,817000	0,5	0,223900
15,825333	0,5	0,229750
15,833667	0,5	0,242850
15,842000	0,5	0,253600
15,850333	0,5	0,254200
15,858667	0,5	0,256850
15,867000	0,5	0,254100
15,875333	0,5	0,246650
15,883667	0,5	0,234100
15,892000	0,5	0,223400
15,900333	0,5	0,215550
15,908667	0,5	0,209450
15,917000	0,5	0,202950
15,925333	0,5	0,188550
15,933667	0,5	0,185600
15,942000	0,5	0,191450
15,950333	0,5	0,189900
15,958667	0,5	0,187150
15,967000	0,5	0,179800
15,975333	0,5	0,165300
15,983667	0,5	0,169700
15,992000	0,5	0,157100
16,000333	0,5	0,152600
16,008667	0,5	0,142200
16,017000	0,5	0,137900
16,025333	0,5	0,128000
16,033667	0,5	0,125750
16,042000	0,5	0,117300
16,050333	0,5	0,114700
16,058667	0,5	0,120200
16,067000	0,5	0,112000
16,075333	0,5	0,095150
16,083667	0,5	0,101600
16,092000	0,5	0,097800
16,100333	0,5	0,091350
16,108667	0,5	0,082400
16,117000	0,5	0,067500
16,125333	0,5	0,076000
16,133667	0,5	0,071150
16,142000	0,5	0,075000
16,150333	0,5	0,066100
16,158667	0,5	0,068700
16,167000	0,5	0,068650
16,175333	0,5	0,064350
16,183667	0,5	0,059700
16,192000	0,5	0,061100
16,200333	0,5	0,058250
16,208667	0,5	0,063100
16,217000	0,5	0,044150
16,225333	0,5	0,047900
16,233667	0,5	0,052350
16,242000	0,5	0,051900
16,250333	0,5	0,046900
16,258667	0,5	0,033150
16,267000	0,5	0,027850
16,275333	0,5	0,027550
16,283667	0,5	0,034550
16,292000	0,5	0,027300
16,300333	0,5	0,031450
16,308667	0,5	0,024000
16,317000	0,5	0,023400
16,325333	0,5	0,017700
16,333667	0,5	0,016200
16,342000	0,5	0,004400
16,350333	0,5	0,002100
16,358667	0,5	0,001000
16,367000	0,5	-0,019100
16,375333	0,5	-0,015300
16,383667	0,5	-0,014400
16,392000	0,5	-0,016700
16,400333	0,5	-0,028850
16,408667	0,5	-0,045350
16,417000	0,5	-0,039300
16,425333	0,5	-0,035500
16,433667	0,5	-0,042900
16,442000	0,5	-0,040200
16,450333	0,5	-0,043800
16,458667	0,5	-0,047050
16,467000	0,5	-0,052000
16,475333	0,5	-0,046750
16,483667	0,5	-0,056550
16,492000	0,5	-0,051050
16,500333	0,5	-0,058550
16,508667	0,5	-0,049700
16,517000	0,5	-0,069500
16,525333	0,5	-0,056850
16,533667	0,5	-0,061100
16,542000	0,5	-0,064600
16,550333	0,5	-0,072900
16,558667	0,5	-0,087750
16,567000	0,5	-0,077600
16,575333	0,5	-0,078600
16,583667	0,5	-0,079100
16,592000	0,5	-0,080350
16,600333	0,5	-0,078700
16,608667	0,5	-0,078100
16,617000	0,5	-0,077850
16,625333	0,5	-0,079450
16,633667	0,5	-0,078300
16,642000	0,5	-0,079950
16,650333	0,5	-0,076350
16,658667	0,5	-0,086800
16,667000	0,5	-0,087700
16,675333	0,5	-0,076300
16,683667	0,5	-0,076650
16,692000	0,5	-0,080800
16,700333	0,5	-0,086150
16,708667	0,5	-0,096800
16,717000	0,5	-0,089550
16,725333	0,5	-0,089550
16,733667	0,5	-0,085500
16,742000	0,5	-0,080000
16,750333	0,5	-0,074450
16,758667	0,5	-0,068350
16,767000	0,5	-0,062450
16,775333	0,5	-0,047850
16,783667	0,5	-0,040800
16,792000	0,5	-0,026600
16,800333	0,5	-0,017300
16,808667	0,5	-0,009150
16,817000	0,5	0,007050
16,825333	0,5	0,029300
16,833667	0,5	0,032700
16,842000	0,5	0,038400
16,850333	0,5	0,022700
16,858667	0,5	0,028350
16,867000	0,5	0,034000
16,875333	0,5	0,043350
16,883667	0,5	0,046250
16,892000	0,5	0,053800
16,900333	0,5	0,059500
16,908667	0,5	0,071250
16,917000	0,5	0,081200
16,925333	0,5	0,093050
16,933667	0,5	0,108950
16,942000	0,5	0,119450
16,950333	0,5	0,130750
16,958667	0,5	0,134200
16,967000	0,5	0,152450
16,975333	0,5	0,159100
16,983667	0,5	0,159700
16,992000	0,5	0,144750
17,000333	0,5	0,135100
17,008667	0,5	0,130050
17,017000	0,5	0,134600
17,025333	0,5	0,133250
17,033667	0,5	0,140500
17,042000	0,5	0,135900
17,050333	0,5	0,146250
17,058667	0,5	0,153650
17,067000	0,5	0,161000
17,075333	0,5	0,161150
17,083667	0,5	0,166450
17,092000	0,5	0,176350
17,100333	0,5	0,162500
17,108667	0,5	0,161800
17,117000	0,5	0,166150
17,125333	0,5	0,161600
17,133667	0,5	0,151800
17,142000	0,5	0,127700
17,150333	0,5	0,119150
17,158667	0,5	0,122050
17,167000	0,5	0,111950
17,175333	0,5	0,112800
17,183667	0,5	0,101500
17,192000	0,5	0,097750
17,200333	0,5	0,088000
17,208667	0,5	0,086000
17,217000	0,5	0,079100
17,225333	0,5	0,076000
17,233667	0,5	0,074750
17,242000	0,5	0,074450
17,250333	0,5	0,046000
17,258667	0,5	0,054700
17,267000	0,5	0,053750
17,275333	0,5	0,045150
17,283667	0,5	0,039800
17,292000	0,5	0,020300
17,300333	0,5	0,025700
17,308667	0,5	0,025000
17,317000	0,5	0,026400
17,325333	0,5	0,016250
17,333667	0,5	0,011050
17,342000	0,5	0,002550
17,350333	0,5	0,007500
17,358667	0,5	0,001600
17,367000	0,5	-0,005050
17,375333	0,5	-0,015650
17,383667	0,5	-0,018500
17,392000	0,5	-0,028700
17,400333	0,5	-0,049000
17,408667	0,5	-0,044550
17,417000	0,5	-0,049750
17,425333	0,5	-0,061100
17,433667	0,5	-0,082500
17,442000	0,5	-0,096450
17,450333	0,5	-0,096050
17,458667	0,5	-0,096400
17,467000	0,5	-0,101600
17,475333	0,5	-0,099650
17,483667	0,5	-0,105550
17,492000	0,5	-0,097850
17,500333	0,5	-0,100050
17,508667	0,5	-0,095600
17,517000	0,5	-0,095450
17,525333	0,5	-0,098750
17,533667	0,5	-0,088400
17,542000	0,5	-0,082500
17,550333	0,5	-0,085900
17,558667	0,5	-0,069350
17,567000	0,5	-0,071200
17,575333	0,5	-0,084350
17,583667	0,5	-0,112050
17,592000	0,5	-0,136150
17,600333	0,5	-0,148800
17,608667	0,5	-0,169650
17,617000	0,5	-0,194700
17,625333	0,5	-0,218250
17,633667	0,5	-0,230450
17,642000	0,5	-0,242750
17,650333	0,5	-0,248900
17,658667	0,5	-0,256150
17,667000	0,5	-0,264550
17,675333	0,5	-0,272300
17,683667	0,5	-0,271000
17,692000	0,5	-0,287750
17,700333	0,5	-0,282000
17,708667	0,5	-0,286450
17,717000	0,5	-0,295050
17,725333	0,5	-0,306250
17,733667	0,5	-0,317800
17,742000	0,5	-0,325750
17,750333	0,5	-0,330200
17,758667	0,5	-0,333650
17,767000	0,5	-0,336800
17,775333	0,5	-0,338350
17,783667	0,5	-0,344300
17,792000	0,5	-0,345450
17,800333	0,5	-0,350100
17,808667	0,5	-0,355600
17,817000	0,5	-0,361450
17,825333	0,5	-0,353200
17,833667	0,5	-0,361100
17,842000	0,5	-0,370800
17,850333	0,5	-0,368300
17,858667	0,5	-0,367750
17,867000	0,5	-0,375350
17,875333	0,5	-0,388950
17,883667	0,5	-0,406100
17,892000	0,5	-0,406050
17,900333	0,5	-0,404500
17,908667	0,5	-0,404450
17,917000	0,5	-0,405000
17,925333	0,5	-0,405400
17,933667	0,5	-0,406600
17,942000	0,5	-0,406800
17,950333	0,5	-0,407400
17,958667	0,5	-0,414000
17,967000	0,5	-0,416100
17,975333	0,5	-0,411150
17,983667	0,5	-0,427950
17,992000	0,5	-0,440250
18,000333	0,5	-0,438750
18,008667	0,5	-0,453450
18,017000	0,5	-0,452400
18,025333	0,5	-0,479250
18,033667	0,5	-0,485050
18,042000	0,5	-0,494650
18,050333	0,5	-0,493200
18,058667	0,5	-0,499800
18,067000	0,5	-0,503350
18,075333	0,5	-0,509650
18,083667	0,5	-0,514900
18,092000	0,5	-0,517000
18,100333	0,5	-0,529450
18,108667	0,5	-0,531750
18,117000	0,5	-0,532350
18,125333	0,5	-0,531700
18,133667	0,5	-0,554050
18,142000	0,5	-0,545650
18,150333	0,5	-0,548500
18,158667	0,5	-0,550750
18,167000	0,5	-0,566350
18,175333	0,5	-0,583800
18,183667	0,5	-0,590450
18,192000	0,5	-0,587850
18,200333	0,5	-0,598150
18,208667	0,5	-0,599500
18,217000	0,5	-0,603700
18,225333	0,5	-0,607050
18,233667	0,5	-0,613450
18,242000	0,5	-0,614550
18,250333	0,5	-0,620600
18,258667	0,5	-0,625750
18,267000	0,5	-0,614800
18,275333	0,5	-0,624000
18,283667	0,5	-0,639050
18,292000	0,5	-0,639100
18,300333	0,5	-0,638550
18,308667	0,5	-0,649850
18,317000	0,5	-0,659150
18,325333	0,5	-0,680750
18,333667	0,5	-0,666150
18,342000	0,5	-0,674000
18,350333	0,5	-0,676500
18,358667	0,5	-0,675550
18,367000	0,5	-0,674750
18,375333	0,5	-0,680200
18,383667	0,5	-0,676600
18,392000	0,5	-0,676900
18,400333	0,5	-0,675400
18,408667	0,5	-0,673300
18,417000	0,5	-0,662550
18,425333	0,5	-0,670550
18,433667	0,5	-0,666400
18,442000	0,5	-0,652950
18,450333	0,5	-0,647900
18,458667	0,5	-0,641100
18,467000	0,5	-0,650300
18,475333	0,5	-0,641400
18,483667	0,5	-0,635900
18,492000	0,5	-0,620050
18,500333	0,5	-0,610150
18,508667	0,5	-0,596150
18,517000	0,5	-0,585150
18,525333	0,5	-0,572200
18,533667	0,5	-0,561300
18,542000	0,5	-0,548900
18,550333	0,5	-0,542000
18,558667	0,5	-0,527550
18,567000	0,5	-0,517450
18,575333	0,5	-0,522400
18,583667	0,5	-0,512750
18,592000	0,5	-0,507000
18,600333	0,5	-0,505150
18,608667	0,5	-0,515250
18,617000	0,5	-0,531250
18,625333	0,5	-0,530800
18,633667	0,5	-0,526250
18,642000	0,5	-0,534200
18,650333	0,5	-0,538600
18,658667	0,5	-0,544550
18,667000	0,5	-0,550000
18,675333	0,5	-0,562150
18,683667	0,5	-0,564050
18,692000	0,5	-0,571350
18,700333	0,5	-0,571200
18,708667	0,5	-0,572750
18,717000	0,5	-0,575550
18,725333	0,5	-0,594250
18,733667	0,5	-0,588350
18,742000	0,5	-0,595000
18,750333	0,5	-0,602500
18,758667	0,5	-0,618250
18,767000	0,5	-0,644250
18,775333	0,5	-0,640100
18,783667	0,5	-0,645900
18,792000	0,5	-0,645050
18,800333	0,5	-0,650500
18,808667	0,5	-0,645000
18,817000	0,5	-0,642650
18,825333	0,5	-0,635500
18,833667	0,5	-0,632600
18,842000	0,5	-0,623650
18,850333	0,5	-0,611200
18,858667	0,5	-0,592150
18,867000	0,5	-0,590750
18,875333	0,5	-0,581950
18,883667	0,5	-0,574450
18,892000	0,5	-0,572850
18,900333	0,5	-0,582050
18,908667	0,5	-0,602900
18,917000	0,5	-0,618900
18,925333	0,5	-0,630700
18,933667	0,5	-0,644600
18,942000	0,5	-0,658300
18,950333	0,5	-0,671050
18,958667	0,5	-0,689950
18,967000	0,5	-0,698550
18,975333	0,5	-0,706100
18,983667	0,5	-0,718850
18,992000	0,5	-0,729800
19,000333	0,5	-0,721650
19,008667	0,5	-0,730850
19,017000	0,5	-0,748100
19,025333	0,5	-0,750700
19,033667	0,5	-0,748850
19,042000	0,5	-0,760750
19,050333	0,5	-0,778200
19,058667	0,5	-0,793850
19,067000	0,5	-0,797350
19,075333	0,5	-0,808450
19,083667	0,5	-0,809250
19,092000	0,5	-0,807450
19,100333	0,5	-0,813800
19,108667	0,5	-0,816900
19,117000	0,5	-0,816450
19,125333	0,5	-0,818800
19,133667	0,5	-0,824350
19,142000	0,5	-0,825350
19,150333	0,5	-0,820800
19,158667	0,5	-0,829700
19,167000	0,5	-0,837700
19,175333	0,5	-0,830450
19,183667	0,5	-0,829400
19,192000	0,5	-0,832050
19,200333	0,5	-0,850000
19,208667	0,5	-0,857650
19,217000	0,5	-0,857500
19,225333	0,5	-0,857850
19,233667	0,5	-0,869050
19,242000	0,5	-0,869750
19,250333	0,5	-0,877200
19,258667	0,5	-0,878450
19,267000	0,5	-0,887200
19,275333	0,5	-0,895900
19,283667	0,5	-0,899150
19,292000	0,5	-0,904150
19,300333	0,5	-0,898100
19,308667	0,5	-0,914700
19,317000	0,5	-0,919400
19,325333	0,5	-0,924900
19,333667	0,5	-0,926800
19,342000	0,5	-0,940600
19,350333	0,5	-0,954750
19,358667	0,5	-0,962750
19,367000	0,5	-0,960250
19,375333	0,5	-0,968250
19,383667	0,5	-0,970550
19,392000	0,5	-0,982500
19,400333	0,5	-0,983300
19,408667	0,5	-0,987000
19,417000	0,5	-0,994800
19,425333	0,5	-0,998500
19,433667	0,5	-1,003200
19,442000	0,5	-0,994100
19,450333	0,5	-0,990750
19,458667	0,5	-1,013200
19,467000	0,5	-1,006450
19,475333	0,5	-1,010800
19,483667	0,5	-1,021500
19,492000	0,5	-1,031350
19,500333	0,5	-1,062500
19,508667	0,5	-1,053850
19,517000	0,5	-1,061100
19,525333	0,5	-1,063650
19,533667	0,5	-1,071800
19,542000	0,5	-1,068650
19,550333	0,5	-1,077350
19,558667	0,5	-1,075650
19,567000	0,5	-1,080100
19,575333	0,5	-1,085200
19,583667	0,5	-1,083100
19,592000	0,5	-1,082000
19,600333	0,5	-1,088450
19,608667	0,5	-1,097700
19,617000	0,5	-1,091050
19,625333	0,5	-1,100850
19,633667	0,5	-1,107100
19,642000	0,5	-1,127550
19,650333	0,5	-1,136850
19,658667	0,5	-1,139750
19,667000	0,5	-1,132600
19,675333	0,5	-1,143250
19,683667	0,5	-1,146900
19,692000	0,5	-1,152400
19,700333	0,5	-1,145950
19,708667	0,5	-1,154750
19,717000	0,5	-1,153550
19,725333	0,5	-1,156350
19,733667	0,5	-1,151100
19,742000	0,5	-1,147900
19,750333	0,5	-1,156200
19,758667	0,5	-1,163500
19,767000	0,5	-1,160200
19,775333	0,5	-1,167850
19,783667	0,5	-1,182250
19,792000	0,5	-1,193350
19,800333	0,5	-1,203550
19,808667	0,5	-1,201100
19,817000	0,5	-1,206100
19,825333	0,5	-1,205850
19,833667	0,5	-1,210400
19,842000	0,5	-1,211250
19,850333	0,5	-1,215550
19,858667	0,5	-1,210550
19,867000	0,5	-1,220700
19,875333	0,5	-1,216750
19,883667	0,5	-1,210700
19,892000	0,5	-1,208550
19,900333	0,5	-1,217150
19,908667	0,5	-1,212050
19,917000	0,5	-1,213250
19,925333	0,5	-1,221100
19,933667	0,5	-1,237400
19,942000	0,5	-1,253900
19,950333	0,5	-1,251750
19,958667	0,5	-1,260100
19,967000	0,5	-1,253450
19,975333	0,5	-1,257300
19,983667	0,5	-1,251150
19,992000	0,5	-1,255400
20,000333	0,5	-1,250600
20,008667	0,5	-1,257650
20,017000	0,5	-1,252000
20,025333	0,5	-1,252500
20,033667	0,5	-1,239850
20,042000	0,5	-1,254400
20,050333	0,5	-1,257050
20,058667	0,5	-1,247550
20,067000	0,5	-1,250700
20,075333	0,5	-1,253300
20,083667	0,5	-1,272100
20,092000	0,5	-1,267900
20,100333	0,5	-1,271600
20,108667	0,5	-1,272100
20,117000	0,5	-1,278950
20,125333	0,5	-1,277900
20,133667	0,5	-1,282050
20,142000	0,5	-1,280950
20,150333	0,5	-1,277600
20,158667	0,5	-1,275500
20,167000	0,5	-1,279800
20,175333	0,5	-1,268050
20,183667	0,5	-1,268800
20,192000	0,5	-1,283550
20,200333	0,5	-1,273900
20,208667	0,5	-1,269550
20,217000	0,5	-1,272600
20,225333	0,5	-1,280700
20,233667	0,5	-1,300000
20,242000	0,5	-1,298650
20,250333	0,5	-1,296800
20,258667	0,5	-1,301200
20,267000	0,5	-1,299200
20,275333	0,5	-1,298250
20,283667	0,5	-1,297650
20,292000	0,5	-1,300350
20,300333	0,5	-1,296800
20,308667	0,5	-1,302350
20,317000	0,5	-1,298600
20,325333	0,5	-1,288950
20,333667	0,5	-1,285650
20,342000	0,5	-1,300500
20,350333	0,5	-1,283450
20,358667	0,5	-1,279950
20,367000	0,5	-1,284950
20,375333	0,5	-1,293950
20,383667	0,5	-1,295450
20,392000	0,5	-1,272700
20,400333	0,5	-1,272650
20,408667	0,5	-1,265750
20,417000	0,5	-1,262550
20,425333	0,5	-1,260500
20,433667	0,5	-1,264500
20,442000	0,5	-1,264900
20,450333	0,5	-1,273350
20,458667	0,5	-1,277000
20,467000	0,5	-1,275000
20,475333	0,5	-1,270650
20,483667	0,5	-1,279650
20,492000	0,5	-1,287450
20,500333	0,5	-1,292350
20,508667	0,5	-1,293100
20,517000	0,5	-1,306750
20,525333	0,5	-1,323450
20,533667	0,5	-1,326200
20,542000	0,5	-1,320350
20,550333	0,5	-1,324700
20,558667	0,5	-1,327550
20,567000	0,5	-1,325400
20,575333	0,5	-1,327250
20,583667	0,5	-1,326700
20,592000	0,5	-1,328750
20,600333	0,5	-1,330650
20,608667	0,5	-1,337200
20,617000	0,5	-1,313850
20,625333	0,5	-1,310050
20,633667	0,5	-1,320100
20,642000	0,5	-1,322200
20,650333	0,5	-1,325650
20,658667	0,5	-1,332850
20,667000	0,5	-1,345000
20,675333	0,5	-1,370850
20,683667	0,5	-1,360200
20,692000	0,5	-1,358700
20,700333	0,5	-1,354950
20,708667	0,5	-1,355750
20,717000	0,5	-1,352650
20,725333	0,5	-1,353800
20,733667	0,5	-1,353300
20,742000	0,5	-1,348850
20,750333	0,5	-1,352050
20,758667	0,5	-1,338700
20,767000	0,5	-1,319300
20,775333	0,5	-1,315750
20,783667	0,5	-1,318650
20,792000	0,5	-1,307700
20,800333	0,5	-1,314250
20,808667	0,5	-1,309950
20,817000	0,5	-1,329950
20,825333	0,5	-1,334550
20,833667	0,5	-1,333650
20,842000	0,5	-1,329400
20,850333	0,5	-1,330500
20,858667	0,5	-1,325700
20,867000	0,5	-1,318300
20,875333	0,5	-1,315400
20,883667	0,5	-1,310700
20,892000	0,5	-1,311600
20,900333	0,5	-1,303800
20,908667	0,5	-1,286500
20,917000	0,5	-1,273200
20,925333	0,5	-1,277500
20,933667	0,5	-1,276950
20,942000	0,5	-1,280450
20,950333	0,5	-1,287700
20,958667	0,5	-1,301850
20,967000	0,5	-1,307550
20,975333	0,5	-1,310600
20,983667	0,5	-1,306350
20,992000	0,5	-1,308800
21,000333	0,5	-1,300800
21,008667	0,5	-1,300850
21,017000	0,5	-1,297300
21,025333	0,5	-1,291450
21,033667	0,5	-1,290300
21,042000	0,5	-1,293050
21,050333	0,5	-1,287200
21,058667	0,5	-1,262800
21,067000	0,5	-1,248500
21,075333	0,5	-1,254950
21,083667	0,5	-1,259650
21,092000	0,5	-1,261350
21,100333	0,5	-1,271350
21,108667	0,5	-1,283950
21,117000	0,5	-1,285550
21,125333	0,5	-1,283700
21,133667	0,5	-1,279200
21,142000	0,5	-1,272850
21,150333	0,5	-1,268800
21,158667	0,5	-1,261350
21,167000	0,5	-1,255250
21,175333	0,5	-1,249600
21,183667	0,5	-1,242250
21,192000	0,5	-1,241150
21,200333	0,5	-1,215600
21,208667	0,5	-1,199150
21,217000	0,5	-1,195900
21,225333	0,5	-1,198700
21,233667	0,5	-1,199200
21,242000	0,5	-1,208050
21,250333	0,5	-1,211800
21,258667	0,5	-1,229000
21,267000	0,5	-1,221750
21,275333	0,5	-1,216100
21,283667	0,5	-1,213550
21,292000	0,5	-1,210450
21,300333	0,5	-1,202500
21,308667	0,5	-1,196050
21,317000	0,5	-1,193250
21,325333	0,5	-1,184700
21,333667	0,5	-1,180600
21,342000	0,5	-1,168650
21,350333	0,5	-1,138700
21,358667	0,5	-1,120500
21,367000	0,5	-1,124300
21,375333	0,5	-1,125600
21,383667	0,5	-1,127400
21,392000	0,5	-1,127550
21,400333	0,5	-1,143800
21,408667	0,5	-1,141800
21,417000	0,5	-1,128600
21,425333	0,5	-1,116800
21,433667	0,5	-1,116450
21,442000	0,5	-1,109100
21,450333	0,5	-1,102950
21,458667	0,5	-1,091650
21,467000	0,5	-1,074100
21,475333	0,5	-1,062450
21,483667	0,5	-1,051500
21,492000	0,5	-1,023650
21,500333	0,5	-0,985850
21,508667	0,5	-0,954300
21,517000	0,5	-0,934900
21,525333	0,5	-0,911900
21,533667	0,5	-0,890550
21,542000	0,5	-0,892300
21,550333	0,5	-0,902900
21,558667	0,5	-0,908750
21,567000	0,5	-0,908750
21,575333	0,5	-0,924800
21,583667	0,5	-0,919800
21,592000	0,5	-0,917300
21,600333	0,5	-0,901050
21,608667	0,5	-0,894500
21,617000	0,5	-0,878700
21,625333	0,5	-0,865800
21,633667	0,5	-0,859550
21,642000	0,5	-0,829250
21,650333	0,5	-0,814950
21,658667	0,5	-0,815800
21,667000	0,5	-0,810750
21,675333	0,5	-0,803550
21,683667	0,5	-0,801750
21,692000	0,5	-0,794400
21,700333	0,5	-0,795150
21,708667	0,5	-0,772400
21,717000	0,5	-0,757350
21,725333	0,5	-0,735050
21,733667	0,5	-0,719700
21,742000	0,5	-0,703400
21,750333	0,5	-0,689550
21,758667	0,5	-0,674900
21,767000	0,5	-0,651750
21,775333	0,5	-0,637900
21,783667	0,5	-0,609150
21,792000	0,5	-0,574750
21,800333	0,5	-0,556250
21,808667	0,5	-0,539050
21,817000	0,5	-0,516800
21,825333	0,5	-0,516550
21,833667	0,5	-0,513500
21,842000	0,5	-0,529000
21,850333	0,5	-0,519850
21,858667	0,5	-0,501250
21,867000	0,5	-0,479400
21,875333	0,5	-0,466350
21,883667	0,5	-0,446300
21,892000	0,5	-0,429750
21,900333	0,5	-0,405750
21,908667	0,5	-0,380850
21,917000	0,5	-0,365450
21,925333	0,5	-0,344100
21,933667	0,5	-0,316950
21,942000	0,5	-0,289000
21,950333	0,5	-0,279050
21,958667	0,5	-0,252050
21,967000	0,5	-0,232550
21,975333	0,5	-0,212700
21,983667	0,5	-0,208000
21,992000	0,5	-0,192750
22,000333	0,5	-0,170700
22,008667	0,5	-0,137550
22,017000	0,5	-0,117600
22,025333	0,5	-0,086250
22,033667	0,5	-0,062150
22,042000	0,5	-0,027700
22,050333	0,5	0,002300
22,058667	0,5	0,035000
22,067000	0,5	0,071400
22,075333	0,5	0,108600
22,083667	0,5	0,161200
22,092000	0,5	0,180900
22,100333	0,5	0,218250
22,108667	0,5	0,250350
22,117000	0,5	0,273050
22,125333	0,5	0,292800
22,133667	0,5	0,301850
22,142000	0,5	0,328850
22,150333	0,5	0,361950
22,158667	0,5	0,382900
22,167000	0,5	0,417600
22,175333	0,5	0,444800
22,183667	0,5	0,483250
22,192000	0,5	0,520000
22,200333	0,5	0,562850
22,208667	0,5	0,599100
22,217000	0,5	0,640250
22,225333	0,5	0,677000
22,233667	0,5	0,718750
22,242000	0,5	0,753300
22,250333	0,5	0,811800
22,258667	0,5	0,856650
22,267000	0,5	0,889800
22,275333	0,5	0,922500
22,283667	0,5	0,938750
22,292000	0,5	0,990200
22,300333	0,5	1,027650
22,308667	0,5	1,080350
22,317000	0,5	1,122300
22,325333	0,5	1,173800
22,333667	0,5	1,222650
22,342000	0,5	1,273200
22,350333	0,5	1,327600
22,358667	0,5	1,375150
22,367000	0,5	1,429900
22,375333	0,5	1,448700
22,383667	0,5	1,508150
22,392000	0,5	1,577150
22,400333	0,5	1,640700
22,408667	0,5	1,695600
22,417000	0,5	1,749250
22,425333	0,5	1,794300
22,433667	0,5	1,853400
22,442000	0,5	1,918550
22,450333	0,5	1,984750
22,458667	0,5	2,042800
22,467000	0,5	2,114300
22,475333	0,5	2,178100
22,483667	0,5	2,241150
22,492000	0,5	2,299500
22,500333	0,5	2,357900
22,508667	0,5	2,420050
22,517000	0,5	2,436750
22,525333	0,5	2,505900
22,533667	0,5	2,559700
22,542000	0,5	2,642300
22,550333	0,5	2,688300
22,558667	0,5	2,735400
22,567000	0,5	2,765400
22,575333	0,5	2,796950
22,583667	0,5	2,836750
22,592000	0,5	2,866950
22,600333	0,5	2,893550
22,608667	0,5	2,915450
22,617000	0,5	2,940150
22,625333	0,5	2,960350
22,633667	0,5	2,964550
22,642000	0,5	2,971250
22,650333	0,5	2,968150
22,658667	0,5	2,950400
22,667000	0,5	2,888300
22,675333	0,5	2,883150
22,683667	0,5	2,861200
22,692000	0,5	2,831550
22,700333	0,5	2,777450
22,708667	0,5	2,706450
22,717000	0,5	2,630650
22,725333	0,5	2,536400
22,733667	0,5	2,465300
22,742000	0,5	2,377350
22,750333	0,5	2,291350
22,758667	0,5	2,192250
22,767000	0,5	2,098100
22,775333	0,5	1,996400
22,783667	0,5	1,888350
22,792000	0,5	1,775700
22,800333	0,5	1,658100
22,808667	0,5	1,511050
22,817000	0,5	1,350350
22,825333	0,5	1,242000
22,833667	0,5	1,121850
22,842000	0,5	0,978000
22,850333	0,5	0,831650
22,858667	0,5	0,687900
22,867000	0,5	0,551050
22,875333	0,5	0,410300
22,883667	0,5	0,273650
22,892000	0,5	0,144900
22,900333	0,5	0,021600
22,908667	0,5	-0,104100
22,917000	0,5	-0,216350
22,925333	0,5	-0,340800
22,933667	0,5	-0,455350
22,942000	0,5	-0,574250
22,950333	0,5	-0,687650
22,958667	0,5	-0,784450
22,967000	0,5	-0,896700
22,975333	0,5	-1,001300
22,983667	0,5	-1,136550
22,992000	0,5	-1,235100
23,000333	0,5	-1,329950
23,008667	0,5	-1,398600
23,017000	0,5	-1,482700
23,025333	0,5	-1,552050
23,033667	0,5	-1,627150
23,042000	0,5	-1,677850
23,050333	0,5	-1,735100
23,058667	0,5	-1,781000
23,067000	0,5	-1,826950
23,075333	0,5	-1,872250
23,083667	0,5	-1,915850
23,092000	0,5	-1,959050
23,100333	0,5	-1,977950
23,108667	0,5	-2,018900
23,117000	0,5	-2,051400
23,125333	0,5	-2,103350
23,133667	0,5	-2,156700
23,142000	0,5	-2,185600
23,150333	0,5	-2,203050
23,158667	0,5	-2,209650
23,167000	0,5	-2,226350
23,175333	0,5	-2,237600
23,183667	0,5	-2,232300
23,192000	0,5	-2,234200
23,200333	0,5	-2,218500
23,208667	0,5	-2,213250
23,217000	0,5	-2,199750
23,225333	0,5	-2,197350
23,233667	0,5	-2,184950
23,242000	0,5	-2,174900
23,250333	0,5	-2,166950
23,258667	0,5	-2,166000
23,267000	0,5	-2,140350
23,275333	0,5	-2,142050
23,283667	0,5	-2,160500
23,292000	0,5	-2,158450
23,300333	0,5	-2,145850
23,308667	0,5	-2,121700
23,317000	0,5	-2,113350
23,325333	0,5	-2,089750
23,333667	0,5	-2,067750
23,342000	0,5	-2,038450
23,350333	0,5	-2,017250
23,358667	0,5	-1,983500
23,367000	0,5	-1,958100
23,375333	0,5	-1,924300
23,383667	0,5	-1,901300
23,392000	0,5	-1,868350
23,400333	0,5	-1,910100
23,408667	0,5	-1,847900
23,417000	0,5	-1,798100
23,425333	0,5	-1,774100
23,433667	0,5	-1,773800
23,442000	0,5	-1,758250
23,450333	0,5	-1,742950
23,458667	0,5	-1,720950
23,467000	0,5	-1,708700
23,475333	0,5	-1,692650
23,483667	0,5	-1,667050
23,492000	0,5	-1,647250
23,500333	0,5	-1,620150
23,508667	0,5	-1,598200
23,517000	0,5	-1,571800
23,525333	0,5	-1,550100
23,533667	0,5	-1,524450
23,542000	0,5	-1,530550
23,550333	0,5	-1,571550
23,558667	0,5	-1,502550
23,567000	0,5	-1,452750
23,575333	0,5	-1,418650
23,583667	0,5	-1,403350
23,592000	0,5	-1,391600
23,600333	0,5	-1,373550
23,608667	0,5	-1,355250
23,617000	0,5	-1,336450
23,625333	0,5	-1,319700
23,633667	0,5	-1,301300
23,642000	0,5	-1,283500
23,650333	0,5	-1,265150
23,658667	0,5	-1,246350
23,667000	0,5	-1,231500
23,675333	0,5	-1,219400
23,683667	0,5	-1,204750
23,692000	0,5	-1,321150
23,700333	0,5	-1,280550
23,708667	0,5	-1,244050
23,717000	0,5	-1,177500
23,725333	0,5	-1,151250
23,733667	0,5	-1,136250
23,742000	0,5	-1,126050
23,750333	0,5	-1,114850
23,758667	0,5	-1,102000
23,767000	0,5	-1,083150
23,775333	0,5	-1,061450
23,783667	0,5	-1,038600
23,792000	0,5	-1,020250
23,800333	0,5	-0,997250
23,808667	0,5	-0,980550
23,817000	0,5	-0,960100
23,825333	0,5	-0,944500
23,833667	0,5	-0,941100
23,842000	0,5	-1,054000
23,850333	0,5	-1,032400
23,858667	0,5	-0,970650
23,867000	0,5	-0,915150
23,875333	0,5	-0,885850
23,883667	0,5	-0,875150
23,892000	0,5	-0,867350
23,900333	0,5	-0,864150
23,908667	0,5	-0,850350
23,917000	0,5	-0,839500
23,925333	0,5	-0,820450
23,933667	0,5	-0,806750
23,942000	0,5	-0,786750
23,950333	0,5	-0,768350
23,958667	0,5	-0,746750
23,967000	0,5	-0,727750
23,975333	0,5	-0,710750
23,983667	0,5	-0,750000
23,992000	0,5	-0,809250
24,000333	0,5	-0,773100
24,008667	0,5	-0,714450
24,017000	0,5	-0,658900
24,025333	0,5	-0,634400
24,033667	0,5	-0,617900
24,042000	0,5	-0,617250
24,050333	0,5	-0,605100
24,058667	0,5	-0,588600
24,067000	0,5	-0,565400
24,075333	0,5	-0,549250
24,083667	0,5	-0,530950
24,092000	0,5	-0,518850
24,100333	0,5	-0,498300
24,108667	0,5	-0,483050
24,117000	0,5	-0,473850
24,125333	0,5	-0,460800
24,133667	0,5	-0,565750
24,142000	0,5	-0,540850
24,150333	0,5	-0,510600
24,158667	0,5	-0,457150
24,167000	0,5	-0,425550
24,175333	0,5	-0,406300
24,183667	0,5	-0,393850
24,192000	0,5	-0,389250
24,200333	0,5	-0,374000
24,208667	0,5	-0,347650
24,217000	0,5	-0,335900
24,225333	0,5	-0,317250
24,233667	0,5	-0,300000
24,242000	0,5	-0,278950
24,250333	0,5	-0,266550
24,258667	0,5	-0,243650
24,267000	0,5	-0,229300
24,275333	0,5	-0,226400
24,283667	0,5	-0,304500
24,292000	0,5	-0,273850
24,300333	0,5	-0,254150
24,308667	0,5	-0,205650
24,317000	0,5	-0,183450
24,325333	0,5	-0,169950
24,333667	0,5	-0,163950
24,342000	0,5	-0,170100
24,350333	0,5	-0,150700
24,358667	0,5	-0,140850
24,367000	0,5	-0,127350
24,375333	0,5	-0,121550
24,383667	0,5	-0,102400
24,392000	0,5	-0,091500
24,400333	0,5	-0,073700
24,408667	0,5	-0,061050
24,417000	0,5	-0,046050
24,425333	0,5	-0,085600
24,433667	0,5	-0,094550
24,442000	0,5	-0,074900
24,450333	0,5	-0,043200
24,458667	0,5	-0,010500
24,467000	0,5	0,005000
24,475333	0,5	0,014300
24,483667	0,5	0,020150
24,492000	0,5	0,019950
24,500333	0,5	0,034350
24,508667	0,5	0,047900
24,517000	0,5	0,057500
24,525333	0,5	0,066800
24,533667	0,5	0,078750
24,542000	0,5	0,083650
24,550333	0,5	0,090200
24,558667	0,5	0,101900
24,567000	0,5	0,108750
24,575333	0,5	0,058350
24,583667	0,5	0,070150
24,592000	0,5	0,086850
24,600333	0,5	0,112900
24,608667	0,5	0,133350
24,617000	0,5	0,144200
24,625333	0,5	0,148700
24,633667	0,5	0,147450
24,642000	0,5	0,151600
24,650333	0,5	0,163450
24,658667	0,5	0,173550
24,667000	0,5	0,183450
24,675333	0,5	0,192350
24,683667	0,5	0,201450
24,692000	0,5	0,210400
24,700333	0,5	0,222850
24,708667	0,5	0,227050
24,717000	0,5	0,232300
24,725333	0,5	0,188100
24,733667	0,5	0,210550
24,742000	0,5	0,219150
24,750333	0,5	0,241450
24,758667	0,5	0,251400
24,767000	0,5	0,256300
24,775333	0,5	0,253250
24,783667	0,5	0,253200
24,792000	0,5	0,253100
24,800333	0,5	0,264500
24,808667	0,5	0,267150
24,817000	0,5	0,274150
24,825333	0,5	0,281850
24,833667	0,5	0,290000
24,842000	0,5	0,299600
24,850333	0,5	0,304700
24,858667	0,5	0,309300
24,867000	0,5	0,302250
24,875333	0,5	0,299300
24,883667	0,5	0,310100
24,892000	0,5	0,325150
24,900333	0,5	0,329550
24,908667	0,5	0,338450
24,917000	0,5	0,341000
24,925333	0,5	0,342150
24,933667	0,5	0,338450
24,942000	0,5	0,345800
24,950333	0,5	0,348750
24,958667	0,5	0,350750
24,967000	0,5	0,351150
24,975333	0,5	0,357350
24,983667	0,5	0,356550
24,992000	0,5	0,362200
25,000333	0,5	0,367850
25,008667	0,5	0,371950
25,017000	0,5	0,360650
25,025333	0,5	0,364900
25,033667	0,5	0,372100
25,042000	0,5	0,379200
25,050333	0,5	0,388550
25,058667	0,5	0,394250
25,067000	0,5	0,396850
25,075333	0,5	0,393000
25,083667	0,5	0,396750
25,092000	0,5	0,400150
25,100333	0,5	0,404300
25,108667	0,5	0,407100
25,117000	0,5	0,408350
25,125333	0,5	0,409400
25,133667	0,5	0,412700
25,142000	0,5	0,415000
25,150333	0,5	0,414550
25,158667	0,5	0,415050
25,167000	0,5	0,409500
25,175333	0,5	0,414800
25,183667	0,5	0,416250
25,192000	0,5	0,417150
25,200333	0,5	0,423450
25,208667	0,5	0,421350
25,217000	0,5	0,425850
25,225333	0,5	0,424000
25,233667	0,5	0,426850
25,242000	0,5	0,429200
25,250333	0,5	0,430200
25,258667	0,5	0,430500
25,267000	0,5	0,438050
25,275333	0,5	0,436750
25,283667	0,5	0,437250
25,292000	0,5	0,441700
25,300333	0,5	0,442750
25,308667	0,5	0,441700
25,317000	0,5	0,444500
25,325333	0,5	0,443150
25,333667	0,5	0,444800
25,342000	0,5	0,439700
25,350333	0,5	0,443350
25,358667	0,5	0,443550
25,367000	0,5	0,440650
25,375333	0,5	0,439150
25,383667	0,5	0,440100
25,392000	0,5	0,441100
25,400333	0,5	0,442650
25,408667	0,5	0,442350
25,417000	0,5	0,441400
25,425333	0,5	0,442500
25,433667	0,5	0,443650
25,442000	0,5	0,445850
25,450333	0,5	0,448400
25,458667	0,5	0,451750
25,467000	0,5	0,455300
25,475333	0,5	0,458250
25,483667	0,5	0,452750
25,492000	0,5	0,452550
25,500333	0,5	0,451450
25,508667	0,5	0,450600
25,517000	0,5	0,454600
25,525333	0,5	0,451350
25,533667	0,5	0,447400
25,542000	0,5	0,450400
25,550333	0,5	0,447450
25,558667	0,5	0,446750
25,567000	0,5	0,445950
25,575333	0,5	0,445500
25,583667	0,5	0,447750
25,592000	0,5	0,445500
25,600333	0,5	0,446200
25,608667	0,5	0,455000
25,617000	0,5	0,456500
25,625333	0,5	0,455850
25,633667	0,5	0,447800
25,642000	0,5	0,449950
25,650333	0,5	0,450000
25,658667	0,5	0,449450
25,667000	0,5	0,453900
25,675333	0,5	0,453550
25,683667	0,5	0,452450
25,692000	0,5	0,451300
25,700333	0,5	0,451500
25,708667	0,5	0,450100
25,717000	0,5	0,447200
25,725333	0,5	0,445400
25,733667	0,5	0,444300
25,742000	0,5	0,446800
25,750333	0,5	0,445100
25,758667	0,5	0,449700
25,767000	0,5	0,446250
25,775333	0,5	0,451400
25,783667	0,5	0,439300
25,792000	0,5	0,445000
25,800333	0,5	0,445750
25,808667	0,5	0,445050
25,817000	0,5	0,451150
25,825333	0,5	0,456600
25,833667	0,5	0,449550
25,842000	0,5	0,453350
25,850333	0,5	0,453450
25,858667	0,5	0,457150
25,867000	0,5	0,454050
25,875333	0,5	0,452450
25,883667	0,5	0,454050
25,892000	0,5	0,457950
25,900333	0,5	0,462150
25,908667	0,5	0,457400
25,917000	0,5	0,462150
25,925333	0,5	0,456400
25,933667	0,5	0,453050
25,942000	0,5	0,451850
25,950333	0,5	0,453450
25,958667	0,5	0,461450
25,967000	0,5	0,463250
25,975333	0,5	0,457800
25,983667	0,5	0,465050
25,992000	0,5	0,462700
26,000333	0,5	0,462350
