File Path	chrom://chromeleon01/ikbm_chromeleon/2022/ICS-5000/ED1/Esteban/20220612_Cell_7_4_eg.seq/509.smp/ED_1.channel/ED_1.chm
Channel	ED_1

Injection Information:
Data Vault	ikbm_chromeleon
Injection	7_06h-EGS_2
Injection Number	76
Position	GC2
Comment	
Processing Method	Stop sequence after Cell Death
Instrument Method	ICS5000_PA200_FullNative_Ox_26min_ED1
Type	Unknown
Status	Finished
Injection Date	14.06.2022
Injection Time	03:48:25
Injection Volume (µl)	5,0
Dilution Factor	1,0000
Weight	1,0000

Chromatogram Data Information:
Time Min. (min)	0,000333
Time Max. (min)	26,000333
Data Points	3121
Detector	EDet1
Generating Data System	Chromeleon 7.2.9.11323
Exporting Data System	Chromeleon 7.2.9.0
Operator	Instrument Controller
Signal Quantity	
Signal Unit	nC
Signal Min.	-2,423100
Signal Max.	931,209164
Channel	ED_1
Driver Name	DC-5000
Channel Type	Evaluation
Min. Step (s)	0,5
Max. Step (s)	0,5
Average Step (s)	0,5

Signal Parameter Information:
Signal Info	

Chromatogram Data:
Time (min)	Step (s)	Value (nC)
0,000333	n.a.	-0,022400
0,008667	0,5	-0,038150
0,017000	0,5	-0,035200
0,025333	0,5	-0,018700
0,033667	0,5	-0,011650
0,042000	0,5	0,000250
0,050333	0,5	-0,004500
0,058667	0,5	0,002500
0,067000	0,5	-0,006850
0,075333	0,5	-0,005000
0,083667	0,5	-0,011550
0,092000	0,5	-0,012100
0,100333	0,5	-0,031050
0,108667	0,5	-0,013200
0,117000	0,5	-0,011100
0,125333	0,5	-0,026950
0,133667	0,5	-0,035100
0,142000	0,5	-0,034650
0,150333	0,5	-0,007000
0,158667	0,5	0,006650
0,167000	0,5	0,010300
0,175333	0,5	0,005450
0,183667	0,5	-0,004800
0,192000	0,5	-0,007150
0,200333	0,5	-0,013000
0,208667	0,5	-0,018600
0,217000	0,5	-0,021550
0,225333	0,5	-0,028950
0,233667	0,5	-0,021900
0,242000	0,5	-0,032750
0,250333	0,5	-0,038950
0,258667	0,5	-0,026550
0,267000	0,5	-0,034300
0,275333	0,5	-0,054800
0,283667	0,5	-0,049600
0,292000	0,5	-0,036100
0,300333	0,5	0,033700
0,308667	0,5	0,026400
0,317000	0,5	-0,007450
0,325333	0,5	-0,042800
0,333667	0,5	-0,055100
0,342000	0,5	-0,059350
0,350333	0,5	-0,057600
0,358667	0,5	-0,057800
0,367000	0,5	-0,060500
0,375333	0,5	-0,054850
0,383667	0,5	-0,063450
0,392000	0,5	-0,060350
0,400333	0,5	-0,076950
0,408667	0,5	-0,032350
0,417000	0,5	-0,062850
0,425333	0,5	-0,076000
0,433667	0,5	-0,077300
0,442000	0,5	-0,071700
0,450333	0,5	-0,048950
0,458667	0,5	-0,052000
0,467000	0,5	-0,063600
0,475333	0,5	-0,056600
0,483667	0,5	-0,063300
0,492000	0,5	-0,055400
0,500333	0,5	-0,066250
0,508667	0,5	-0,068200
0,517000	0,5	-0,076950
0,525333	0,5	-0,073350
0,533667	0,5	-0,070050
0,542000	0,5	-0,081300
0,550333	0,5	-0,085200
0,558667	0,5	-0,060850
0,567000	0,5	-0,088900
0,575333	0,5	-0,090500
0,583667	0,5	-0,080850
0,592000	0,5	-0,075600
0,600333	0,5	-0,048650
0,608667	0,5	-0,067950
0,617000	0,5	-0,064700
0,625333	0,5	-0,069700
0,633667	0,5	-0,061400
0,642000	0,5	-0,070450
0,650333	0,5	-0,061950
0,658667	0,5	-0,073100
0,667000	0,5	-0,066500
0,675333	0,5	-0,070950
0,683667	0,5	-0,073650
0,692000	0,5	-0,085700
0,700333	0,5	-0,077650
0,708667	0,5	-0,064400
0,717000	0,5	-0,084300
0,725333	0,5	-0,087100
0,733667	0,5	-0,078050
0,742000	0,5	-0,064450
0,750333	0,5	-0,043350
0,758667	0,5	-0,051850
0,767000	0,5	-0,057450
0,775333	0,5	-0,050200
0,783667	0,5	-0,055100
0,792000	0,5	-0,051650
0,800333	0,5	-0,062850
0,808667	0,5	-0,060450
0,817000	0,5	-0,067950
0,825333	0,5	-0,063550
0,833667	0,5	-0,067200
0,842000	0,5	-0,063900
0,850333	0,5	-0,056150
0,858667	0,5	-0,049100
0,867000	0,5	-0,071150
0,875333	0,5	-0,071550
0,883667	0,5	-0,067100
0,892000	0,5	-0,041350
0,900333	0,5	-0,027350
0,908667	0,5	-0,038250
0,917000	0,5	-0,040650
0,925333	0,5	-0,041850
0,933667	0,5	-0,039900
0,942000	0,5	-0,043300
0,950333	0,5	-0,042500
0,958667	0,5	-0,050200
0,967000	0,5	-0,046750
0,975333	0,5	-0,046300
0,983667	0,5	-0,041450
0,992000	0,5	-0,050300
1,000333	0,5	-0,034300
1,008667	0,5	-0,057150
1,017000	0,5	-0,059000
1,025333	0,5	-0,057250
1,033667	0,5	-0,041600
1,042000	0,5	-0,030800
1,050333	0,5	-0,023900
1,058667	0,5	-0,031300
1,067000	0,5	-0,031050
1,075333	0,5	-0,032400
1,083667	0,5	-0,032250
1,092000	0,5	-0,034850
1,100333	0,5	-0,036700
1,108667	0,5	-0,036750
1,117000	0,5	-0,039750
1,125333	0,5	-0,042750
1,133667	0,5	-0,053650
1,142000	0,5	-0,037600
1,150333	0,5	-0,034050
1,158667	0,5	-0,045500
1,167000	0,5	-0,054300
1,175333	0,5	-0,049450
1,183667	0,5	-0,028400
1,192000	0,5	-0,012750
1,200333	0,5	-0,013450
1,208667	0,5	-0,010450
1,217000	0,5	-0,019600
1,225333	0,5	-0,016200
1,233667	0,5	-0,027500
1,242000	0,5	-0,025400
1,250333	0,5	-0,028100
1,258667	0,5	-0,028800
1,267000	0,5	-0,023400
1,275333	0,5	-0,024200
1,283667	0,5	-0,030800
1,292000	0,5	-0,012850
1,300333	0,5	-0,024150
1,308667	0,5	-0,039300
1,317000	0,5	-0,037800
1,325333	0,5	-0,039050
1,333667	0,5	-0,014050
1,342000	0,5	-0,013550
1,350333	0,5	-0,008950
1,358667	0,5	-0,017250
1,367000	0,5	-0,015400
1,375333	0,5	-0,020850
1,383667	0,5	-0,016700
1,392000	0,5	-0,027700
1,400333	0,5	-0,027550
1,408667	0,5	-0,034850
1,417000	0,5	-0,033400
1,425333	0,5	-0,029750
1,433667	0,5	-0,038200
1,442000	0,5	-0,010800
1,450333	0,5	-0,035500
1,458667	0,5	-0,047850
1,467000	0,5	-0,050700
1,475333	0,5	-0,045800
1,483667	0,5	-0,025500
1,492000	0,5	-0,033000
1,500333	0,5	-0,046850
1,508667	0,5	-0,040600
1,517000	0,5	-0,048050
1,525333	0,5	-0,048000
1,533667	0,5	-0,059950
1,542000	0,5	-0,058650
1,550333	0,5	-0,057650
1,558667	0,5	-0,010550
1,567000	0,5	0,122100
1,575333	0,5	0,369100
1,583667	0,5	1,027650
1,592000	0,5	4,677750
1,600333	0,5	19,922500
1,608667	0,5	71,355401
1,617000	0,5	212,426003
1,625333	0,5	477,893757
1,633667	0,5	774,441712
1,642000	0,5	931,209164
1,650333	0,5	875,211863
1,658667	0,5	682,350910
1,667000	0,5	479,874707
1,675333	0,5	330,449655
1,683667	0,5	232,886103
1,692000	0,5	170,765553
1,700333	0,5	130,906952
1,708667	0,5	104,851702
1,717000	0,5	87,270551
1,725333	0,5	74,848701
1,733667	0,5	66,164501
1,742000	0,5	60,150351
1,750333	0,5	55,197601
1,758667	0,5	50,244251
1,767000	0,5	45,286251
1,775333	0,5	40,924051
1,783667	0,5	37,690101
1,792000	0,5	35,637051
1,800333	0,5	34,512451
1,808667	0,5	33,655451
1,817000	0,5	32,458850
1,825333	0,5	30,787550
1,833667	0,5	28,910950
1,842000	0,5	27,180000
1,850333	0,5	25,752950
1,858667	0,5	24,645650
1,867000	0,5	23,766400
1,875333	0,5	23,117350
1,883667	0,5	22,713150
1,892000	0,5	22,469150
1,900333	0,5	22,216500
1,908667	0,5	22,027150
1,917000	0,5	22,066650
1,925333	0,5	22,238150
1,933667	0,5	22,032050
1,942000	0,5	21,263550
1,950333	0,5	20,289400
1,958667	0,5	19,526250
1,967000	0,5	19,123300
1,975333	0,5	19,224400
1,983667	0,5	19,938500
1,992000	0,5	21,249650
2,000333	0,5	23,098250
2,008667	0,5	25,488650
2,017000	0,5	28,671650
2,025333	0,5	32,780400
2,033667	0,5	36,952051
2,042000	0,5	39,146051
2,050333	0,5	38,323601
2,058667	0,5	35,569901
2,067000	0,5	32,678900
2,075333	0,5	30,511450
2,083667	0,5	29,168650
2,092000	0,5	28,484150
2,100333	0,5	28,213200
2,108667	0,5	28,180150
2,117000	0,5	28,346200
2,125333	0,5	28,322050
2,133667	0,5	27,797550
2,142000	0,5	26,996950
2,150333	0,5	26,251250
2,158667	0,5	25,605450
2,167000	0,5	24,997750
2,175333	0,5	24,484500
2,183667	0,5	24,109800
2,192000	0,5	23,873750
2,200333	0,5	23,839450
2,208667	0,5	24,084600
2,217000	0,5	24,689350
2,225333	0,5	25,491900
2,233667	0,5	25,938450
2,242000	0,5	25,713100
2,250333	0,5	25,042750
2,258667	0,5	24,417350
2,267000	0,5	23,998000
2,275333	0,5	23,766500
2,283667	0,5	23,626900
2,292000	0,5	23,586100
2,300333	0,5	23,619300
2,308667	0,5	23,664000
2,317000	0,5	23,659100
2,325333	0,5	23,651900
2,333667	0,5	23,638000
2,342000	0,5	23,695800
2,350333	0,5	23,849150
2,358667	0,5	24,181950
2,367000	0,5	25,117000
2,375333	0,5	26,911100
2,383667	0,5	27,728000
2,392000	0,5	26,747050
2,400333	0,5	25,568950
2,408667	0,5	24,917300
2,417000	0,5	24,611700
2,425333	0,5	24,418100
2,433667	0,5	24,262900
2,442000	0,5	24,116750
2,450333	0,5	23,982750
2,458667	0,5	23,846950
2,467000	0,5	23,715100
2,475333	0,5	23,613200
2,483667	0,5	23,470050
2,492000	0,5	23,348550
2,500333	0,5	23,281800
2,508667	0,5	23,306550
2,517000	0,5	23,506850
2,525333	0,5	23,935350
2,533667	0,5	24,702250
2,542000	0,5	25,767750
2,550333	0,5	26,922500
2,558667	0,5	27,915300
2,567000	0,5	28,502100
2,575333	0,5	28,594750
2,583667	0,5	28,210750
2,592000	0,5	27,551900
2,600333	0,5	26,863050
2,608667	0,5	26,413250
2,617000	0,5	26,377600
2,625333	0,5	26,903150
2,633667	0,5	27,985350
2,642000	0,5	29,977300
2,650333	0,5	33,315100
2,658667	0,5	38,269851
2,667000	0,5	44,122101
2,675333	0,5	49,026551
2,683667	0,5	51,164251
2,692000	0,5	49,950701
2,700333	0,5	46,236601
2,708667	0,5	41,509951
2,717000	0,5	36,956501
2,725333	0,5	33,208250
2,733667	0,5	30,507250
2,742000	0,5	28,934250
2,750333	0,5	28,644750
2,758667	0,5	29,826100
2,767000	0,5	32,568100
2,775333	0,5	36,391251
2,783667	0,5	40,212051
2,792000	0,5	42,784601
2,800333	0,5	43,161251
2,808667	0,5	41,199051
2,817000	0,5	37,594651
2,825333	0,5	33,323200
2,833667	0,5	29,346150
2,842000	0,5	26,121000
2,850333	0,5	23,748500
2,858667	0,5	22,077350
2,867000	0,5	20,924550
2,875333	0,5	20,096200
2,883667	0,5	19,480450
2,892000	0,5	18,998300
2,900333	0,5	18,605500
2,908667	0,5	18,285650
2,917000	0,5	18,034100
2,925333	0,5	17,849250
2,933667	0,5	17,767800
2,942000	0,5	17,854350
2,950333	0,5	18,105950
2,958667	0,5	18,468000
2,967000	0,5	18,765850
2,975333	0,5	18,838050
2,983667	0,5	18,597150
2,992000	0,5	18,119000
3,000333	0,5	17,498150
3,008667	0,5	16,902500
3,017000	0,5	16,392900
3,025333	0,5	16,011850
3,033667	0,5	15,732650
3,042000	0,5	15,542100
3,050333	0,5	15,426850
3,058667	0,5	15,393350
3,067000	0,5	15,456750
3,075333	0,5	15,649100
3,083667	0,5	16,079650
3,092000	0,5	16,842900
3,100333	0,5	17,910650
3,108667	0,5	19,038050
3,117000	0,5	19,834100
3,125333	0,5	19,981650
3,133667	0,5	19,451350
3,142000	0,5	18,414400
3,150333	0,5	17,181350
3,158667	0,5	16,012300
3,167000	0,5	15,070450
3,175333	0,5	14,371550
3,183667	0,5	13,892300
3,192000	0,5	13,558200
3,200333	0,5	13,313750
3,208667	0,5	13,143050
3,217000	0,5	13,011450
3,225333	0,5	12,872900
3,233667	0,5	12,752350
3,242000	0,5	12,628750
3,250333	0,5	12,522950
3,258667	0,5	12,419700
3,267000	0,5	12,307450
3,275333	0,5	12,220100
3,283667	0,5	12,142450
3,292000	0,5	12,063400
3,300333	0,5	11,970650
3,308667	0,5	11,876900
3,317000	0,5	11,769150
3,325333	0,5	11,669600
3,333667	0,5	11,577050
3,342000	0,5	11,487750
3,350333	0,5	11,396000
3,358667	0,5	11,350650
3,367000	0,5	11,268300
3,375333	0,5	11,191750
3,383667	0,5	11,119050
3,392000	0,5	11,059500
3,400333	0,5	11,011150
3,408667	0,5	10,946250
3,417000	0,5	10,880400
3,425333	0,5	10,823000
3,433667	0,5	10,767950
3,442000	0,5	10,709000
3,450333	0,5	10,656950
3,458667	0,5	10,592650
3,467000	0,5	10,528550
3,475333	0,5	10,457950
3,483667	0,5	10,397850
3,492000	0,5	10,327350
3,500333	0,5	10,266050
3,508667	0,5	10,230850
3,517000	0,5	10,165150
3,525333	0,5	10,093750
3,533667	0,5	10,031450
3,542000	0,5	9,972200
3,550333	0,5	9,934450
3,558667	0,5	9,866900
3,567000	0,5	9,810150
3,575333	0,5	9,766650
3,583667	0,5	9,729700
3,592000	0,5	9,696500
3,600333	0,5	9,669050
3,608667	0,5	9,642400
3,617000	0,5	9,609100
3,625333	0,5	9,583600
3,633667	0,5	9,557150
3,642000	0,5	9,526750
3,650333	0,5	9,469850
3,658667	0,5	9,437550
3,667000	0,5	9,357400
3,675333	0,5	9,299500
3,683667	0,5	9,246650
3,692000	0,5	9,203350
3,700333	0,5	9,172400
3,708667	0,5	9,123600
3,717000	0,5	9,071900
3,725333	0,5	9,036550
3,733667	0,5	8,988050
3,742000	0,5	8,950950
3,750333	0,5	8,906300
3,758667	0,5	8,869250
3,767000	0,5	8,830950
3,775333	0,5	8,794400
3,783667	0,5	8,757900
3,792000	0,5	8,714000
3,800333	0,5	8,679100
3,808667	0,5	8,652900
3,817000	0,5	8,604350
3,825333	0,5	8,573100
3,833667	0,5	8,548750
3,842000	0,5	8,531400
3,850333	0,5	8,524450
3,858667	0,5	8,485900
3,867000	0,5	8,464950
3,875333	0,5	8,437100
3,883667	0,5	8,419150
3,892000	0,5	8,389400
3,900333	0,5	8,364400
3,908667	0,5	8,336550
3,917000	0,5	8,316150
3,925333	0,5	8,295400
3,933667	0,5	8,270550
3,942000	0,5	8,246850
3,950333	0,5	8,243600
3,958667	0,5	8,225150
3,967000	0,5	8,196750
3,975333	0,5	8,185350
3,983667	0,5	8,172950
3,992000	0,5	8,181600
4,000333	0,5	8,189100
4,008667	0,5	8,195600
4,017000	0,5	8,204550
4,025333	0,5	8,239850
4,033667	0,5	8,287700
4,042000	0,5	8,374700
4,050333	0,5	8,482600
4,058667	0,5	8,632200
4,067000	0,5	8,789600
4,075333	0,5	8,965200
4,083667	0,5	9,111550
4,092000	0,5	9,233350
4,100333	0,5	9,306550
4,108667	0,5	9,299450
4,117000	0,5	9,225100
4,125333	0,5	9,119150
4,133667	0,5	8,974250
4,142000	0,5	8,824100
4,150333	0,5	8,674750
4,158667	0,5	8,528150
4,167000	0,5	8,409250
4,175333	0,5	8,306150
4,183667	0,5	8,217950
4,192000	0,5	8,137600
4,200333	0,5	8,063800
4,208667	0,5	7,990500
4,217000	0,5	7,923500
4,225333	0,5	7,850700
4,233667	0,5	7,785750
4,242000	0,5	7,735050
4,250333	0,5	7,697700
4,258667	0,5	7,638100
4,267000	0,5	7,602950
4,275333	0,5	7,572650
4,283667	0,5	7,570150
4,292000	0,5	7,560450
4,300333	0,5	7,546600
4,308667	0,5	7,532450
4,317000	0,5	7,520800
4,325333	0,5	7,511450
4,333667	0,5	7,496950
4,342000	0,5	7,480100
4,350333	0,5	7,457550
4,358667	0,5	7,438200
4,367000	0,5	7,419050
4,375333	0,5	7,402450
4,383667	0,5	7,373500
4,392000	0,5	7,369550
4,400333	0,5	7,343450
4,408667	0,5	7,321500
4,417000	0,5	7,306350
4,425333	0,5	7,304100
4,433667	0,5	7,314800
4,442000	0,5	7,321400
4,450333	0,5	7,321100
4,458667	0,5	7,334100
4,467000	0,5	7,340050
4,475333	0,5	7,349550
4,483667	0,5	7,349200
4,492000	0,5	7,345350
4,500333	0,5	7,324650
4,508667	0,5	7,302950
4,517000	0,5	7,276100
4,525333	0,5	7,237500
4,533667	0,5	7,194000
4,542000	0,5	7,184250
4,550333	0,5	7,148200
4,558667	0,5	7,118800
4,567000	0,5	7,106300
4,575333	0,5	7,096200
4,583667	0,5	7,112500
4,592000	0,5	7,097450
4,600333	0,5	7,092250
4,608667	0,5	7,093500
4,617000	0,5	7,100450
4,625333	0,5	7,097450
4,633667	0,5	7,106650
4,642000	0,5	7,107650
4,650333	0,5	7,111750
4,658667	0,5	7,114500
4,667000	0,5	7,116950
4,675333	0,5	7,115300
4,683667	0,5	7,103850
4,692000	0,5	7,113200
4,700333	0,5	7,084900
4,708667	0,5	7,066650
4,717000	0,5	7,048400
4,725333	0,5	7,035800
4,733667	0,5	7,033650
4,742000	0,5	7,006600
4,750333	0,5	6,976600
4,758667	0,5	6,956700
4,767000	0,5	6,930900
4,775333	0,5	6,906500
4,783667	0,5	6,871200
4,792000	0,5	6,843000
4,800333	0,5	6,798250
4,808667	0,5	6,746950
4,817000	0,5	6,682150
4,825333	0,5	6,602600
4,833667	0,5	6,524400
4,842000	0,5	6,463500
4,850333	0,5	6,389400
4,858667	0,5	6,342650
4,867000	0,5	6,305800
4,875333	0,5	6,281950
4,883667	0,5	6,273800
4,892000	0,5	6,238600
4,900333	0,5	6,213350
4,908667	0,5	6,188700
4,917000	0,5	6,165250
4,925333	0,5	6,134150
4,933667	0,5	6,105900
4,942000	0,5	6,072450
4,950333	0,5	6,051850
4,958667	0,5	6,021600
4,967000	0,5	5,992950
4,975333	0,5	5,958650
4,983667	0,5	5,949000
4,992000	0,5	5,926450
5,000333	0,5	5,896300
5,008667	0,5	5,877350
5,017000	0,5	5,865700
5,025333	0,5	5,862100
5,033667	0,5	5,852650
5,042000	0,5	5,837700
5,050333	0,5	5,822750
5,058667	0,5	5,802900
5,067000	0,5	5,789650
5,075333	0,5	5,774550
5,083667	0,5	5,758750
5,092000	0,5	5,748850
5,100333	0,5	5,736150
5,108667	0,5	5,728600
5,117000	0,5	5,707550
5,125333	0,5	5,705350
5,133667	0,5	5,711850
5,142000	0,5	5,703100
5,150333	0,5	5,694050
5,158667	0,5	5,703050
5,167000	0,5	5,711150
5,175333	0,5	5,729650
5,183667	0,5	5,730700
5,192000	0,5	5,724350
5,200333	0,5	5,701600
5,208667	0,5	5,683800
5,217000	0,5	5,656900
5,225333	0,5	5,629150
5,233667	0,5	5,598000
5,242000	0,5	5,564700
5,250333	0,5	5,539850
5,258667	0,5	5,519600
5,267000	0,5	5,497850
5,275333	0,5	5,479800
5,283667	0,5	5,475650
5,292000	0,5	5,447000
5,300333	0,5	5,432600
5,308667	0,5	5,418850
5,317000	0,5	5,419600
5,325333	0,5	5,409750
5,333667	0,5	5,396150
5,342000	0,5	5,381850
5,350333	0,5	5,369000
5,358667	0,5	5,349500
5,367000	0,5	5,331000
5,375333	0,5	5,303750
5,383667	0,5	5,283400
5,392000	0,5	5,261600
5,400333	0,5	5,243950
5,408667	0,5	5,217200
5,417000	0,5	5,192150
5,425333	0,5	5,181200
5,433667	0,5	5,164050
5,442000	0,5	5,135800
5,450333	0,5	5,116300
5,458667	0,5	5,105500
5,467000	0,5	5,098650
5,475333	0,5	5,089600
5,483667	0,5	5,065900
5,492000	0,5	5,058750
5,500333	0,5	5,040000
5,508667	0,5	5,032100
5,517000	0,5	5,010950
5,525333	0,5	5,000950
5,533667	0,5	4,988950
5,542000	0,5	4,982550
5,550333	0,5	4,971400
5,558667	0,5	4,957800
5,567000	0,5	4,949450
5,575333	0,5	4,971250
5,583667	0,5	4,981200
5,592000	0,5	5,004650
5,600333	0,5	5,044700
5,608667	0,5	5,110100
5,617000	0,5	5,199800
5,625333	0,5	5,286950
5,633667	0,5	5,379200
5,642000	0,5	5,471500
5,650333	0,5	5,563050
5,658667	0,5	5,635850
5,667000	0,5	5,700100
5,675333	0,5	5,766000
5,683667	0,5	5,858550
5,692000	0,5	6,004450
5,700333	0,5	6,238150
5,708667	0,5	6,564900
5,717000	0,5	6,996350
5,725333	0,5	7,526650
5,733667	0,5	8,084700
5,742000	0,5	8,626950
5,750333	0,5	9,083100
5,758667	0,5	9,399050
5,767000	0,5	9,533000
5,775333	0,5	9,450900
5,783667	0,5	9,178550
5,792000	0,5	8,762550
5,800333	0,5	8,248500
5,808667	0,5	7,697600
5,817000	0,5	7,150800
5,825333	0,5	6,646150
5,833667	0,5	6,201150
5,842000	0,5	5,830200
5,850333	0,5	5,521000
5,858667	0,5	5,275650
5,867000	0,5	5,081150
5,875333	0,5	4,937250
5,883667	0,5	4,808000
5,892000	0,5	4,714000
5,900333	0,5	4,641450
5,908667	0,5	4,591200
5,917000	0,5	4,550000
5,925333	0,5	4,505850
5,933667	0,5	4,467750
5,942000	0,5	4,439250
5,950333	0,5	4,407950
5,958667	0,5	4,378550
5,967000	0,5	4,356350
5,975333	0,5	4,329950
5,983667	0,5	4,309800
5,992000	0,5	4,284500
6,000333	0,5	4,261450
6,008667	0,5	4,234400
6,017000	0,5	4,224550
6,025333	0,5	4,204600
6,033667	0,5	4,182950
6,042000	0,5	4,166850
6,050333	0,5	4,153250
6,058667	0,5	4,148950
6,067000	0,5	4,141600
6,075333	0,5	4,125550
6,083667	0,5	4,115700
6,092000	0,5	4,096100
6,100333	0,5	4,086300
6,108667	0,5	4,070600
6,117000	0,5	4,051350
6,125333	0,5	4,033300
6,133667	0,5	4,017950
6,142000	0,5	4,006850
6,150333	0,5	3,985400
6,158667	0,5	3,972250
6,167000	0,5	3,972000
6,175333	0,5	3,956650
6,183667	0,5	3,940500
6,192000	0,5	3,938150
6,200333	0,5	3,930150
6,208667	0,5	3,936300
6,217000	0,5	3,927150
6,225333	0,5	3,920350
6,233667	0,5	3,905100
6,242000	0,5	3,890300
6,250333	0,5	3,870600
6,258667	0,5	3,857650
6,267000	0,5	3,836700
6,275333	0,5	3,823100
6,283667	0,5	3,806400
6,292000	0,5	3,795100
6,300333	0,5	3,781400
6,308667	0,5	3,776000
6,317000	0,5	3,769350
6,325333	0,5	3,751250
6,333667	0,5	3,737000
6,342000	0,5	3,726950
6,350333	0,5	3,720400
6,358667	0,5	3,718000
6,367000	0,5	3,709400
6,375333	0,5	3,691750
6,383667	0,5	3,691150
6,392000	0,5	3,675100
6,400333	0,5	3,668450
6,408667	0,5	3,652850
6,417000	0,5	3,638950
6,425333	0,5	3,625200
6,433667	0,5	3,616500
6,442000	0,5	3,607300
6,450333	0,5	3,593350
6,458667	0,5	3,593050
6,467000	0,5	3,591200
6,475333	0,5	3,583150
6,483667	0,5	3,577250
6,492000	0,5	3,579450
6,500333	0,5	3,589000
6,508667	0,5	3,595600
6,517000	0,5	3,591950
6,525333	0,5	3,597650
6,533667	0,5	3,596050
6,542000	0,5	3,598700
6,550333	0,5	3,593450
6,558667	0,5	3,594200
6,567000	0,5	3,582650
6,575333	0,5	3,578600
6,583667	0,5	3,576250
6,592000	0,5	3,569450
6,600333	0,5	3,556200
6,608667	0,5	3,568700
6,617000	0,5	3,568600
6,625333	0,5	3,574900
6,633667	0,5	3,583600
6,642000	0,5	3,604050
6,650333	0,5	3,634300
6,658667	0,5	3,662700
6,667000	0,5	3,695050
6,675333	0,5	3,735850
6,683667	0,5	3,789000
6,692000	0,5	3,852550
6,700333	0,5	3,925400
6,708667	0,5	4,011650
6,717000	0,5	4,107400
6,725333	0,5	4,207950
6,733667	0,5	4,321600
6,742000	0,5	4,423750
6,750333	0,5	4,532100
6,758667	0,5	4,647500
6,767000	0,5	4,730550
6,775333	0,5	4,797150
6,783667	0,5	4,836950
6,792000	0,5	4,836750
6,800333	0,5	4,802850
6,808667	0,5	4,710650
6,817000	0,5	4,579300
6,825333	0,5	4,420800
6,833667	0,5	4,255500
6,842000	0,5	4,096950
6,850333	0,5	3,947600
6,858667	0,5	3,819250
6,867000	0,5	3,714550
6,875333	0,5	3,636750
6,883667	0,5	3,566900
6,892000	0,5	3,514600
6,900333	0,5	3,476400
6,908667	0,5	3,456100
6,917000	0,5	3,429600
6,925333	0,5	3,416250
6,933667	0,5	3,404700
6,942000	0,5	3,407300
6,950333	0,5	3,408600
6,958667	0,5	3,405250
6,967000	0,5	3,397700
6,975333	0,5	3,394150
6,983667	0,5	3,385800
6,992000	0,5	3,383800
7,000333	0,5	3,373400
7,008667	0,5	3,363200
7,017000	0,5	3,355550
7,025333	0,5	3,350050
7,033667	0,5	3,345800
7,042000	0,5	3,339350
7,050333	0,5	3,346250
7,058667	0,5	3,347050
7,067000	0,5	3,345400
7,075333	0,5	3,341350
7,083667	0,5	3,335250
7,092000	0,5	3,330700
7,100333	0,5	3,317200
7,108667	0,5	3,298350
7,117000	0,5	3,278850
7,125333	0,5	3,253900
7,133667	0,5	3,234150
7,142000	0,5	3,219550
7,150333	0,5	3,209450
7,158667	0,5	3,200100
7,167000	0,5	3,197900
7,175333	0,5	3,209150
7,183667	0,5	3,215100
7,192000	0,5	3,232300
7,200333	0,5	3,265050
7,208667	0,5	3,293500
7,217000	0,5	3,323300
7,225333	0,5	3,365350
7,233667	0,5	3,410750
7,242000	0,5	3,475000
7,250333	0,5	3,539750
7,258667	0,5	3,640900
7,267000	0,5	3,784300
7,275333	0,5	3,981200
7,283667	0,5	4,217050
7,292000	0,5	4,475350
7,300333	0,5	4,695200
7,308667	0,5	4,834500
7,317000	0,5	4,852250
7,325333	0,5	4,741550
7,333667	0,5	4,516850
7,342000	0,5	4,233850
7,350333	0,5	3,945250
7,358667	0,5	3,670700
7,367000	0,5	3,442600
7,375333	0,5	3,280650
7,383667	0,5	3,169100
7,392000	0,5	3,099900
7,400333	0,5	3,045650
7,408667	0,5	3,010550
7,417000	0,5	2,985500
7,425333	0,5	2,970650
7,433667	0,5	2,957900
7,442000	0,5	2,944650
7,450333	0,5	2,937350
7,458667	0,5	2,929050
7,467000	0,5	2,929450
7,475333	0,5	2,933700
7,483667	0,5	2,931000
7,492000	0,5	2,936400
7,500333	0,5	2,941000
7,508667	0,5	2,934850
7,517000	0,5	2,931550
7,525333	0,5	2,923550
7,533667	0,5	2,934550
7,542000	0,5	2,938600
7,550333	0,5	2,955300
7,558667	0,5	2,987850
7,567000	0,5	3,039550
7,575333	0,5	3,094900
7,583667	0,5	3,143850
7,592000	0,5	3,158850
7,600333	0,5	3,135500
7,608667	0,5	3,079050
7,617000	0,5	3,005800
7,625333	0,5	2,937300
7,633667	0,5	2,873350
7,642000	0,5	2,840550
7,650333	0,5	2,809150
7,658667	0,5	2,788000
7,667000	0,5	2,779150
7,675333	0,5	2,777650
7,683667	0,5	2,784200
7,692000	0,5	2,789950
7,700333	0,5	2,797800
7,708667	0,5	2,808550
7,717000	0,5	2,818050
7,725333	0,5	2,833750
7,733667	0,5	2,840950
7,742000	0,5	2,843400
7,750333	0,5	2,839050
7,758667	0,5	2,833750
7,767000	0,5	2,830650
7,775333	0,5	2,840350
7,783667	0,5	2,882200
7,792000	0,5	2,970450
7,800333	0,5	3,078100
7,808667	0,5	3,201650
7,817000	0,5	3,294500
7,825333	0,5	3,328200
7,833667	0,5	3,293800
7,842000	0,5	3,193550
7,850333	0,5	3,065850
7,858667	0,5	2,944100
7,867000	0,5	2,845900
7,875333	0,5	2,771150
7,883667	0,5	2,723500
7,892000	0,5	2,692800
7,900333	0,5	2,673250
7,908667	0,5	2,658600
7,917000	0,5	2,650400
7,925333	0,5	2,647950
7,933667	0,5	2,644100
7,942000	0,5	2,645450
7,950333	0,5	2,639750
7,958667	0,5	2,633700
7,967000	0,5	2,627150
7,975333	0,5	2,621500
7,983667	0,5	2,611450
7,992000	0,5	2,604350
8,000333	0,5	2,589100
8,008667	0,5	2,581150
8,017000	0,5	2,575850
8,025333	0,5	2,572300
8,033667	0,5	2,575700
8,042000	0,5	2,584950
8,050333	0,5	2,609700
8,058667	0,5	2,650750
8,067000	0,5	2,713900
8,075333	0,5	2,778750
8,083667	0,5	2,826050
8,092000	0,5	2,833800
8,100333	0,5	2,799000
8,108667	0,5	2,740950
8,117000	0,5	2,675750
8,125333	0,5	2,628350
8,133667	0,5	2,598850
8,142000	0,5	2,577350
8,150333	0,5	2,569850
8,158667	0,5	2,562300
8,167000	0,5	2,560650
8,175333	0,5	2,553250
8,183667	0,5	2,545750
8,192000	0,5	2,530800
8,200333	0,5	2,521500
8,208667	0,5	2,511850
8,217000	0,5	2,509400
8,225333	0,5	2,504500
8,233667	0,5	2,510400
8,242000	0,5	2,509600
8,250333	0,5	2,507600
8,258667	0,5	2,506950
8,267000	0,5	2,502750
8,275333	0,5	2,504150
8,283667	0,5	2,505900
8,292000	0,5	2,503100
8,300333	0,5	2,506350
8,308667	0,5	2,518500
8,317000	0,5	2,532800
8,325333	0,5	2,544100
8,333667	0,5	2,558050
8,342000	0,5	2,565100
8,350333	0,5	2,570050
8,358667	0,5	2,568350
8,367000	0,5	2,557500
8,375333	0,5	2,544750
8,383667	0,5	2,534300
8,392000	0,5	2,525700
8,400333	0,5	2,514300
8,408667	0,5	2,510500
8,417000	0,5	2,508550
8,425333	0,5	2,510850
8,433667	0,5	2,505950
8,442000	0,5	2,503500
8,450333	0,5	2,510500
8,458667	0,5	2,518500
8,467000	0,5	2,535600
8,475333	0,5	2,561200
8,483667	0,5	2,596450
8,492000	0,5	2,643300
8,500333	0,5	2,707800
8,508667	0,5	2,795700
8,517000	0,5	2,899750
8,525333	0,5	3,004600
8,533667	0,5	3,087950
8,542000	0,5	3,128350
8,550333	0,5	3,131550
8,558667	0,5	3,123200
8,567000	0,5	3,129800
8,575333	0,5	3,170450
8,583667	0,5	3,253200
8,592000	0,5	3,382850
8,600333	0,5	3,572050
8,608667	0,5	3,803250
8,617000	0,5	4,063600
8,625333	0,5	4,304900
8,633667	0,5	4,477550
8,642000	0,5	4,538400
8,650333	0,5	4,493800
8,658667	0,5	4,388500
8,667000	0,5	4,274650
8,675333	0,5	4,199800
8,683667	0,5	4,162100
8,692000	0,5	4,164850
8,700333	0,5	4,225500
8,708667	0,5	4,364800
8,717000	0,5	4,554800
8,725333	0,5	4,749850
8,733667	0,5	4,886750
8,742000	0,5	4,947450
8,750333	0,5	4,908600
8,758667	0,5	4,800800
8,767000	0,5	4,615850
8,775333	0,5	4,395050
8,783667	0,5	4,158400
8,792000	0,5	3,920750
8,800333	0,5	3,695750
8,808667	0,5	3,500400
8,817000	0,5	3,324200
8,825333	0,5	3,183450
8,833667	0,5	3,071550
8,842000	0,5	2,986800
8,850333	0,5	2,925800
8,858667	0,5	2,896400
8,867000	0,5	2,903750
8,875333	0,5	2,939450
8,883667	0,5	3,022150
8,892000	0,5	3,136350
8,900333	0,5	3,267650
8,908667	0,5	3,379650
8,917000	0,5	3,444000
8,925333	0,5	3,451450
8,933667	0,5	3,408850
8,942000	0,5	3,329900
8,950333	0,5	3,235050
8,958667	0,5	3,137150
8,967000	0,5	3,042800
8,975333	0,5	2,965300
8,983667	0,5	2,905750
8,992000	0,5	2,861950
9,000333	0,5	2,826350
9,008667	0,5	2,796500
9,017000	0,5	2,762550
9,025333	0,5	2,724050
9,033667	0,5	2,679200
9,042000	0,5	2,639450
9,050333	0,5	2,600150
9,058667	0,5	2,567450
9,067000	0,5	2,544150
9,075333	0,5	2,523900
9,083667	0,5	2,506550
9,092000	0,5	2,495000
9,100333	0,5	2,485600
9,108667	0,5	2,478800
9,117000	0,5	2,477550
9,125333	0,5	2,475750
9,133667	0,5	2,481150
9,142000	0,5	2,485500
9,150333	0,5	2,494150
9,158667	0,5	2,511850
9,167000	0,5	2,532550
9,175333	0,5	2,566300
9,183667	0,5	2,601750
9,192000	0,5	2,651500
9,200333	0,5	2,718750
9,208667	0,5	2,801800
9,217000	0,5	2,895900
9,225333	0,5	2,981550
9,233667	0,5	3,039750
9,242000	0,5	3,060150
9,250333	0,5	3,049200
9,258667	0,5	3,020500
9,267000	0,5	2,975950
9,275333	0,5	2,923900
9,283667	0,5	2,923150
9,292000	0,5	2,800550
9,300333	0,5	2,742350
9,308667	0,5	2,699350
9,317000	0,5	2,668050
9,325333	0,5	2,656400
9,333667	0,5	2,665100
9,342000	0,5	2,693900
9,350333	0,5	2,743350
9,358667	0,5	2,816900
9,367000	0,5	2,909550
9,375333	0,5	3,032450
9,383667	0,5	3,186850
9,392000	0,5	3,379500
9,400333	0,5	3,610850
9,408667	0,5	3,879100
9,417000	0,5	4,186800
9,425333	0,5	4,526350
9,433667	0,5	4,882300
9,442000	0,5	5,249550
9,450333	0,5	5,634100
9,458667	0,5	6,014550
9,467000	0,5	6,395550
9,475333	0,5	6,761800
9,483667	0,5	7,099150
9,492000	0,5	7,376050
9,500333	0,5	7,538100
9,508667	0,5	7,523750
9,517000	0,5	7,275450
9,525333	0,5	6,773750
9,533667	0,5	6,074100
9,542000	0,5	5,281600
9,550333	0,5	4,510400
9,558667	0,5	3,858650
9,567000	0,5	3,362450
9,575333	0,5	3,013900
9,583667	0,5	2,779050
9,592000	0,5	2,631950
9,600333	0,5	2,534400
9,608667	0,5	2,475800
9,617000	0,5	2,438400
9,625333	0,5	2,414500
9,633667	0,5	2,408700
9,642000	0,5	2,418200
9,650333	0,5	2,445100
9,658667	0,5	2,489450
9,667000	0,5	2,547400
9,675333	0,5	2,611400
9,683667	0,5	2,658550
9,692000	0,5	2,680900
9,700333	0,5	2,669900
9,708667	0,5	2,630550
9,717000	0,5	2,573250
9,725333	0,5	2,508300
9,733667	0,5	2,448800
9,742000	0,5	2,398250
9,750333	0,5	2,367850
9,758667	0,5	2,356150
9,767000	0,5	2,352000
9,775333	0,5	2,349750
9,783667	0,5	2,336000
9,792000	0,5	2,311700
9,800333	0,5	2,275000
9,808667	0,5	2,238500
9,817000	0,5	2,207150
9,825333	0,5	2,183600
9,833667	0,5	2,171200
9,842000	0,5	2,165250
9,850333	0,5	2,165300
9,858667	0,5	2,167550
9,867000	0,5	2,172700
9,875333	0,5	2,173550
9,883667	0,5	2,178800
9,892000	0,5	2,182200
9,900333	0,5	2,191600
9,908667	0,5	2,200200
9,917000	0,5	2,201200
9,925333	0,5	2,194450
9,933667	0,5	2,178250
9,942000	0,5	2,161150
9,950333	0,5	2,144800
9,958667	0,5	2,136200
9,967000	0,5	2,122650
9,975333	0,5	2,117950
9,983667	0,5	2,118900
9,992000	0,5	2,131250
10,000333	0,5	2,155150
10,008667	0,5	2,202700
10,017000	0,5	2,266150
10,025333	0,5	2,326500
10,033667	0,5	2,375150
10,042000	0,5	2,396000
10,050333	0,5	2,392150
10,058667	0,5	2,363900
10,067000	0,5	2,319700
10,075333	0,5	2,271950
10,083667	0,5	2,227750
10,092000	0,5	2,178000
10,100333	0,5	2,138450
10,108667	0,5	2,089350
10,117000	0,5	2,048050
10,125333	0,5	2,012050
10,133667	0,5	1,983750
10,142000	0,5	1,967300
10,150333	0,5	1,950450
10,158667	0,5	1,947150
10,167000	0,5	1,947250
10,175333	0,5	1,947750
10,183667	0,5	1,957400
10,192000	0,5	1,971000
10,200333	0,5	1,991700
10,208667	0,5	2,026250
10,217000	0,5	2,063400
10,225333	0,5	2,105850
10,233667	0,5	2,157050
10,242000	0,5	2,214400
10,250333	0,5	2,270550
10,258667	0,5	2,318200
10,267000	0,5	2,353050
10,275333	0,5	2,369000
10,283667	0,5	2,359650
10,292000	0,5	2,326050
10,300333	0,5	2,280800
10,308667	0,5	2,230450
10,317000	0,5	2,184800
10,325333	0,5	2,149450
10,333667	0,5	2,128250
10,342000	0,5	2,122900
10,350333	0,5	2,118650
10,358667	0,5	2,102650
10,367000	0,5	2,071750
10,375333	0,5	2,035300
10,383667	0,5	1,999550
10,392000	0,5	1,969650
10,400333	0,5	1,948950
10,408667	0,5	1,931600
10,417000	0,5	1,914000
10,425333	0,5	1,889950
10,433667	0,5	1,864550
10,442000	0,5	1,833200
10,450333	0,5	1,801250
10,458667	0,5	1,777700
10,467000	0,5	1,750600
10,475333	0,5	1,725950
10,483667	0,5	1,711500
10,492000	0,5	1,699050
10,500333	0,5	1,700500
10,508667	0,5	1,707850
10,517000	0,5	1,720650
10,525333	0,5	1,734000
10,533667	0,5	1,748000
10,542000	0,5	1,763700
10,550333	0,5	1,772500
10,558667	0,5	1,774200
10,567000	0,5	1,774000
10,575333	0,5	1,778250
10,583667	0,5	1,787100
10,592000	0,5	1,808000
10,600333	0,5	1,853400
10,608667	0,5	1,907600
10,617000	0,5	1,955150
10,625333	0,5	1,985950
10,633667	0,5	1,988900
10,642000	0,5	1,971250
10,650333	0,5	1,931850
10,658667	0,5	1,884700
10,667000	0,5	1,838850
10,675333	0,5	1,798100
10,683667	0,5	1,763750
10,692000	0,5	1,742200
10,700333	0,5	1,715500
10,708667	0,5	1,687950
10,717000	0,5	1,665500
10,725333	0,5	1,638300
10,733667	0,5	1,621600
10,742000	0,5	1,601050
10,750333	0,5	1,597600
10,758667	0,5	1,603850
10,767000	0,5	1,613700
10,775333	0,5	1,631550
10,783667	0,5	1,649250
10,792000	0,5	1,675450
10,800333	0,5	1,707650
10,808667	0,5	1,723500
10,817000	0,5	1,739950
10,825333	0,5	1,757300
10,833667	0,5	1,784600
10,842000	0,5	1,822100
10,850333	0,5	1,870100
10,858667	0,5	1,915050
10,867000	0,5	1,947650
10,875333	0,5	1,952500
10,883667	0,5	1,934850
10,892000	0,5	1,893250
10,900333	0,5	1,849500
10,908667	0,5	1,804100
10,917000	0,5	1,764850
10,925333	0,5	1,738300
10,933667	0,5	1,721450
10,942000	0,5	1,713900
10,950333	0,5	1,712700
10,958667	0,5	1,707400
10,967000	0,5	1,700350
10,975333	0,5	1,699050
10,983667	0,5	1,706450
10,992000	0,5	1,726300
11,000333	0,5	1,764850
11,008667	0,5	1,830000
11,017000	0,5	1,934350
11,025333	0,5	2,084650
11,033667	0,5	2,301700
11,042000	0,5	2,613100
11,050333	0,5	3,009400
11,058667	0,5	3,466950
11,067000	0,5	3,926050
11,075333	0,5	4,313900
11,083667	0,5	4,574500
11,092000	0,5	4,669150
11,100333	0,5	4,590400
11,108667	0,5	4,375250
11,117000	0,5	4,071950
11,125333	0,5	3,725700
11,133667	0,5	3,384500
11,142000	0,5	3,076150
11,150333	0,5	2,819900
11,158667	0,5	2,620100
11,167000	0,5	2,476150
11,175333	0,5	2,376800
11,183667	0,5	2,306250
11,192000	0,5	2,262050
11,200333	0,5	2,233200
11,208667	0,5	2,199850
11,217000	0,5	2,183200
11,225333	0,5	2,158850
11,233667	0,5	2,146550
11,242000	0,5	2,136050
11,250333	0,5	2,134750
11,258667	0,5	2,119200
11,267000	0,5	2,103350
11,275333	0,5	2,062450
11,283667	0,5	2,001700
11,292000	0,5	1,926600
11,300333	0,5	1,845850
11,308667	0,5	1,769650
11,317000	0,5	1,709400
11,325333	0,5	1,664250
11,333667	0,5	1,631950
11,342000	0,5	1,621500
11,350333	0,5	1,614850
11,358667	0,5	1,616950
11,367000	0,5	1,621000
11,375333	0,5	1,636200
11,383667	0,5	1,669650
11,392000	0,5	1,723000
11,400333	0,5	1,797250
11,408667	0,5	1,892200
11,417000	0,5	1,990100
11,425333	0,5	2,089650
11,433667	0,5	2,175050
11,442000	0,5	2,234050
11,450333	0,5	2,265250
11,458667	0,5	2,260000
11,467000	0,5	2,230800
11,475333	0,5	2,168500
11,483667	0,5	2,091850
11,492000	0,5	2,011900
11,500333	0,5	1,925850
11,508667	0,5	1,844150
11,517000	0,5	1,777000
11,525333	0,5	1,734550
11,533667	0,5	1,716350
11,542000	0,5	1,709650
11,550333	0,5	1,717200
11,558667	0,5	1,720350
11,567000	0,5	1,715600
11,575333	0,5	1,693100
11,583667	0,5	1,660000
11,592000	0,5	1,611700
11,600333	0,5	1,566550
11,608667	0,5	1,521450
11,617000	0,5	1,486650
11,625333	0,5	1,453000
11,633667	0,5	1,444450
11,642000	0,5	1,440600
11,650333	0,5	1,447900
11,658667	0,5	1,459100
11,667000	0,5	1,477550
11,675333	0,5	1,497200
11,683667	0,5	1,508050
11,692000	0,5	1,511850
11,700333	0,5	1,496600
11,708667	0,5	1,484250
11,717000	0,5	1,462300
11,725333	0,5	1,440900
11,733667	0,5	1,420100
11,742000	0,5	1,415350
11,750333	0,5	1,411700
11,758667	0,5	1,419500
11,767000	0,5	1,433800
11,775333	0,5	1,441850
11,783667	0,5	1,455350
11,792000	0,5	1,458750
11,800333	0,5	1,457100
11,808667	0,5	1,455300
11,817000	0,5	1,443600
11,825333	0,5	1,437700
11,833667	0,5	1,432800
11,842000	0,5	1,426200
11,850333	0,5	1,416200
11,858667	0,5	1,412300
11,867000	0,5	1,411950
11,875333	0,5	1,410650
11,883667	0,5	1,418200
11,892000	0,5	1,429050
11,900333	0,5	1,439150
11,908667	0,5	1,449250
11,917000	0,5	1,461250
11,925333	0,5	1,469300
11,933667	0,5	1,483000
11,942000	0,5	1,478650
11,950333	0,5	1,472200
11,958667	0,5	1,465600
11,967000	0,5	1,470250
11,975333	0,5	1,498150
11,983667	0,5	1,591000
11,992000	0,5	1,742050
12,000333	0,5	1,942700
12,008667	0,5	2,039500
12,017000	0,5	2,023750
12,025333	0,5	1,866700
12,033667	0,5	1,626300
12,042000	0,5	1,289450
12,050333	0,5	0,981850
12,058667	0,5	0,680050
12,067000	0,5	0,396150
12,075333	0,5	0,208700
12,083667	0,5	0,086900
12,092000	0,5	-0,000250
12,100333	0,5	-0,061350
12,108667	0,5	-0,098950
12,117000	0,5	-0,109450
12,125333	0,5	-0,096700
12,133667	0,5	-0,069700
12,142000	0,5	-0,026500
12,150333	0,5	0,028300
12,158667	0,5	0,098750
12,167000	0,5	0,167900
12,175333	0,5	0,236150
12,183667	0,5	0,294800
12,192000	0,5	0,345850
12,200333	0,5	0,387050
12,208667	0,5	0,408250
12,217000	0,5	0,415350
12,225333	0,5	0,421550
12,233667	0,5	0,419400
12,242000	0,5	0,408400
12,250333	0,5	0,399300
12,258667	0,5	0,387800
12,267000	0,5	0,385800
12,275333	0,5	0,377850
12,283667	0,5	0,380900
12,292000	0,5	0,378450
12,300333	0,5	0,381050
12,308667	0,5	0,378350
12,317000	0,5	0,381850
12,325333	0,5	0,383750
12,333667	0,5	0,382800
12,342000	0,5	0,384700
12,350333	0,5	0,383600
12,358667	0,5	0,383700
12,367000	0,5	0,383550
12,375333	0,5	0,387550
12,383667	0,5	0,387000
12,392000	0,5	0,381150
12,400333	0,5	0,370350
12,408667	0,5	0,366150
12,417000	0,5	0,365500
12,425333	0,5	0,359550
12,433667	0,5	0,354250
12,442000	0,5	0,349400
12,450333	0,5	0,341200
12,458667	0,5	0,340350
12,467000	0,5	0,334600
12,475333	0,5	0,332050
12,483667	0,5	0,327100
12,492000	0,5	0,315900
12,500333	0,5	0,319050
12,508667	0,5	0,314300
12,517000	0,5	0,313550
12,525333	0,5	0,313750
12,533667	0,5	0,309900
12,542000	0,5	0,305850
12,550333	0,5	0,299450
12,558667	0,5	0,296750
12,567000	0,5	0,300050
12,575333	0,5	0,299450
12,583667	0,5	0,298000
12,592000	0,5	0,294100
12,600333	0,5	0,296700
12,608667	0,5	0,296400
12,617000	0,5	0,299600
12,625333	0,5	0,296750
12,633667	0,5	0,297050
12,642000	0,5	0,295350
12,650333	0,5	0,300350
12,658667	0,5	0,293150
12,667000	0,5	0,300300
12,675333	0,5	0,301250
12,683667	0,5	0,303050
12,692000	0,5	0,300600
12,700333	0,5	0,294350
12,708667	0,5	0,295950
12,717000	0,5	0,301300
12,725333	0,5	0,301650
12,733667	0,5	0,296150
12,742000	0,5	0,299650
12,750333	0,5	0,298800
12,758667	0,5	0,298250
12,767000	0,5	0,294050
12,775333	0,5	0,294450
12,783667	0,5	0,291500
12,792000	0,5	0,286800
12,800333	0,5	0,282300
12,808667	0,5	0,275200
12,817000	0,5	0,278800
12,825333	0,5	0,274600
12,833667	0,5	0,268400
12,842000	0,5	0,259800
12,850333	0,5	0,252600
12,858667	0,5	0,257050
12,867000	0,5	0,258200
12,875333	0,5	0,259500
12,883667	0,5	0,258400
12,892000	0,5	0,259250
12,900333	0,5	0,260550
12,908667	0,5	0,258850
12,917000	0,5	0,264150
12,925333	0,5	0,260700
12,933667	0,5	0,260600
12,942000	0,5	0,259600
12,950333	0,5	0,260000
12,958667	0,5	0,256800
12,967000	0,5	0,260550
12,975333	0,5	0,255850
12,983667	0,5	0,253250
12,992000	0,5	0,242350
13,000333	0,5	0,240750
13,008667	0,5	0,238350
13,017000	0,5	0,237000
13,025333	0,5	0,235350
13,033667	0,5	0,230150
13,042000	0,5	0,233800
13,050333	0,5	0,231950
13,058667	0,5	0,230000
13,067000	0,5	0,225700
13,075333	0,5	0,226300
13,083667	0,5	0,226750
13,092000	0,5	0,224050
13,100333	0,5	0,216250
13,108667	0,5	0,222600
13,117000	0,5	0,226000
13,125333	0,5	0,225150
13,133667	0,5	0,221100
13,142000	0,5	0,216600
13,150333	0,5	0,218900
13,158667	0,5	0,223500
13,167000	0,5	0,227250
13,175333	0,5	0,234050
13,183667	0,5	0,237500
13,192000	0,5	0,243500
13,200333	0,5	0,244600
13,208667	0,5	0,247800
13,217000	0,5	0,251750
13,225333	0,5	0,259750
13,233667	0,5	0,269350
13,242000	0,5	0,279800
13,250333	0,5	0,287000
13,258667	0,5	0,307250
13,267000	0,5	0,321050
13,275333	0,5	0,325150
13,283667	0,5	0,328750
13,292000	0,5	0,322200
13,300333	0,5	0,331150
13,308667	0,5	0,323500
13,317000	0,5	0,318300
13,325333	0,5	0,307500
13,333667	0,5	0,306100
13,342000	0,5	0,299200
13,350333	0,5	0,298250
13,358667	0,5	0,295400
13,367000	0,5	0,290150
13,375333	0,5	0,288100
13,383667	0,5	0,293500
13,392000	0,5	0,287350
13,400333	0,5	0,296650
13,408667	0,5	0,314850
13,417000	0,5	0,333750
13,425333	0,5	0,360850
13,433667	0,5	0,392350
13,442000	0,5	0,434600
13,450333	0,5	0,477650
13,458667	0,5	0,514800
13,467000	0,5	0,542900
13,475333	0,5	0,548400
13,483667	0,5	0,545150
13,492000	0,5	0,531950
13,500333	0,5	0,506850
13,508667	0,5	0,484200
13,517000	0,5	0,458550
13,525333	0,5	0,443700
13,533667	0,5	0,436050
13,542000	0,5	0,430750
13,550333	0,5	0,441800
13,558667	0,5	0,470500
13,567000	0,5	0,506350
13,575333	0,5	0,548150
13,583667	0,5	0,584900
13,592000	0,5	0,627950
13,600333	0,5	0,656000
13,608667	0,5	0,666100
13,617000	0,5	0,658300
13,625333	0,5	0,642200
13,633667	0,5	0,616200
13,642000	0,5	0,587350
13,650333	0,5	0,559750
13,658667	0,5	0,545300
13,667000	0,5	0,544800
13,675333	0,5	0,562800
13,683667	0,5	0,601200
13,692000	0,5	0,628250
13,700333	0,5	0,680350
13,708667	0,5	0,708400
13,717000	0,5	0,735200
13,725333	0,5	0,735000
13,733667	0,5	0,731850
13,742000	0,5	0,727850
13,750333	0,5	0,716300
13,758667	0,5	0,697850
13,767000	0,5	0,687050
13,775333	0,5	0,680800
13,783667	0,5	0,684300
13,792000	0,5	0,695900
13,800333	0,5	0,703100
13,808667	0,5	0,712200
13,817000	0,5	0,712350
13,825333	0,5	0,724650
13,833667	0,5	0,720300
13,842000	0,5	0,712750
13,850333	0,5	0,716650
13,858667	0,5	0,714550
13,867000	0,5	0,714100
13,875333	0,5	0,714950
13,883667	0,5	0,719700
13,892000	0,5	0,740850
13,900333	0,5	0,758450
13,908667	0,5	0,781500
13,917000	0,5	0,801900
13,925333	0,5	0,822450
13,933667	0,5	0,834550
13,942000	0,5	0,847000
13,950333	0,5	0,839400
13,958667	0,5	0,826500
13,967000	0,5	0,821550
13,975333	0,5	0,811100
13,983667	0,5	0,800300
13,992000	0,5	0,797400
14,000333	0,5	0,802350
14,008667	0,5	0,798750
14,017000	0,5	0,795350
14,025333	0,5	0,787100
14,033667	0,5	0,789250
14,042000	0,5	0,795600
14,050333	0,5	0,809800
14,058667	0,5	0,815700
14,067000	0,5	0,826500
14,075333	0,5	0,824850
14,083667	0,5	0,826050
14,092000	0,5	0,824450
14,100333	0,5	0,823800
14,108667	0,5	0,823000
14,117000	0,5	0,825050
14,125333	0,5	0,831550
14,133667	0,5	0,823500
14,142000	0,5	0,833100
14,150333	0,5	0,836100
14,158667	0,5	0,834350
14,167000	0,5	0,821050
14,175333	0,5	0,815350
14,183667	0,5	0,810150
14,192000	0,5	0,814000
14,200333	0,5	0,810250
14,208667	0,5	0,811650
14,217000	0,5	0,812950
14,225333	0,5	0,819400
14,233667	0,5	0,813600
14,242000	0,5	0,808550
14,250333	0,5	0,803250
14,258667	0,5	0,792950
14,267000	0,5	0,790500
14,275333	0,5	0,778750
14,283667	0,5	0,771950
14,292000	0,5	0,778550
14,300333	0,5	0,777400
14,308667	0,5	0,772300
14,317000	0,5	0,765800
14,325333	0,5	0,755600
14,333667	0,5	0,758450
14,342000	0,5	0,747650
14,350333	0,5	0,748700
14,358667	0,5	0,742000
14,367000	0,5	0,741100
14,375333	0,5	0,735650
14,383667	0,5	0,740500
14,392000	0,5	0,737500
14,400333	0,5	0,738500
14,408667	0,5	0,732400
14,417000	0,5	0,735500
14,425333	0,5	0,715400
14,433667	0,5	0,720300
14,442000	0,5	0,719950
14,450333	0,5	0,727100
14,458667	0,5	0,721000
14,467000	0,5	0,705950
14,475333	0,5	0,704350
14,483667	0,5	0,698450
14,492000	0,5	0,695800
14,500333	0,5	0,690150
14,508667	0,5	0,691700
14,517000	0,5	0,688750
14,525333	0,5	0,689250
14,533667	0,5	0,687550
14,542000	0,5	0,687650
14,550333	0,5	0,682050
14,558667	0,5	0,681250
14,567000	0,5	0,678550
14,575333	0,5	0,662250
14,583667	0,5	0,667300
14,592000	0,5	0,661300
14,600333	0,5	0,656350
14,608667	0,5	0,647800
14,617000	0,5	0,633200
14,625333	0,5	0,630700
14,633667	0,5	0,631900
14,642000	0,5	0,624050
14,650333	0,5	0,614550
14,658667	0,5	0,607500
14,667000	0,5	0,597550
14,675333	0,5	0,594950
14,683667	0,5	0,591500
14,692000	0,5	0,577950
14,700333	0,5	0,576850
14,708667	0,5	0,570400
14,717000	0,5	0,571000
14,725333	0,5	0,555550
14,733667	0,5	0,563650
14,742000	0,5	0,556950
14,750333	0,5	0,547950
14,758667	0,5	0,538100
14,767000	0,5	0,525200
14,775333	0,5	0,524600
14,783667	0,5	0,521150
14,792000	0,5	0,517000
14,800333	0,5	0,516000
14,808667	0,5	0,510200
14,817000	0,5	0,507750
14,825333	0,5	0,508500
14,833667	0,5	0,501550
14,842000	0,5	0,498400
14,850333	0,5	0,496700
14,858667	0,5	0,498200
14,867000	0,5	0,483950
14,875333	0,5	0,480950
14,883667	0,5	0,486250
14,892000	0,5	0,482350
14,900333	0,5	0,473100
14,908667	0,5	0,460850
14,917000	0,5	0,450500
14,925333	0,5	0,458000
14,933667	0,5	0,455550
14,942000	0,5	0,462500
14,950333	0,5	0,462050
14,958667	0,5	0,464550
14,967000	0,5	0,462650
14,975333	0,5	0,469700
14,983667	0,5	0,474600
14,992000	0,5	0,475250
15,000333	0,5	0,484150
15,008667	0,5	0,485450
15,017000	0,5	0,485650
15,025333	0,5	0,492150
15,033667	0,5	0,496650
15,042000	0,5	0,493700
15,050333	0,5	0,486200
15,058667	0,5	0,473350
15,067000	0,5	0,477750
15,075333	0,5	0,480750
15,083667	0,5	0,484350
15,092000	0,5	0,488200
15,100333	0,5	0,496750
15,108667	0,5	0,499700
15,117000	0,5	0,512400
15,125333	0,5	0,520900
15,133667	0,5	0,521800
15,142000	0,5	0,527450
15,150333	0,5	0,532300
15,158667	0,5	0,527250
15,167000	0,5	0,519000
15,175333	0,5	0,523700
15,183667	0,5	0,531950
15,192000	0,5	0,539700
15,200333	0,5	0,545550
15,208667	0,5	0,556400
15,217000	0,5	0,571750
15,225333	0,5	0,576650
15,233667	0,5	0,567550
15,242000	0,5	0,559600
15,250333	0,5	0,537000
15,258667	0,5	0,522700
15,267000	0,5	0,506650
15,275333	0,5	0,499650
15,283667	0,5	0,480150
15,292000	0,5	0,465950
15,300333	0,5	0,448950
15,308667	0,5	0,413000
15,317000	0,5	0,395600
15,325333	0,5	0,386200
15,333667	0,5	0,369750
15,342000	0,5	0,356000
15,350333	0,5	0,334350
15,358667	0,5	0,324550
15,367000	0,5	0,321450
15,375333	0,5	0,311550
15,383667	0,5	0,306600
15,392000	0,5	0,293000
15,400333	0,5	0,287750
15,408667	0,5	0,279300
15,417000	0,5	0,278850
15,425333	0,5	0,270000
15,433667	0,5	0,269100
15,442000	0,5	0,269100
15,450333	0,5	0,273000
15,458667	0,5	0,259200
15,467000	0,5	0,276300
15,475333	0,5	0,275750
15,483667	0,5	0,276700
15,492000	0,5	0,266750
15,500333	0,5	0,250050
15,508667	0,5	0,253100
15,517000	0,5	0,248550
15,525333	0,5	0,246200
15,533667	0,5	0,240500
15,542000	0,5	0,241400
15,550333	0,5	0,233800
15,558667	0,5	0,235750
15,567000	0,5	0,222250
15,575333	0,5	0,216550
15,583667	0,5	0,205150
15,592000	0,5	0,199900
15,600333	0,5	0,192050
15,608667	0,5	0,178100
15,617000	0,5	0,180000
15,625333	0,5	0,177550
15,633667	0,5	0,166450
15,642000	0,5	0,157750
15,650333	0,5	0,138100
15,658667	0,5	0,135200
15,667000	0,5	0,137800
15,675333	0,5	0,131200
15,683667	0,5	0,129450
15,692000	0,5	0,124500
15,700333	0,5	0,123250
15,708667	0,5	0,116350
15,717000	0,5	0,112800
15,725333	0,5	0,108350
15,733667	0,5	0,104050
15,742000	0,5	0,104450
15,750333	0,5	0,100000
15,758667	0,5	0,093450
15,767000	0,5	0,110350
15,775333	0,5	0,102700
15,783667	0,5	0,106950
15,792000	0,5	0,102850
15,800333	0,5	0,103350
15,808667	0,5	0,117450
15,817000	0,5	0,130400
15,825333	0,5	0,142800
15,833667	0,5	0,149850
15,842000	0,5	0,153850
15,850333	0,5	0,155000
15,858667	0,5	0,151450
15,867000	0,5	0,140650
15,875333	0,5	0,124400
15,883667	0,5	0,114600
15,892000	0,5	0,108550
15,900333	0,5	0,087800
15,908667	0,5	0,090650
15,917000	0,5	0,088950
15,925333	0,5	0,084750
15,933667	0,5	0,073200
15,942000	0,5	0,064300
15,950333	0,5	0,059500
15,958667	0,5	0,062250
15,967000	0,5	0,055550
15,975333	0,5	0,050700
15,983667	0,5	0,042000
15,992000	0,5	0,037350
16,000333	0,5	0,031150
16,008667	0,5	0,028250
16,017000	0,5	0,021100
16,025333	0,5	0,010800
16,033667	0,5	0,018600
16,042000	0,5	0,011900
16,050333	0,5	-0,000150
16,058667	0,5	0,002000
16,067000	0,5	0,003200
16,075333	0,5	-0,005950
16,083667	0,5	-0,020650
16,092000	0,5	-0,027650
16,100333	0,5	-0,031700
16,108667	0,5	-0,035250
16,117000	0,5	-0,032000
16,125333	0,5	-0,035300
16,133667	0,5	-0,029200
16,142000	0,5	-0,033100
16,150333	0,5	-0,031350
16,158667	0,5	-0,033400
16,167000	0,5	-0,037550
16,175333	0,5	-0,041900
16,183667	0,5	-0,036400
16,192000	0,5	-0,055600
16,200333	0,5	-0,055550
16,208667	0,5	-0,044950
16,217000	0,5	-0,047250
16,225333	0,5	-0,051200
16,233667	0,5	-0,067100
16,242000	0,5	-0,068000
16,250333	0,5	-0,069750
16,258667	0,5	-0,067950
16,267000	0,5	-0,073150
16,275333	0,5	-0,072950
16,283667	0,5	-0,074400
16,292000	0,5	-0,072500
16,300333	0,5	-0,075450
16,308667	0,5	-0,079350
16,317000	0,5	-0,085450
16,325333	0,5	-0,091650
16,333667	0,5	-0,092000
16,342000	0,5	-0,109650
16,350333	0,5	-0,104300
16,358667	0,5	-0,102100
16,367000	0,5	-0,114250
16,375333	0,5	-0,121250
16,383667	0,5	-0,140050
16,392000	0,5	-0,138750
16,400333	0,5	-0,134400
16,408667	0,5	-0,140050
16,417000	0,5	-0,141850
16,425333	0,5	-0,147950
16,433667	0,5	-0,148950
16,442000	0,5	-0,156500
16,450333	0,5	-0,155300
16,458667	0,5	-0,162100
16,467000	0,5	-0,163700
16,475333	0,5	-0,159850
16,483667	0,5	-0,161300
16,492000	0,5	-0,178000
16,500333	0,5	-0,164050
16,508667	0,5	-0,166100
16,517000	0,5	-0,173550
16,525333	0,5	-0,180200
16,533667	0,5	-0,197000
16,542000	0,5	-0,191600
16,550333	0,5	-0,196650
16,558667	0,5	-0,193050
16,567000	0,5	-0,196650
16,575333	0,5	-0,194100
16,583667	0,5	-0,199700
16,592000	0,5	-0,191300
16,600333	0,5	-0,196250
16,608667	0,5	-0,198050
16,617000	0,5	-0,202450
16,625333	0,5	-0,195950
16,633667	0,5	-0,205550
16,642000	0,5	-0,209550
16,650333	0,5	-0,201900
16,658667	0,5	-0,204250
16,667000	0,5	-0,212050
16,675333	0,5	-0,222000
16,683667	0,5	-0,228450
16,692000	0,5	-0,224050
16,700333	0,5	-0,222900
16,708667	0,5	-0,224650
16,717000	0,5	-0,224550
16,725333	0,5	-0,220300
16,733667	0,5	-0,216100
16,742000	0,5	-0,212600
16,750333	0,5	-0,210100
16,758667	0,5	-0,206850
16,767000	0,5	-0,195050
16,775333	0,5	-0,188050
16,783667	0,5	-0,185800
16,792000	0,5	-0,171550
16,800333	0,5	-0,153750
16,808667	0,5	-0,148900
16,817000	0,5	-0,143750
16,825333	0,5	-0,141650
16,833667	0,5	-0,125550
16,842000	0,5	-0,113200
16,850333	0,5	-0,100700
16,858667	0,5	-0,090650
16,867000	0,5	-0,083400
16,875333	0,5	-0,077900
16,883667	0,5	-0,073300
16,892000	0,5	-0,064150
16,900333	0,5	-0,061550
16,908667	0,5	-0,053250
16,917000	0,5	-0,041100
16,925333	0,5	-0,029600
16,933667	0,5	-0,030550
16,942000	0,5	-0,002400
16,950333	0,5	0,018250
16,958667	0,5	0,030650
16,967000	0,5	0,030200
16,975333	0,5	0,028350
16,983667	0,5	0,025550
16,992000	0,5	0,026100
17,000333	0,5	0,025300
17,008667	0,5	0,030300
17,017000	0,5	0,023700
17,025333	0,5	0,023300
17,033667	0,5	0,025650
17,042000	0,5	0,020400
17,050333	0,5	0,027150
17,058667	0,5	0,030100
17,067000	0,5	0,036350
17,075333	0,5	0,025750
17,083667	0,5	0,029200
17,092000	0,5	0,035750
17,100333	0,5	0,035250
17,108667	0,5	0,027150
17,117000	0,5	0,012150
17,125333	0,5	0,004300
17,133667	0,5	0,005650
17,142000	0,5	-0,002100
17,150333	0,5	-0,003600
17,158667	0,5	-0,014600
17,167000	0,5	-0,018450
17,175333	0,5	-0,024550
17,183667	0,5	-0,031450
17,192000	0,5	-0,039400
17,200333	0,5	-0,044200
17,208667	0,5	-0,045000
17,217000	0,5	-0,052700
17,225333	0,5	-0,078650
17,233667	0,5	-0,071150
17,242000	0,5	-0,070350
17,250333	0,5	-0,080500
17,258667	0,5	-0,087650
17,267000	0,5	-0,112850
17,275333	0,5	-0,107650
17,283667	0,5	-0,115000
17,292000	0,5	-0,115900
17,300333	0,5	-0,122050
17,308667	0,5	-0,119600
17,317000	0,5	-0,125750
17,325333	0,5	-0,118900
17,333667	0,5	-0,128450
17,342000	0,5	-0,133050
17,350333	0,5	-0,134200
17,358667	0,5	-0,135500
17,367000	0,5	-0,142650
17,375333	0,5	-0,161100
17,383667	0,5	-0,153850
17,392000	0,5	-0,161500
17,400333	0,5	-0,176250
17,408667	0,5	-0,192600
17,417000	0,5	-0,212850
17,425333	0,5	-0,219450
17,433667	0,5	-0,220350
17,442000	0,5	-0,231050
17,450333	0,5	-0,230000
17,458667	0,5	-0,241600
17,467000	0,5	-0,239150
17,475333	0,5	-0,245000
17,483667	0,5	-0,243550
17,492000	0,5	-0,241750
17,500333	0,5	-0,244550
17,508667	0,5	-0,234550
17,517000	0,5	-0,235150
17,525333	0,5	-0,238100
17,533667	0,5	-0,224700
17,542000	0,5	-0,218900
17,550333	0,5	-0,218300
17,558667	0,5	-0,221650
17,567000	0,5	-0,224850
17,575333	0,5	-0,212900
17,583667	0,5	-0,222550
17,592000	0,5	-0,235100
17,600333	0,5	-0,258200
17,608667	0,5	-0,275250
17,617000	0,5	-0,294850
17,625333	0,5	-0,313800
17,633667	0,5	-0,337650
17,642000	0,5	-0,350450
17,650333	0,5	-0,359500
17,658667	0,5	-0,364450
17,667000	0,5	-0,389650
17,675333	0,5	-0,390400
17,683667	0,5	-0,398250
17,692000	0,5	-0,400400
17,700333	0,5	-0,415600
17,708667	0,5	-0,436150
17,717000	0,5	-0,435050
17,725333	0,5	-0,436750
17,733667	0,5	-0,437250
17,742000	0,5	-0,442250
17,750333	0,5	-0,444950
17,758667	0,5	-0,455350
17,767000	0,5	-0,454650
17,775333	0,5	-0,465950
17,783667	0,5	-0,466000
17,792000	0,5	-0,475950
17,800333	0,5	-0,472200
17,808667	0,5	-0,476750
17,817000	0,5	-0,487750
17,825333	0,5	-0,487350
17,833667	0,5	-0,489150
17,842000	0,5	-0,499100
17,850333	0,5	-0,512750
17,858667	0,5	-0,529000
17,867000	0,5	-0,536300
17,875333	0,5	-0,531600
17,883667	0,5	-0,533450
17,892000	0,5	-0,531300
17,900333	0,5	-0,538250
17,908667	0,5	-0,535800
17,917000	0,5	-0,536850
17,925333	0,5	-0,534250
17,933667	0,5	-0,542300
17,942000	0,5	-0,542350
17,950333	0,5	-0,547900
17,958667	0,5	-0,559900
17,967000	0,5	-0,567600
17,975333	0,5	-0,559250
17,983667	0,5	-0,566650
17,992000	0,5	-0,574350
18,000333	0,5	-0,597850
18,008667	0,5	-0,614450
18,017000	0,5	-0,614050
18,025333	0,5	-0,616700
18,033667	0,5	-0,624000
18,042000	0,5	-0,628050
18,050333	0,5	-0,632800
18,058667	0,5	-0,636800
18,067000	0,5	-0,637350
18,075333	0,5	-0,646350
18,083667	0,5	-0,652400
18,092000	0,5	-0,649900
18,100333	0,5	-0,652900
18,108667	0,5	-0,673400
18,117000	0,5	-0,670800
18,125333	0,5	-0,674950
18,133667	0,5	-0,682550
18,142000	0,5	-0,695050
18,150333	0,5	-0,711100
18,158667	0,5	-0,717200
18,167000	0,5	-0,716150
18,175333	0,5	-0,723900
18,183667	0,5	-0,724850
18,192000	0,5	-0,735300
18,200333	0,5	-0,736950
18,208667	0,5	-0,740150
18,217000	0,5	-0,747350
18,225333	0,5	-0,749400
18,233667	0,5	-0,752100
18,242000	0,5	-0,749650
18,250333	0,5	-0,759800
18,258667	0,5	-0,773050
18,267000	0,5	-0,770450
18,275333	0,5	-0,767300
18,283667	0,5	-0,783400
18,292000	0,5	-0,791950
18,300333	0,5	-0,810150
18,308667	0,5	-0,805850
18,317000	0,5	-0,811650
18,325333	0,5	-0,812950
18,333667	0,5	-0,818850
18,342000	0,5	-0,818550
18,350333	0,5	-0,820400
18,358667	0,5	-0,820050
18,367000	0,5	-0,823200
18,375333	0,5	-0,825250
18,383667	0,5	-0,828150
18,392000	0,5	-0,824150
18,400333	0,5	-0,835250
18,408667	0,5	-0,834800
18,417000	0,5	-0,822100
18,425333	0,5	-0,820200
18,433667	0,5	-0,823700
18,442000	0,5	-0,837300
18,450333	0,5	-0,830150
18,458667	0,5	-0,819550
18,467000	0,5	-0,807000
18,475333	0,5	-0,813100
18,483667	0,5	-0,797400
18,492000	0,5	-0,793500
18,500333	0,5	-0,779050
18,508667	0,5	-0,768300
18,517000	0,5	-0,756650
18,525333	0,5	-0,748200
18,533667	0,5	-0,736350
18,542000	0,5	-0,717350
18,550333	0,5	-0,723250
18,558667	0,5	-0,705150
18,567000	0,5	-0,692950
18,575333	0,5	-0,686500
18,583667	0,5	-0,691100
18,592000	0,5	-0,700650
18,600333	0,5	-0,696600
18,608667	0,5	-0,688400
18,617000	0,5	-0,693300
18,625333	0,5	-0,693350
18,633667	0,5	-0,701700
18,642000	0,5	-0,701400
18,650333	0,5	-0,708100
18,658667	0,5	-0,714200
18,667000	0,5	-0,724200
18,675333	0,5	-0,733350
18,683667	0,5	-0,733250
18,692000	0,5	-0,741750
18,700333	0,5	-0,760550
18,708667	0,5	-0,754700
18,717000	0,5	-0,765100
18,725333	0,5	-0,772900
18,733667	0,5	-0,796550
18,742000	0,5	-0,821050
18,750333	0,5	-0,820050
18,758667	0,5	-0,829850
18,767000	0,5	-0,827300
18,775333	0,5	-0,839100
18,783667	0,5	-0,840550
18,792000	0,5	-0,848000
18,800333	0,5	-0,845800
18,808667	0,5	-0,853200
18,817000	0,5	-0,856400
18,825333	0,5	-0,856050
18,833667	0,5	-0,846200
18,842000	0,5	-0,855450
18,850333	0,5	-0,848750
18,858667	0,5	-0,835150
18,867000	0,5	-0,830100
18,875333	0,5	-0,825650
18,883667	0,5	-0,822750
18,892000	0,5	-0,821550
18,900333	0,5	-0,812600
18,908667	0,5	-0,805050
18,917000	0,5	-0,815300
18,925333	0,5	-0,816500
18,933667	0,5	-0,826900
18,942000	0,5	-0,836700
18,950333	0,5	-0,854550
18,958667	0,5	-0,866000
18,967000	0,5	-0,888250
18,975333	0,5	-0,891850
18,983667	0,5	-0,907550
18,992000	0,5	-0,928600
19,000333	0,5	-0,940200
19,008667	0,5	-0,941400
19,017000	0,5	-0,954250
19,025333	0,5	-0,971300
19,033667	0,5	-0,994100
19,042000	0,5	-1,001550
19,050333	0,5	-1,004800
19,058667	0,5	-1,011050
19,067000	0,5	-1,011500
19,075333	0,5	-1,017550
19,083667	0,5	-1,018100
19,092000	0,5	-1,027650
19,100333	0,5	-1,025650
19,108667	0,5	-1,034250
19,117000	0,5	-1,030750
19,125333	0,5	-1,027550
19,133667	0,5	-1,034350
19,142000	0,5	-1,045200
19,150333	0,5	-1,039350
19,158667	0,5	-1,041800
19,167000	0,5	-1,042700
19,175333	0,5	-1,066150
19,183667	0,5	-1,075700
19,192000	0,5	-1,066200
19,200333	0,5	-1,067400
19,208667	0,5	-1,065450
19,217000	0,5	-1,064150
19,225333	0,5	-1,064950
19,233667	0,5	-1,074900
19,242000	0,5	-1,071550
19,250333	0,5	-1,082150
19,258667	0,5	-1,083250
19,267000	0,5	-1,086900
19,275333	0,5	-1,085700
19,283667	0,5	-1,110000
19,292000	0,5	-1,109500
19,300333	0,5	-1,110500
19,308667	0,5	-1,114750
19,317000	0,5	-1,131800
19,325333	0,5	-1,153450
19,333667	0,5	-1,152050
19,342000	0,5	-1,151850
19,350333	0,5	-1,160350
19,358667	0,5	-1,165400
19,367000	0,5	-1,169600
19,375333	0,5	-1,170950
19,383667	0,5	-1,172050
19,392000	0,5	-1,177600
19,400333	0,5	-1,179800
19,408667	0,5	-1,187350
19,417000	0,5	-1,179700
19,425333	0,5	-1,179150
19,433667	0,5	-1,197050
19,442000	0,5	-1,198150
19,450333	0,5	-1,202800
19,458667	0,5	-1,210850
19,467000	0,5	-1,219350
19,475333	0,5	-1,241900
19,483667	0,5	-1,240850
19,492000	0,5	-1,243450
19,500333	0,5	-1,249700
19,508667	0,5	-1,253450
19,517000	0,5	-1,253050
19,525333	0,5	-1,262300
19,533667	0,5	-1,262150
19,542000	0,5	-1,259350
19,550333	0,5	-1,272100
19,558667	0,5	-1,268950
19,567000	0,5	-1,264850
19,575333	0,5	-1,272650
19,583667	0,5	-1,287850
19,592000	0,5	-1,274200
19,600333	0,5	-1,279750
19,608667	0,5	-1,289950
19,617000	0,5	-1,310450
19,625333	0,5	-1,323350
19,633667	0,5	-1,320300
19,642000	0,5	-1,319600
19,650333	0,5	-1,327750
19,658667	0,5	-1,327650
19,667000	0,5	-1,333300
19,675333	0,5	-1,334750
19,683667	0,5	-1,333700
19,692000	0,5	-1,334400
19,700333	0,5	-1,338900
19,708667	0,5	-1,334950
19,717000	0,5	-1,331200
19,725333	0,5	-1,339550
19,733667	0,5	-1,337350
19,742000	0,5	-1,336550
19,750333	0,5	-1,336550
19,758667	0,5	-1,352400
19,767000	0,5	-1,371750
19,775333	0,5	-1,377700
19,783667	0,5	-1,371550
19,792000	0,5	-1,379150
19,800333	0,5	-1,376400
19,808667	0,5	-1,382350
19,817000	0,5	-1,378650
19,825333	0,5	-1,381950
19,833667	0,5	-1,386550
19,842000	0,5	-1,386450
19,850333	0,5	-1,391600
19,858667	0,5	-1,380300
19,867000	0,5	-1,381050
19,875333	0,5	-1,392100
19,883667	0,5	-1,386200
19,892000	0,5	-1,387800
19,900333	0,5	-1,393600
19,908667	0,5	-1,406000
19,917000	0,5	-1,418800
19,925333	0,5	-1,420250
19,933667	0,5	-1,422750
19,942000	0,5	-1,421100
19,950333	0,5	-1,429800
19,958667	0,5	-1,426900
19,967000	0,5	-1,437200
19,975333	0,5	-1,430400
19,983667	0,5	-1,434450
19,992000	0,5	-1,435600
20,000333	0,5	-1,430500
20,008667	0,5	-1,422250
20,017000	0,5	-1,430100
20,025333	0,5	-1,432100
20,033667	0,5	-1,427200
20,042000	0,5	-1,428650
20,050333	0,5	-1,431350
20,058667	0,5	-1,453550
20,067000	0,5	-1,451950
20,075333	0,5	-1,454550
20,083667	0,5	-1,449600
20,092000	0,5	-1,450850
20,100333	0,5	-1,445700
20,108667	0,5	-1,452150
20,117000	0,5	-1,449150
20,125333	0,5	-1,451500
20,133667	0,5	-1,448900
20,142000	0,5	-1,454750
20,150333	0,5	-1,447100
20,158667	0,5	-1,445900
20,167000	0,5	-1,458750
20,175333	0,5	-1,451300
20,183667	0,5	-1,444250
20,192000	0,5	-1,450150
20,200333	0,5	-1,455750
20,208667	0,5	-1,472000
20,217000	0,5	-1,469500
20,225333	0,5	-1,464400
20,233667	0,5	-1,477850
20,242000	0,5	-1,470450
20,250333	0,5	-1,475250
20,258667	0,5	-1,471700
20,267000	0,5	-1,475700
20,275333	0,5	-1,472300
20,283667	0,5	-1,472850
20,292000	0,5	-1,469550
20,300333	0,5	-1,459900
20,308667	0,5	-1,459150
20,317000	0,5	-1,476350
20,325333	0,5	-1,463800
20,333667	0,5	-1,457750
20,342000	0,5	-1,463050
20,350333	0,5	-1,473600
20,358667	0,5	-1,474850
20,367000	0,5	-1,462250
20,375333	0,5	-1,466500
20,383667	0,5	-1,454250
20,392000	0,5	-1,448800
20,400333	0,5	-1,431450
20,408667	0,5	-1,425050
20,417000	0,5	-1,405150
20,425333	0,5	-1,400050
20,433667	0,5	-1,396600
20,442000	0,5	-1,391650
20,450333	0,5	-1,388750
20,458667	0,5	-1,412250
20,467000	0,5	-1,415850
20,475333	0,5	-1,425600
20,483667	0,5	-1,431000
20,492000	0,5	-1,446750
20,500333	0,5	-1,475650
20,508667	0,5	-1,468650
20,517000	0,5	-1,470900
20,525333	0,5	-1,467950
20,533667	0,5	-1,475200
20,542000	0,5	-1,474750
20,550333	0,5	-1,478850
20,558667	0,5	-1,475700
20,567000	0,5	-1,483100
20,575333	0,5	-1,474000
20,583667	0,5	-1,478650
20,592000	0,5	-1,463450
20,600333	0,5	-1,462850
20,608667	0,5	-1,474550
20,617000	0,5	-1,473350
20,625333	0,5	-1,479750
20,633667	0,5	-1,484250
20,642000	0,5	-1,496200
20,650333	0,5	-1,513700
20,658667	0,5	-1,510400
20,667000	0,5	-1,505900
20,675333	0,5	-1,513350
20,683667	0,5	-1,508850
20,692000	0,5	-1,509800
20,700333	0,5	-1,507100
20,708667	0,5	-1,508200
20,717000	0,5	-1,499550
20,725333	0,5	-1,505000
20,733667	0,5	-1,498150
20,742000	0,5	-1,481450
20,750333	0,5	-1,478200
20,758667	0,5	-1,492650
20,767000	0,5	-1,485250
20,775333	0,5	-1,489500
20,783667	0,5	-1,493600
20,792000	0,5	-1,502700
20,800333	0,5	-1,507400
20,808667	0,5	-1,494750
20,817000	0,5	-1,492800
20,825333	0,5	-1,485700
20,833667	0,5	-1,487650
20,842000	0,5	-1,483450
20,850333	0,5	-1,490600
20,858667	0,5	-1,483200
20,867000	0,5	-1,483600
20,875333	0,5	-1,476250
20,883667	0,5	-1,458000
20,892000	0,5	-1,446600
20,900333	0,5	-1,447450
20,908667	0,5	-1,447100
20,917000	0,5	-1,447050
20,925333	0,5	-1,450400
20,933667	0,5	-1,468450
20,942000	0,5	-1,477850
20,950333	0,5	-1,473550
20,958667	0,5	-1,476350
20,967000	0,5	-1,466850
20,975333	0,5	-1,464600
20,983667	0,5	-1,456650
20,992000	0,5	-1,457200
21,000333	0,5	-1,449800
21,008667	0,5	-1,447500
21,017000	0,5	-1,436650
21,025333	0,5	-1,433050
21,033667	0,5	-1,406200
21,042000	0,5	-1,400450
21,050333	0,5	-1,402150
21,058667	0,5	-1,403700
21,067000	0,5	-1,401550
21,075333	0,5	-1,408050
21,083667	0,5	-1,423450
21,092000	0,5	-1,426150
21,100333	0,5	-1,423800
21,108667	0,5	-1,416500
21,117000	0,5	-1,416500
21,125333	0,5	-1,405850
21,133667	0,5	-1,401050
21,142000	0,5	-1,387250
21,150333	0,5	-1,385200
21,158667	0,5	-1,379150
21,167000	0,5	-1,374850
21,175333	0,5	-1,352600
21,183667	0,5	-1,331100
21,192000	0,5	-1,322550
21,200333	0,5	-1,327150
21,208667	0,5	-1,326300
21,217000	0,5	-1,334250
21,225333	0,5	-1,330800
21,233667	0,5	-1,354450
21,242000	0,5	-1,349400
21,250333	0,5	-1,340900
21,258667	0,5	-1,338800
21,267000	0,5	-1,331500
21,275333	0,5	-1,331100
21,283667	0,5	-1,323300
21,292000	0,5	-1,327600
21,300333	0,5	-1,315350
21,308667	0,5	-1,314700
21,317000	0,5	-1,303250
21,325333	0,5	-1,275300
21,333667	0,5	-1,257000
21,342000	0,5	-1,261550
21,350333	0,5	-1,257800
21,358667	0,5	-1,261100
21,367000	0,5	-1,267050
21,375333	0,5	-1,278700
21,383667	0,5	-1,280950
21,392000	0,5	-1,264950
21,400333	0,5	-1,262950
21,408667	0,5	-1,257200
21,417000	0,5	-1,252400
21,425333	0,5	-1,243600
21,433667	0,5	-1,238200
21,442000	0,5	-1,223900
21,450333	0,5	-1,218650
21,458667	0,5	-1,204950
21,467000	0,5	-1,183900
21,475333	0,5	-1,155600
21,483667	0,5	-1,140300
21,492000	0,5	-1,130050
21,500333	0,5	-1,114600
21,508667	0,5	-1,087850
21,517000	0,5	-1,070600
21,525333	0,5	-1,057400
21,533667	0,5	-1,031100
21,542000	0,5	-1,020150
21,550333	0,5	-1,019350
21,558667	0,5	-1,026800
21,567000	0,5	-1,029400
21,575333	0,5	-1,036750
21,583667	0,5	-1,032650
21,592000	0,5	-1,032900
21,600333	0,5	-1,017400
21,608667	0,5	-1,007450
21,617000	0,5	-0,970650
21,625333	0,5	-0,952600
21,633667	0,5	-0,956250
21,642000	0,5	-0,952200
21,650333	0,5	-0,953350
21,658667	0,5	-0,950850
21,667000	0,5	-0,947200
21,675333	0,5	-0,951050
21,683667	0,5	-0,931450
21,692000	0,5	-0,912500
21,700333	0,5	-0,898200
21,708667	0,5	-0,879900
21,717000	0,5	-0,859250
21,725333	0,5	-0,847550
21,733667	0,5	-0,831150
21,742000	0,5	-0,808300
21,750333	0,5	-0,800850
21,758667	0,5	-0,773450
21,767000	0,5	-0,743350
21,775333	0,5	-0,724900
21,783667	0,5	-0,715950
21,792000	0,5	-0,684500
21,800333	0,5	-0,668200
21,808667	0,5	-0,651900
21,817000	0,5	-0,651500
21,825333	0,5	-0,648250
21,833667	0,5	-0,634200
21,842000	0,5	-0,630900
21,850333	0,5	-0,619900
21,858667	0,5	-0,606400
21,867000	0,5	-0,587100
21,875333	0,5	-0,568200
21,883667	0,5	-0,549150
21,892000	0,5	-0,534750
21,900333	0,5	-0,513350
21,908667	0,5	-0,480300
21,917000	0,5	-0,461700
21,925333	0,5	-0,451550
21,933667	0,5	-0,419300
21,942000	0,5	-0,400550
21,950333	0,5	-0,383600
21,958667	0,5	-0,372400
21,967000	0,5	-0,356700
21,975333	0,5	-0,330750
21,983667	0,5	-0,304200
21,992000	0,5	-0,280000
22,000333	0,5	-0,256300
22,008667	0,5	-0,227750
22,017000	0,5	-0,202750
22,025333	0,5	-0,171700
22,033667	0,5	-0,143100
22,042000	0,5	-0,111500
22,050333	0,5	-0,081250
22,058667	0,5	-0,037900
22,067000	0,5	-0,018100
22,075333	0,5	0,030800
22,083667	0,5	0,072500
22,092000	0,5	0,107750
22,100333	0,5	0,134800
22,108667	0,5	0,157550
22,117000	0,5	0,185600
22,125333	0,5	0,212950
22,133667	0,5	0,238850
22,142000	0,5	0,264550
22,150333	0,5	0,291400
22,158667	0,5	0,319750
22,167000	0,5	0,354050
22,175333	0,5	0,386550
22,183667	0,5	0,426000
22,192000	0,5	0,460100
22,200333	0,5	0,495850
22,208667	0,5	0,522900
22,217000	0,5	0,568050
22,225333	0,5	0,625550
22,233667	0,5	0,677000
22,242000	0,5	0,716650
22,250333	0,5	0,753500
22,258667	0,5	0,778100
22,267000	0,5	0,821650
22,275333	0,5	0,859350
22,283667	0,5	0,893000
22,292000	0,5	0,938400
22,300333	0,5	0,981550
22,308667	0,5	1,025400
22,317000	0,5	1,077300
22,325333	0,5	1,127450
22,333667	0,5	1,172700
22,342000	0,5	1,226050
22,350333	0,5	1,262750
22,358667	0,5	1,318450
22,367000	0,5	1,383650
22,375333	0,5	1,446350
22,383667	0,5	1,497200
22,392000	0,5	1,547750
22,400333	0,5	1,584550
22,408667	0,5	1,640450
22,417000	0,5	1,705350
22,425333	0,5	1,764050
22,433667	0,5	1,817650
22,442000	0,5	1,882550
22,450333	0,5	1,943650
22,458667	0,5	2,007750
22,467000	0,5	2,077350
22,475333	0,5	2,131250
22,483667	0,5	2,189550
22,492000	0,5	2,207350
22,500333	0,5	2,271750
22,508667	0,5	2,314200
22,517000	0,5	2,397850
22,525333	0,5	2,446350
22,533667	0,5	2,494600
22,542000	0,5	2,525100
22,550333	0,5	2,549050
22,558667	0,5	2,591250
22,567000	0,5	2,626950
22,575333	0,5	2,651100
22,583667	0,5	2,675050
22,592000	0,5	2,690500
22,600333	0,5	2,705100
22,608667	0,5	2,717700
22,617000	0,5	2,723100
22,625333	0,5	2,723550
22,633667	0,5	2,700500
22,642000	0,5	2,640800
22,650333	0,5	2,626350
22,658667	0,5	2,610400
22,667000	0,5	2,587700
22,675333	0,5	2,522550
22,683667	0,5	2,452750
22,692000	0,5	2,377150
22,700333	0,5	2,292850
22,708667	0,5	2,221500
22,717000	0,5	2,141000
22,725333	0,5	2,052400
22,733667	0,5	1,957950
22,742000	0,5	1,864550
22,750333	0,5	1,761700
22,758667	0,5	1,660500
22,767000	0,5	1,544900
22,775333	0,5	1,430550
22,783667	0,5	1,286150
22,792000	0,5	1,127550
22,800333	0,5	1,020500
22,808667	0,5	0,898750
22,817000	0,5	0,759100
22,825333	0,5	0,618350
22,833667	0,5	0,479300
22,842000	0,5	0,341350
22,850333	0,5	0,204800
22,858667	0,5	0,069700
22,867000	0,5	-0,062900
22,875333	0,5	-0,186350
22,883667	0,5	-0,309200
22,892000	0,5	-0,425850
22,900333	0,5	-0,543150
22,908667	0,5	-0,659100
22,917000	0,5	-0,772200
22,925333	0,5	-0,886200
22,933667	0,5	-0,985250
22,942000	0,5	-1,092350
22,950333	0,5	-1,201050
22,958667	0,5	-1,341750
22,967000	0,5	-1,434600
22,975333	0,5	-1,527000
22,983667	0,5	-1,594700
22,992000	0,5	-1,673800
23,000333	0,5	-1,748600
23,008667	0,5	-1,816250
23,017000	0,5	-1,872400
23,025333	0,5	-1,927500
23,033667	0,5	-1,971900
23,042000	0,5	-2,016900
23,050333	0,5	-2,065300
23,058667	0,5	-2,105750
23,067000	0,5	-2,151350
23,075333	0,5	-2,169050
23,083667	0,5	-2,205750
23,092000	0,5	-2,244150
23,100333	0,5	-2,296250
23,108667	0,5	-2,344400
23,117000	0,5	-2,372150
23,125333	0,5	-2,388550
23,133667	0,5	-2,396650
23,142000	0,5	-2,408550
23,150333	0,5	-2,423100
23,158667	0,5	-2,414750
23,167000	0,5	-2,414800
23,175333	0,5	-2,399350
23,183667	0,5	-2,392550
23,192000	0,5	-2,383100
23,200333	0,5	-2,373750
23,208667	0,5	-2,363400
23,217000	0,5	-2,355150
23,225333	0,5	-2,335500
23,233667	0,5	-2,340450
23,242000	0,5	-2,316200
23,250333	0,5	-2,320850
23,258667	0,5	-2,342150
23,267000	0,5	-2,336200
23,275333	0,5	-2,323150
23,283667	0,5	-2,293200
23,292000	0,5	-2,289350
23,300333	0,5	-2,264550
23,308667	0,5	-2,249900
23,317000	0,5	-2,216450
23,325333	0,5	-2,191950
23,333667	0,5	-2,158500
23,342000	0,5	-2,131100
23,350333	0,5	-2,100450
23,358667	0,5	-2,070650
23,367000	0,5	-2,041350
23,375333	0,5	-2,078200
23,383667	0,5	-2,013850
23,392000	0,5	-1,964900
23,400333	0,5	-1,949550
23,408667	0,5	-1,946700
23,417000	0,5	-1,929900
23,425333	0,5	-1,911850
23,433667	0,5	-1,889950
23,442000	0,5	-1,876350
23,450333	0,5	-1,861900
23,458667	0,5	-1,835250
23,467000	0,5	-1,814550
23,475333	0,5	-1,788200
23,483667	0,5	-1,767150
23,492000	0,5	-1,742450
23,500333	0,5	-1,717350
23,508667	0,5	-1,694950
23,517000	0,5	-1,702350
23,525333	0,5	-1,729450
23,533667	0,5	-1,675650
23,542000	0,5	-1,626650
23,550333	0,5	-1,588000
23,558667	0,5	-1,574850
23,567000	0,5	-1,559550
23,575333	0,5	-1,543550
23,583667	0,5	-1,523900
23,592000	0,5	-1,507650
23,600333	0,5	-1,491200
23,608667	0,5	-1,471750
23,617000	0,5	-1,454550
23,625333	0,5	-1,433600
23,633667	0,5	-1,420000
23,642000	0,5	-1,403950
23,650333	0,5	-1,388500
23,658667	0,5	-1,374600
23,667000	0,5	-1,479000
23,675333	0,5	-1,444100
23,683667	0,5	-1,413500
23,692000	0,5	-1,341400
23,700333	0,5	-1,318550
23,708667	0,5	-1,304700
23,717000	0,5	-1,297750
23,725333	0,5	-1,290800
23,733667	0,5	-1,268050
23,742000	0,5	-1,250700
23,750333	0,5	-1,228150
23,758667	0,5	-1,210850
23,767000	0,5	-1,187750
23,775333	0,5	-1,171650
23,783667	0,5	-1,149250
23,792000	0,5	-1,132350
23,800333	0,5	-1,114250
23,808667	0,5	-1,110650
23,817000	0,5	-1,219900
23,825333	0,5	-1,188400
23,833667	0,5	-1,133850
23,842000	0,5	-1,082350
23,850333	0,5	-1,057200
23,858667	0,5	-1,043800
23,867000	0,5	-1,038750
23,875333	0,5	-1,037500
23,883667	0,5	-1,028100
23,892000	0,5	-1,013350
23,900333	0,5	-0,995100
23,908667	0,5	-0,978750
23,917000	0,5	-0,960650
23,925333	0,5	-0,942300
23,933667	0,5	-0,919000
23,942000	0,5	-0,901000
23,950333	0,5	-0,883850
23,958667	0,5	-0,926300
23,967000	0,5	-0,983000
23,975333	0,5	-0,937700
23,983667	0,5	-0,886700
23,992000	0,5	-0,829600
24,000333	0,5	-0,808200
24,008667	0,5	-0,789500
24,017000	0,5	-0,792350
24,025333	0,5	-0,776650
24,033667	0,5	-0,755550
24,042000	0,5	-0,736300
24,050333	0,5	-0,721450
24,058667	0,5	-0,701500
24,067000	0,5	-0,691100
24,075333	0,5	-0,673900
24,083667	0,5	-0,657350
24,092000	0,5	-0,642350
24,100333	0,5	-0,627800
24,108667	0,5	-0,722650
24,117000	0,5	-0,698150
24,125333	0,5	-0,681250
24,133667	0,5	-0,626000
24,142000	0,5	-0,593450
24,150333	0,5	-0,576850
24,158667	0,5	-0,567100
24,167000	0,5	-0,565450
24,175333	0,5	-0,545400
24,183667	0,5	-0,521750
24,192000	0,5	-0,506050
24,200333	0,5	-0,488500
24,208667	0,5	-0,473050
24,217000	0,5	-0,447350
24,225333	0,5	-0,431800
24,233667	0,5	-0,410450
24,242000	0,5	-0,398100
24,250333	0,5	-0,403150
24,258667	0,5	-0,464400
24,267000	0,5	-0,439000
24,275333	0,5	-0,414150
24,283667	0,5	-0,373350
24,292000	0,5	-0,347250
24,300333	0,5	-0,339700
24,308667	0,5	-0,329750
24,317000	0,5	-0,335500
24,325333	0,5	-0,318350
24,333667	0,5	-0,312100
24,342000	0,5	-0,293900
24,350333	0,5	-0,281550
24,358667	0,5	-0,262800
24,367000	0,5	-0,256200
24,375333	0,5	-0,237600
24,383667	0,5	-0,224650
24,392000	0,5	-0,213150
24,400333	0,5	-0,240850
24,408667	0,5	-0,258850
24,417000	0,5	-0,234750
24,425333	0,5	-0,204550
24,433667	0,5	-0,170900
24,442000	0,5	-0,154700
24,450333	0,5	-0,145200
24,458667	0,5	-0,145850
24,467000	0,5	-0,140100
24,475333	0,5	-0,126000
24,483667	0,5	-0,111300
24,492000	0,5	-0,110450
24,500333	0,5	-0,098650
24,508667	0,5	-0,090350
24,517000	0,5	-0,078150
24,525333	0,5	-0,072750
24,533667	0,5	-0,058550
24,542000	0,5	-0,054250
24,550333	0,5	-0,101200
24,558667	0,5	-0,084250
24,567000	0,5	-0,067550
24,575333	0,5	-0,048050
24,583667	0,5	-0,028250
24,592000	0,5	-0,017000
24,600333	0,5	-0,013200
24,608667	0,5	-0,012800
24,617000	0,5	-0,005200
24,625333	0,5	0,010450
24,633667	0,5	0,017600
24,642000	0,5	0,027250
24,650333	0,5	0,036600
24,658667	0,5	0,048300
24,667000	0,5	0,055350
24,675333	0,5	0,063950
24,683667	0,5	0,068750
24,692000	0,5	0,072100
24,700333	0,5	0,041250
24,708667	0,5	0,058450
24,717000	0,5	0,067050
24,725333	0,5	0,090000
24,733667	0,5	0,099200
24,742000	0,5	0,101450
24,750333	0,5	0,102600
24,758667	0,5	0,094950
24,767000	0,5	0,101700
24,775333	0,5	0,106400
24,783667	0,5	0,115400
24,792000	0,5	0,122050
24,800333	0,5	0,130150
24,808667	0,5	0,134500
24,817000	0,5	0,144200
24,825333	0,5	0,150550
24,833667	0,5	0,157750
24,842000	0,5	0,153550
24,850333	0,5	0,147000
24,858667	0,5	0,155800
24,867000	0,5	0,167000
24,875333	0,5	0,179500
24,883667	0,5	0,189950
24,892000	0,5	0,190300
24,900333	0,5	0,188150
24,908667	0,5	0,191350
24,917000	0,5	0,192600
24,925333	0,5	0,196000
24,933667	0,5	0,197150
24,942000	0,5	0,201150
24,950333	0,5	0,203400
24,958667	0,5	0,208250
24,967000	0,5	0,213200
24,975333	0,5	0,215800
24,983667	0,5	0,218150
24,992000	0,5	0,212500
25,000333	0,5	0,214200
25,008667	0,5	0,221950
25,017000	0,5	0,232600
25,025333	0,5	0,239000
25,033667	0,5	0,242200
25,042000	0,5	0,245200
25,050333	0,5	0,241600
25,058667	0,5	0,246450
25,067000	0,5	0,248450
25,075333	0,5	0,252350
25,083667	0,5	0,255650
25,092000	0,5	0,258900
25,100333	0,5	0,257950
25,108667	0,5	0,262800
25,117000	0,5	0,265950
25,125333	0,5	0,267650
25,133667	0,5	0,267650
25,142000	0,5	0,263850
25,150333	0,5	0,265900
25,158667	0,5	0,267000
25,167000	0,5	0,271400
25,175333	0,5	0,276600
25,183667	0,5	0,277200
25,192000	0,5	0,273750
25,200333	0,5	0,274700
25,208667	0,5	0,277500
25,217000	0,5	0,279200
25,225333	0,5	0,281300
25,233667	0,5	0,282150
25,242000	0,5	0,284450
25,250333	0,5	0,291350
25,258667	0,5	0,291500
25,267000	0,5	0,292450
25,275333	0,5	0,293700
25,283667	0,5	0,291300
25,292000	0,5	0,294600
25,300333	0,5	0,296800
25,308667	0,5	0,297600
25,317000	0,5	0,294100
25,325333	0,5	0,295800
25,333667	0,5	0,295950
25,342000	0,5	0,296800
25,350333	0,5	0,294500
25,358667	0,5	0,292850
25,367000	0,5	0,295050
25,375333	0,5	0,297150
25,383667	0,5	0,295250
25,392000	0,5	0,296100
25,400333	0,5	0,295800
25,408667	0,5	0,300850
25,417000	0,5	0,301050
25,425333	0,5	0,302850
25,433667	0,5	0,306300
25,442000	0,5	0,308500
25,450333	0,5	0,309000
25,458667	0,5	0,304300
25,467000	0,5	0,306350
25,475333	0,5	0,303900
25,483667	0,5	0,307700
25,492000	0,5	0,307400
25,500333	0,5	0,305000
25,508667	0,5	0,303150
25,517000	0,5	0,304200
25,525333	0,5	0,302600
25,533667	0,5	0,304100
25,542000	0,5	0,303000
25,550333	0,5	0,299550
25,558667	0,5	0,301150
25,567000	0,5	0,300450
25,575333	0,5	0,301750
25,583667	0,5	0,306400
25,592000	0,5	0,306400
25,600333	0,5	0,306950
25,608667	0,5	0,302850
25,617000	0,5	0,303250
25,625333	0,5	0,305350
25,633667	0,5	0,306350
25,642000	0,5	0,306750
25,650333	0,5	0,308950
25,658667	0,5	0,308250
25,667000	0,5	0,306500
25,675333	0,5	0,307200
25,683667	0,5	0,304200
25,692000	0,5	0,302600
25,700333	0,5	0,301600
25,708667	0,5	0,300600
25,717000	0,5	0,301500
25,725333	0,5	0,301550
25,733667	0,5	0,308950
25,742000	0,5	0,306200
25,750333	0,5	0,308650
25,758667	0,5	0,299800
25,767000	0,5	0,300400
25,775333	0,5	0,299000
25,783667	0,5	0,304950
25,792000	0,5	0,312100
25,800333	0,5	0,311700
25,808667	0,5	0,311900
25,817000	0,5	0,313300
25,825333	0,5	0,313150
25,833667	0,5	0,311100
25,842000	0,5	0,312300
25,850333	0,5	0,310950
25,858667	0,5	0,311600
25,867000	0,5	0,312900
25,875333	0,5	0,315450
25,883667	0,5	0,313050
25,892000	0,5	0,320800
25,900333	0,5	0,317500
25,908667	0,5	0,307900
25,917000	0,5	0,309550
25,925333	0,5	0,308250
25,933667	0,5	0,308350
25,942000	0,5	0,318350
25,950333	0,5	0,318650
25,958667	0,5	0,319750
25,967000	0,5	0,317650
25,975333	0,5	0,320450
25,983667	0,5	0,318600
25,992000	0,5	0,317050
26,000333	0,5	0,314500
