File Path	chrom://chromeleon01/ikbm_chromeleon/2022/ICS-5000/ED1/Esteban/20220612_Cell_7_4_eg.seq/892.smp/ED_1.channel/ED_1.chm
Channel	ED_1

Injection Information:
Data Vault	ikbm_chromeleon
Injection	7_24h-EGI-pH6_NA
Injection Number	22
Position	RC1
Comment	
Processing Method	Stop sequence after Cell Death
Instrument Method	ICS5000_PA200_FullNative_Ox_26min_ED1
Type	Unknown
Status	Finished
Injection Date	13.06.2022
Injection Time	02:03:00
Injection Volume (µl)	5,0
Dilution Factor	1,0000
Weight	1,0000

Chromatogram Data Information:
Time Min. (min)	0,000167
Time Max. (min)	26,000167
Data Points	3121
Detector	EDet1
Generating Data System	Chromeleon 7.2.9.11323
Exporting Data System	Chromeleon 7.2.9.0
Operator	Instrument Controller
Signal Quantity	
Signal Unit	nC
Signal Min.	-1,669400
Signal Max.	3 000,825995
Channel	ED_1
Driver Name	DC-5000
Channel Type	Evaluation
Min. Step (s)	0,5
Max. Step (s)	0,5
Average Step (s)	0,5

Signal Parameter Information:
Signal Info	

Chromatogram Data:
Time (min)	Step (s)	Value (nC)
0,000167	n.a.	-0,052000
0,008500	0,5	-0,044900
0,016833	0,5	-0,041200
0,025167	0,5	-0,030750
0,033500	0,5	-0,033250
0,041833	0,5	-0,016050
0,050167	0,5	-0,008400
0,058500	0,5	-0,024650
0,066833	0,5	-0,034500
0,075167	0,5	-0,019100
0,083500	0,5	-0,009550
0,091833	0,5	0,008900
0,100167	0,5	-0,006100
0,108500	0,5	-0,000850
0,116833	0,5	-0,005050
0,125167	0,5	0,005650
0,133500	0,5	-0,000150
0,141833	0,5	0,005500
0,150167	0,5	-0,001300
0,158500	0,5	0,000350
0,166833	0,5	0,001950
0,175167	0,5	-0,007700
0,183500	0,5	-0,015700
0,191833	0,5	-0,004000
0,200167	0,5	-0,009650
0,208500	0,5	-0,017100
0,216833	0,5	-0,016050
0,225167	0,5	-0,009950
0,233500	0,5	0,011350
0,241833	0,5	0,014500
0,250167	0,5	0,010150
0,258500	0,5	0,004950
0,266833	0,5	0,008200
0,275167	0,5	0,002850
0,283500	0,5	0,014050
0,291833	0,5	0,031450
0,300167	0,5	0,046850
0,308500	0,5	0,020750
0,316833	0,5	-0,001850
0,325167	0,5	-0,012450
0,333500	0,5	-0,017550
0,341833	0,5	-0,009050
0,350167	0,5	-0,016800
0,358500	0,5	-0,019500
0,366833	0,5	-0,017800
0,375167	0,5	-0,010000
0,383500	0,5	0,005600
0,391833	0,5	0,014800
0,400167	0,5	0,008600
0,408500	0,5	0,009050
0,416833	0,5	0,007450
0,425167	0,5	0,012750
0,433500	0,5	0,007400
0,441833	0,5	0,007350
0,450167	0,5	0,000950
0,458500	0,5	0,004550
0,466833	0,5	-0,000850
0,475167	0,5	0,000700
0,483500	0,5	0,000550
0,491833	0,5	0,013550
0,500167	0,5	-0,005950
0,508500	0,5	-0,005650
0,516833	0,5	-0,003400
0,525167	0,5	0,016100
0,533500	0,5	0,025300
0,541833	0,5	0,025550
0,550167	0,5	0,022300
0,558500	0,5	0,020750
0,566833	0,5	0,024850
0,575167	0,5	0,027100
0,583500	0,5	0,022700
0,591833	0,5	0,017150
0,600167	0,5	0,022900
0,608500	0,5	0,020800
0,616833	0,5	0,021000
0,625167	0,5	0,010850
0,633500	0,5	0,027450
0,641833	0,5	0,021300
0,650167	0,5	0,012000
0,658500	0,5	0,013550
0,666833	0,5	0,020200
0,675167	0,5	0,037600
0,683500	0,5	0,045000
0,691833	0,5	0,041250
0,700167	0,5	0,042350
0,708500	0,5	0,040100
0,716833	0,5	0,052000
0,725167	0,5	0,043200
0,733500	0,5	0,043500
0,741833	0,5	0,043250
0,750167	0,5	0,038200
0,758500	0,5	0,044700
0,766833	0,5	0,039500
0,775167	0,5	0,038150
0,783500	0,5	0,060100
0,791833	0,5	0,048350
0,800167	0,5	0,036000
0,808500	0,5	0,043450
0,816833	0,5	0,048600
0,825167	0,5	0,068250
0,833500	0,5	0,061300
0,841833	0,5	0,063400
0,850167	0,5	0,060800
0,858500	0,5	0,068950
0,866833	0,5	0,063050
0,875167	0,5	0,066550
0,883500	0,5	0,066000
0,891833	0,5	0,064950
0,900167	0,5	0,072300
0,908500	0,5	0,073600
0,916833	0,5	0,074900
0,925167	0,5	0,072750
0,933500	0,5	0,086300
0,941833	0,5	0,070950
0,950167	0,5	0,067250
0,958500	0,5	0,071900
0,966833	0,5	0,079750
0,975167	0,5	0,093800
0,983500	0,5	0,089050
0,991833	0,5	0,081300
1,000167	0,5	0,096850
1,008500	0,5	0,094400
1,016833	0,5	0,098750
1,025167	0,5	0,091450
1,033500	0,5	0,095000
1,041833	0,5	0,094800
1,050167	0,5	0,092350
1,058500	0,5	0,097950
1,066833	0,5	0,091850
1,075167	0,5	0,096600
1,083500	0,5	0,104600
1,091833	0,5	0,091000
1,100167	0,5	0,091700
1,108500	0,5	0,094700
1,116833	0,5	0,102800
1,125167	0,5	0,117750
1,133500	0,5	0,106450
1,141833	0,5	0,108950
1,150167	0,5	0,105650
1,158500	0,5	0,111350
1,166833	0,5	0,102500
1,175167	0,5	0,109450
1,183500	0,5	0,100300
1,191833	0,5	0,105500
1,200167	0,5	0,105750
1,208500	0,5	0,106500
1,216833	0,5	0,091750
1,225167	0,5	0,106200
1,233500	0,5	0,095500
1,241833	0,5	0,087100
1,250167	0,5	0,087250
1,258500	0,5	0,091650
1,266833	0,5	0,101950
1,275167	0,5	0,105100
1,283500	0,5	0,106550
1,291833	0,5	0,102700
1,300167	0,5	0,096850
1,308500	0,5	0,092950
1,316833	0,5	0,091450
1,325167	0,5	0,086200
1,333500	0,5	0,086000
1,341833	0,5	0,078450
1,350167	0,5	0,078150
1,358500	0,5	0,067650
1,366833	0,5	0,069650
1,375167	0,5	0,071450
1,383500	0,5	0,062850
1,391833	0,5	0,054000
1,400167	0,5	0,053300
1,408500	0,5	0,055850
1,416833	0,5	0,068800
1,425167	0,5	0,064500
1,433500	0,5	0,059250
1,441833	0,5	0,058750
1,450167	0,5	0,052800
1,458500	0,5	0,047850
1,466833	0,5	0,042350
1,475167	0,5	0,044400
1,483500	0,5	0,036100
1,491833	0,5	0,032000
1,500167	0,5	0,027050
1,508500	0,5	0,027650
1,516833	0,5	0,023050
1,525167	0,5	0,024500
1,533500	0,5	0,001750
1,541833	0,5	0,003100
1,550167	0,5	0,008450
1,558500	0,5	0,061200
1,566833	0,5	0,214800
1,575167	0,5	1,122700
1,583500	0,5	6,889000
1,591833	0,5	33,235950
1,600167	0,5	128,976852
1,608500	0,5	418,280556
1,616833	0,5	1 037,149015
1,625167	0,5	1 559,450123
1,633500	0,5	2 335,112685
1,641833	0,5	2 409,272536
1,650167	0,5	2 153,594332
1,658500	0,5	1 650,819975
1,666833	0,5	1 114,339367
1,675167	0,5	742,406861
1,683500	0,5	515,253158
1,691833	0,5	376,566656
1,700167	0,5	286,711404
1,708500	0,5	226,768753
1,716833	0,5	183,118903
1,725167	0,5	149,774202
1,733500	0,5	124,885002
1,741833	0,5	107,043352
1,750167	0,5	94,344101
1,758500	0,5	85,008401
1,766833	0,5	77,730651
1,775167	0,5	71,005101
1,783500	0,5	64,167951
1,791833	0,5	57,787651
1,800167	0,5	52,463151
1,808500	0,5	48,182351
1,816833	0,5	44,608601
1,825167	0,5	41,368101
1,833500	0,5	38,499201
1,841833	0,5	36,229001
1,850167	0,5	35,291801
1,858500	0,5	38,484601
1,866833	0,5	53,094551
1,875167	0,5	94,376301
1,883500	0,5	198,837703
1,891833	0,5	455,482457
1,900167	0,5	923,737964
1,908500	0,5	1 359,447820
1,916833	0,5	1 448,115122
1,925167	0,5	1 214,458668
1,933500	0,5	859,217263
1,941833	0,5	558,843158
1,950167	0,5	367,251655
1,958500	0,5	252,503104
1,966833	0,5	185,149053
1,975167	0,5	143,658752
1,983500	0,5	116,236852
1,991833	0,5	97,153851
2,000167	0,5	83,279901
2,008500	0,5	72,811751
2,016833	0,5	65,042651
2,025167	0,5	59,599701
2,033500	0,5	55,714751
2,041833	0,5	52,314151
2,050167	0,5	48,834851
2,058500	0,5	45,467951
2,066833	0,5	42,530451
2,075167	0,5	39,978101
2,083500	0,5	37,832651
2,091833	0,5	36,073801
2,100167	0,5	34,502601
2,108500	0,5	33,027050
2,116833	0,5	31,740500
2,125167	0,5	30,765300
2,133500	0,5	30,145050
2,141833	0,5	29,832750
2,150167	0,5	29,854200
2,158500	0,5	29,940350
2,166833	0,5	29,907700
2,175167	0,5	30,698750
2,183500	0,5	34,461801
2,191833	0,5	36,141801
2,200167	0,5	32,031750
2,208500	0,5	27,433800
2,216833	0,5	24,917450
2,225167	0,5	23,704600
2,233500	0,5	23,022900
2,241833	0,5	22,536950
2,250167	0,5	22,088250
2,258500	0,5	21,679250
2,266833	0,5	21,287500
2,275167	0,5	21,068650
2,283500	0,5	21,623750
2,291833	0,5	27,021600
2,300167	0,5	52,044551
2,308500	0,5	110,190852
2,316833	0,5	197,907803
2,325167	0,5	332,992205
2,333500	0,5	700,792410
2,341833	0,5	1 557,314673
2,350167	0,5	2 572,154688
2,358500	0,5	2 922,144644
2,366833	0,5	3 000,825995
2,375167	0,5	2 960,254344
2,383500	0,5	2 844,583092
2,391833	0,5	2 667,792640
2,400167	0,5	2 437,604386
2,408500	0,5	2 168,743032
2,416833	0,5	1 884,950678
2,425167	0,5	1 608,294924
2,433500	0,5	1 349,303870
2,441833	0,5	1 104,703716
2,450167	0,5	881,982613
2,458500	0,5	693,594810
2,466833	0,5	544,158258
2,475167	0,5	432,459956
2,483500	0,5	348,772655
2,491833	0,5	287,350054
2,500167	0,5	241,736954
2,508500	0,5	207,124503
2,516833	0,5	180,264903
2,525167	0,5	159,176902
2,533500	0,5	142,528202
2,541833	0,5	129,386652
2,550167	0,5	119,001952
2,558500	0,5	110,721652
2,566833	0,5	104,117352
2,575167	0,5	98,970551
2,583500	0,5	94,923001
2,591833	0,5	91,451251
2,600167	0,5	87,722351
2,608500	0,5	83,138151
2,616833	0,5	77,645951
2,625167	0,5	71,781801
2,633500	0,5	66,217801
2,641833	0,5	61,441401
2,650167	0,5	57,529551
2,658500	0,5	54,349451
2,666833	0,5	51,624901
2,675167	0,5	49,123101
2,683500	0,5	46,688951
2,691833	0,5	44,269301
2,700167	0,5	41,951051
2,708500	0,5	39,755851
2,716833	0,5	37,779851
2,725167	0,5	36,045601
2,733500	0,5	34,528301
2,741833	0,5	33,214650
2,750167	0,5	32,064950
2,758500	0,5	31,072700
2,766833	0,5	30,244250
2,775167	0,5	29,523100
2,783500	0,5	28,840300
2,791833	0,5	28,101900
2,800167	0,5	27,268100
2,808500	0,5	26,313550
2,816833	0,5	25,270200
2,825167	0,5	24,189250
2,833500	0,5	23,152650
2,841833	0,5	22,205100
2,850167	0,5	21,379400
2,858500	0,5	20,584900
2,866833	0,5	19,836650
2,875167	0,5	19,110100
2,883500	0,5	18,416750
2,891833	0,5	17,798600
2,900167	0,5	17,245850
2,908500	0,5	16,805600
2,916833	0,5	16,474500
2,925167	0,5	16,249150
2,933500	0,5	16,095950
2,941833	0,5	15,999600
2,950167	0,5	15,897600
2,958500	0,5	15,772350
2,966833	0,5	15,591750
2,975167	0,5	15,342500
2,983500	0,5	14,995450
2,991833	0,5	14,602950
3,000167	0,5	14,187250
3,008500	0,5	13,764950
3,016833	0,5	13,403250
3,025167	0,5	13,119600
3,033500	0,5	12,910700
3,041833	0,5	12,781600
3,050167	0,5	12,715100
3,058500	0,5	12,735900
3,066833	0,5	12,814400
3,075167	0,5	12,882250
3,083500	0,5	12,858550
3,091833	0,5	12,679400
3,100167	0,5	12,363600
3,108500	0,5	11,967500
3,116833	0,5	11,577050
3,125167	0,5	11,231900
3,133500	0,5	10,951000
3,141833	0,5	10,726850
3,150167	0,5	10,531950
3,158500	0,5	10,337000
3,166833	0,5	10,156000
3,175167	0,5	9,975950
3,183500	0,5	9,813600
3,191833	0,5	9,665000
3,200167	0,5	9,527250
3,208500	0,5	9,426850
3,216833	0,5	9,388150
3,225167	0,5	9,436050
3,233500	0,5	9,581650
3,241833	0,5	9,842150
3,250167	0,5	10,185500
3,258500	0,5	10,564850
3,266833	0,5	10,886550
3,275167	0,5	11,113700
3,283500	0,5	11,216850
3,291833	0,5	11,243150
3,300167	0,5	11,199500
3,308500	0,5	11,185600
3,316833	0,5	11,247000
3,325167	0,5	11,491300
3,333500	0,5	12,011700
3,341833	0,5	12,902350
3,350167	0,5	14,210550
3,358500	0,5	15,970200
3,366833	0,5	18,126150
3,375167	0,5	20,664050
3,383500	0,5	23,692850
3,391833	0,5	27,616050
3,400167	0,5	33,167650
3,408500	0,5	41,257601
3,416833	0,5	52,337801
3,425167	0,5	65,718001
3,433500	0,5	79,315601
3,441833	0,5	90,119601
3,450167	0,5	95,432551
3,458500	0,5	94,149851
3,466833	0,5	86,924001
3,475167	0,5	75,627151
3,483500	0,5	62,593251
3,491833	0,5	49,865601
3,500167	0,5	38,879751
3,508500	0,5	30,276000
3,516833	0,5	24,106100
3,525167	0,5	20,001050
3,533500	0,5	17,437400
3,541833	0,5	15,851750
3,550167	0,5	14,789500
3,558500	0,5	13,924700
3,566833	0,5	13,089600
3,575167	0,5	12,250950
3,583500	0,5	11,459350
3,591833	0,5	10,742950
3,600167	0,5	10,151850
3,608500	0,5	9,712800
3,616833	0,5	9,392250
3,625167	0,5	9,174350
3,633500	0,5	8,998500
3,641833	0,5	8,847750
3,650167	0,5	8,694350
3,658500	0,5	8,543600
3,666833	0,5	8,370800
3,675167	0,5	8,196350
3,683500	0,5	7,995550
3,691833	0,5	7,788200
3,700167	0,5	7,570750
3,708500	0,5	7,358550
3,716833	0,5	7,152600
3,725167	0,5	6,952500
3,733500	0,5	6,789900
3,741833	0,5	6,631950
3,750167	0,5	6,491400
3,758500	0,5	6,376400
3,766833	0,5	6,272350
3,775167	0,5	6,184300
3,783500	0,5	6,083850
3,791833	0,5	5,970050
3,800167	0,5	5,859300
3,808500	0,5	5,738700
3,816833	0,5	5,623750
3,825167	0,5	5,507250
3,833500	0,5	5,402750
3,841833	0,5	5,308750
3,850167	0,5	5,230250
3,858500	0,5	5,161900
3,866833	0,5	5,101250
3,875167	0,5	5,039650
3,883500	0,5	5,003350
3,891833	0,5	4,935000
3,900167	0,5	4,880300
3,908500	0,5	4,828700
3,916833	0,5	4,780750
3,925167	0,5	4,739950
3,933500	0,5	4,678800
3,941833	0,5	4,632200
3,950167	0,5	4,585500
3,958500	0,5	4,543850
3,966833	0,5	4,508800
3,975167	0,5	4,477650
3,983500	0,5	4,450150
3,991833	0,5	4,434500
4,000167	0,5	4,424800
4,008500	0,5	4,423350
4,016833	0,5	4,411650
4,025167	0,5	4,421550
4,033500	0,5	4,437050
4,041833	0,5	4,447050
4,050167	0,5	4,467350
4,058500	0,5	4,505950
4,066833	0,5	4,567100
4,075167	0,5	4,654550
4,083500	0,5	4,755350
4,091833	0,5	4,893050
4,100167	0,5	5,061600
4,108500	0,5	5,255500
4,116833	0,5	5,452600
4,125167	0,5	5,640100
4,133500	0,5	5,796350
4,141833	0,5	5,914150
4,150167	0,5	5,986750
4,158500	0,5	6,020400
4,166833	0,5	6,026650
4,175167	0,5	6,037050
4,183500	0,5	6,070250
4,191833	0,5	6,141100
4,200167	0,5	6,294600
4,208500	0,5	6,518250
4,216833	0,5	6,802950
4,225167	0,5	7,087200
4,233500	0,5	7,310250
4,241833	0,5	7,420750
4,250167	0,5	7,381750
4,258500	0,5	7,180800
4,266833	0,5	6,850250
4,275167	0,5	6,424250
4,283500	0,5	5,979500
4,291833	0,5	5,559450
4,300167	0,5	5,195900
4,308500	0,5	4,907550
4,316833	0,5	4,688050
4,325167	0,5	4,537150
4,333500	0,5	4,423700
4,341833	0,5	4,347450
4,350167	0,5	4,301350
4,358500	0,5	4,285550
4,366833	0,5	4,282700
4,375167	0,5	4,284550
4,383500	0,5	4,289100
4,391833	0,5	4,312000
4,400167	0,5	4,338350
4,408500	0,5	4,377450
4,416833	0,5	4,413300
4,425167	0,5	4,461100
4,433500	0,5	4,503100
4,441833	0,5	4,545450
4,450167	0,5	4,578150
4,458500	0,5	4,594300
4,466833	0,5	4,602600
4,475167	0,5	4,602150
4,483500	0,5	4,574850
4,491833	0,5	4,545300
4,500167	0,5	4,505400
4,508500	0,5	4,470200
4,516833	0,5	4,429550
4,525167	0,5	4,377450
4,533500	0,5	4,337500
4,541833	0,5	4,289600
4,550167	0,5	4,258700
4,558500	0,5	4,215600
4,566833	0,5	4,183950
4,575167	0,5	4,141900
4,583500	0,5	4,111150
4,591833	0,5	4,084650
4,600167	0,5	4,048800
4,608500	0,5	4,015150
4,616833	0,5	4,013350
4,625167	0,5	3,991750
4,633500	0,5	3,982700
4,641833	0,5	3,977850
4,650167	0,5	3,984200
4,658500	0,5	4,000100
4,666833	0,5	4,018600
4,675167	0,5	4,045050
4,683500	0,5	4,079650
4,691833	0,5	4,144000
4,700167	0,5	4,223700
4,708500	0,5	4,341750
4,716833	0,5	4,490750
4,725167	0,5	4,670700
4,733500	0,5	4,867700
4,741833	0,5	5,067900
4,750167	0,5	5,236350
4,758500	0,5	5,364900
4,766833	0,5	5,452650
4,775167	0,5	5,465600
4,783500	0,5	5,421650
4,791833	0,5	5,343800
4,800167	0,5	5,240100
4,808500	0,5	5,146900
4,816833	0,5	5,055950
4,825167	0,5	5,000900
4,833500	0,5	5,002300
4,841833	0,5	5,065800
4,850167	0,5	5,193950
4,858500	0,5	5,386450
4,866833	0,5	5,628850
4,875167	0,5	5,890450
4,883500	0,5	6,146050
4,891833	0,5	6,347150
4,900167	0,5	6,455350
4,908500	0,5	6,449600
4,916833	0,5	6,330550
4,925167	0,5	6,083550
4,933500	0,5	5,764550
4,941833	0,5	5,398050
4,950167	0,5	5,031050
4,958500	0,5	4,695050
4,966833	0,5	4,390500
4,975167	0,5	4,143000
4,983500	0,5	3,962900
4,991833	0,5	3,829800
5,000167	0,5	3,745600
5,008500	0,5	3,688700
5,016833	0,5	3,660200
5,025167	0,5	3,648150
5,033500	0,5	3,646200
5,041833	0,5	3,658900
5,050167	0,5	3,660750
5,058500	0,5	3,680350
5,066833	0,5	3,701900
5,075167	0,5	3,704850
5,083500	0,5	3,707600
5,091833	0,5	3,711000
5,100167	0,5	3,704750
5,108500	0,5	3,695050
5,116833	0,5	3,661100
5,125167	0,5	3,631350
5,133500	0,5	3,600150
5,141833	0,5	3,579650
5,150167	0,5	3,559200
5,158500	0,5	3,563800
5,166833	0,5	3,569150
5,175167	0,5	3,587950
5,183500	0,5	3,610050
5,191833	0,5	3,622850
5,200167	0,5	3,628850
5,208500	0,5	3,630850
5,216833	0,5	3,617050
5,225167	0,5	3,589700
5,233500	0,5	3,563500
5,241833	0,5	3,541300
5,250167	0,5	3,541200
5,258500	0,5	3,511950
5,266833	0,5	3,508700
5,275167	0,5	3,515900
5,283500	0,5	3,545500
5,291833	0,5	3,586150
5,300167	0,5	3,644150
5,308500	0,5	3,702850
5,316833	0,5	3,769850
5,325167	0,5	3,840800
5,333500	0,5	3,920200
5,341833	0,5	3,995800
5,350167	0,5	4,085850
5,358500	0,5	4,188950
5,366833	0,5	4,281350
5,375167	0,5	4,369100
5,383500	0,5	4,443000
5,391833	0,5	4,484100
5,400167	0,5	4,488900
5,408500	0,5	4,447050
5,416833	0,5	4,348700
5,425167	0,5	4,226050
5,433500	0,5	4,079750
5,441833	0,5	3,926550
5,450167	0,5	3,773200
5,458500	0,5	3,642300
5,466833	0,5	3,525500
5,475167	0,5	3,437150
5,483500	0,5	3,376200
5,491833	0,5	3,333750
5,500167	0,5	3,316700
5,508500	0,5	3,322400
5,516833	0,5	3,331350
5,525167	0,5	3,365800
5,533500	0,5	3,403150
5,541833	0,5	3,455650
5,550167	0,5	3,503150
5,558500	0,5	3,541550
5,566833	0,5	3,572600
5,575167	0,5	3,594950
5,583500	0,5	3,606250
5,591833	0,5	3,606950
5,600167	0,5	3,602700
5,608500	0,5	3,582550
5,616833	0,5	3,556400
5,625167	0,5	3,516000
5,633500	0,5	3,467350
5,641833	0,5	3,402550
5,650167	0,5	3,355750
5,658500	0,5	3,296050
5,666833	0,5	3,234350
5,675167	0,5	3,178750
5,683500	0,5	3,134250
5,691833	0,5	3,098250
5,700167	0,5	3,062200
5,708500	0,5	3,034300
5,716833	0,5	3,013950
5,725167	0,5	3,006400
5,733500	0,5	3,009450
5,741833	0,5	3,035850
5,750167	0,5	3,087950
5,758500	0,5	3,174250
5,766833	0,5	3,284250
5,775167	0,5	3,424100
5,783500	0,5	3,569500
5,791833	0,5	3,707650
5,800167	0,5	3,826050
5,808500	0,5	3,883700
5,816833	0,5	3,885450
5,825167	0,5	3,833550
5,833500	0,5	3,728700
5,841833	0,5	3,594600
5,850167	0,5	3,433300
5,858500	0,5	3,272850
5,866833	0,5	3,126900
5,875167	0,5	3,005600
5,883500	0,5	2,906350
5,891833	0,5	2,835150
5,900167	0,5	2,787050
5,908500	0,5	2,760450
5,916833	0,5	2,748450
5,925167	0,5	2,750400
5,933500	0,5	2,769850
5,941833	0,5	2,796600
5,950167	0,5	2,839600
5,958500	0,5	2,870050
5,966833	0,5	2,914750
5,975167	0,5	2,954900
5,983500	0,5	2,990300
5,991833	0,5	3,027250
6,000167	0,5	3,049850
6,008500	0,5	3,073350
6,016833	0,5	3,112300
6,025167	0,5	3,162650
6,033500	0,5	3,250300
6,041833	0,5	3,383700
6,050167	0,5	3,573200
6,058500	0,5	3,834350
6,066833	0,5	4,156050
6,075167	0,5	4,519950
6,083500	0,5	4,874850
6,091833	0,5	5,182000
6,100167	0,5	5,411650
6,108500	0,5	5,572600
6,116833	0,5	5,731050
6,125167	0,5	5,981150
6,133500	0,5	6,416850
6,141833	0,5	7,141300
6,150167	0,5	8,183950
6,158500	0,5	9,573650
6,166833	0,5	11,203300
6,175167	0,5	12,920500
6,183500	0,5	14,499550
6,191833	0,5	15,763550
6,200167	0,5	16,586600
6,208500	0,5	16,938450
6,216833	0,5	16,840650
6,225167	0,5	16,368350
6,233500	0,5	15,669450
6,241833	0,5	14,974950
6,250167	0,5	14,514150
6,258500	0,5	14,517350
6,266833	0,5	15,102700
6,275167	0,5	16,191250
6,283500	0,5	17,465600
6,291833	0,5	18,463900
6,300167	0,5	18,776550
6,308500	0,5	18,214250
6,316833	0,5	16,860050
6,325167	0,5	14,969050
6,333500	0,5	12,874100
6,341833	0,5	10,869400
6,350167	0,5	9,158250
6,358500	0,5	7,840700
6,366833	0,5	6,950600
6,375167	0,5	6,464500
6,383500	0,5	6,323000
6,391833	0,5	6,202600
6,400167	0,5	5,855250
6,408500	0,5	5,381950
6,416833	0,5	4,789050
6,425167	0,5	4,241600
6,433500	0,5	3,825350
6,441833	0,5	3,524250
6,450167	0,5	3,281800
6,458500	0,5	3,099100
6,466833	0,5	2,977250
6,475167	0,5	2,880550
6,483500	0,5	2,801700
6,491833	0,5	2,737200
6,500167	0,5	2,680750
6,508500	0,5	2,632700
6,516833	0,5	2,593850
6,525167	0,5	2,557150
6,533500	0,5	2,530850
6,541833	0,5	2,508300
6,550167	0,5	2,481200
6,558500	0,5	2,463650
6,566833	0,5	2,448200
6,575167	0,5	2,442600
6,583500	0,5	2,433450
6,591833	0,5	2,427500
6,600167	0,5	2,416400
6,608500	0,5	2,409600
6,616833	0,5	2,402550
6,625167	0,5	2,395400
6,633500	0,5	2,388650
6,641833	0,5	2,381500
6,650167	0,5	2,381550
6,658500	0,5	2,376050
6,666833	0,5	2,372000
6,675167	0,5	2,365700
6,683500	0,5	2,373000
6,691833	0,5	2,369350
6,700167	0,5	2,370850
6,708500	0,5	2,370300
6,716833	0,5	2,373650
6,725167	0,5	2,380950
6,733500	0,5	2,387900
6,741833	0,5	2,390250
6,750167	0,5	2,399750
6,758500	0,5	2,405450
6,766833	0,5	2,415400
6,775167	0,5	2,424250
6,783500	0,5	2,436600
6,791833	0,5	2,444700
6,800167	0,5	2,457200
6,808500	0,5	2,470050
6,816833	0,5	2,479900
6,825167	0,5	2,492600
6,833500	0,5	2,511300
6,841833	0,5	2,520000
6,850167	0,5	2,532800
6,858500	0,5	2,546300
6,866833	0,5	2,560150
6,875167	0,5	2,580600
6,883500	0,5	2,594750
6,891833	0,5	2,606400
6,900167	0,5	2,614600
6,908500	0,5	2,625000
6,916833	0,5	2,628850
6,925167	0,5	2,633850
6,933500	0,5	2,635650
6,941833	0,5	2,637500
6,950167	0,5	2,631250
6,958500	0,5	2,626400
6,966833	0,5	2,619750
6,975167	0,5	2,609900
6,983500	0,5	2,601050
6,991833	0,5	2,583700
7,000167	0,5	2,570300
7,008500	0,5	2,556100
7,016833	0,5	2,541700
7,025167	0,5	2,529200
7,033500	0,5	2,513300
7,041833	0,5	2,494200
7,050167	0,5	2,481650
7,058500	0,5	2,465950
7,066833	0,5	2,450350
7,075167	0,5	2,434700
7,083500	0,5	2,422600
7,091833	0,5	2,409350
7,100167	0,5	2,398150
7,108500	0,5	2,390200
7,116833	0,5	2,373950
7,125167	0,5	2,360900
7,133500	0,5	2,352600
7,141833	0,5	2,338650
7,150167	0,5	2,328700
7,158500	0,5	2,316950
7,166833	0,5	2,314200
7,175167	0,5	2,315700
7,183500	0,5	2,303900
7,191833	0,5	2,299450
7,200167	0,5	2,294300
7,208500	0,5	2,288850
7,216833	0,5	2,283400
7,225167	0,5	2,280300
7,233500	0,5	2,273250
7,241833	0,5	2,266900
7,250167	0,5	2,263100
7,258500	0,5	2,257550
7,266833	0,5	2,252600
7,275167	0,5	2,254700
7,283500	0,5	2,249300
7,291833	0,5	2,247950
7,300167	0,5	2,243450
7,308500	0,5	2,246950
7,316833	0,5	2,252750
7,325167	0,5	2,256350
7,333500	0,5	2,256050
7,341833	0,5	2,258650
7,350167	0,5	2,260500
7,358500	0,5	2,259400
7,366833	0,5	2,261400
7,375167	0,5	2,258050
7,383500	0,5	2,261550
7,391833	0,5	2,259200
7,400167	0,5	2,258100
7,408500	0,5	2,254550
7,416833	0,5	2,257800
7,425167	0,5	2,259100
7,433500	0,5	2,260800
7,441833	0,5	2,258250
7,450167	0,5	2,261300
7,458500	0,5	2,268400
7,466833	0,5	2,279550
7,475167	0,5	2,287850
7,483500	0,5	2,298300
7,491833	0,5	2,307000
7,500167	0,5	2,320900
7,508500	0,5	2,332350
7,516833	0,5	2,344950
7,525167	0,5	2,361700
7,533500	0,5	2,378300
7,541833	0,5	2,398350
7,550167	0,5	2,419250
7,558500	0,5	2,441800
7,566833	0,5	2,462950
7,575167	0,5	2,488350
7,583500	0,5	2,510500
7,591833	0,5	2,545050
7,600167	0,5	2,579750
7,608500	0,5	2,632850
7,616833	0,5	2,694850
7,625167	0,5	2,764750
7,633500	0,5	2,853000
7,641833	0,5	2,960600
7,650167	0,5	3,097250
7,658500	0,5	3,272750
7,666833	0,5	3,493850
7,675167	0,5	3,773150
7,683500	0,5	4,109100
7,691833	0,5	4,487200
7,700167	0,5	4,871300
7,708500	0,5	5,201600
7,716833	0,5	5,423200
7,725167	0,5	5,481450
7,733500	0,5	5,361200
7,741833	0,5	5,081650
7,750167	0,5	4,701800
7,758500	0,5	4,285100
7,766833	0,5	3,894300
7,775167	0,5	3,566250
7,783500	0,5	3,332650
7,791833	0,5	3,179100
7,800167	0,5	3,091000
7,808500	0,5	3,042200
7,816833	0,5	3,009150
7,825167	0,5	2,972900
7,833500	0,5	2,923450
7,841833	0,5	2,861650
7,850167	0,5	2,785400
7,858500	0,5	2,703000
7,866833	0,5	2,630500
7,875167	0,5	2,563200
7,883500	0,5	2,509400
7,891833	0,5	2,471600
7,900167	0,5	2,454600
7,908500	0,5	2,450850
7,916833	0,5	2,451300
7,925167	0,5	2,459450
7,933500	0,5	2,459750
7,941833	0,5	2,459400
7,950167	0,5	2,447000
7,958500	0,5	2,420400
7,966833	0,5	2,381950
7,975167	0,5	2,339100
7,983500	0,5	2,293100
7,991833	0,5	2,252800
8,000167	0,5	2,216950
8,008500	0,5	2,193700
8,016833	0,5	2,188700
8,025167	0,5	2,198100
8,033500	0,5	2,234050
8,041833	0,5	2,296600
8,050167	0,5	2,376100
8,058500	0,5	2,459050
8,066833	0,5	2,526200
8,075167	0,5	2,566150
8,083500	0,5	2,580450
8,091833	0,5	2,583250
8,100167	0,5	2,585350
8,108500	0,5	2,600500
8,116833	0,5	2,645000
8,125167	0,5	2,728000
8,133500	0,5	2,839900
8,141833	0,5	2,983250
8,150167	0,5	3,150500
8,158500	0,5	3,336600
8,166833	0,5	3,548600
8,175167	0,5	3,811850
8,183500	0,5	4,191300
8,191833	0,5	4,794150
8,200167	0,5	5,777300
8,208500	0,5	7,263500
8,216833	0,5	9,330050
8,225167	0,5	11,885850
8,233500	0,5	14,653800
8,241833	0,5	17,203400
8,250167	0,5	19,073300
8,258500	0,5	19,921600
8,266833	0,5	19,634500
8,275167	0,5	18,341700
8,283500	0,5	16,347700
8,291833	0,5	14,011550
8,300167	0,5	11,665050
8,308500	0,5	9,533750
8,316833	0,5	7,735400
8,325167	0,5	6,295550
8,333500	0,5	5,192350
8,341833	0,5	4,372850
8,350167	0,5	3,781100
8,358500	0,5	3,362350
8,366833	0,5	3,074700
8,375167	0,5	2,875900
8,383500	0,5	2,745900
8,391833	0,5	2,657350
8,400167	0,5	2,591250
8,408500	0,5	2,540250
8,416833	0,5	2,495900
8,425167	0,5	2,460250
8,433500	0,5	2,445550
8,441833	0,5	2,437200
8,450167	0,5	2,458100
8,458500	0,5	2,502200
8,466833	0,5	2,556950
8,475167	0,5	2,613350
8,483500	0,5	2,655500
8,491833	0,5	2,673450
8,500167	0,5	2,661950
8,508500	0,5	2,630700
8,516833	0,5	2,588950
8,525167	0,5	2,554600
8,533500	0,5	2,533750
8,541833	0,5	2,520350
8,550167	0,5	2,502800
8,558500	0,5	2,473650
8,566833	0,5	2,425950
8,575167	0,5	2,375700
8,583500	0,5	2,336300
8,591833	0,5	2,316350
8,600167	0,5	2,323250
8,608500	0,5	2,354200
8,616833	0,5	2,387050
8,625167	0,5	2,415700
8,633500	0,5	2,438100
8,641833	0,5	2,445300
8,650167	0,5	2,442900
8,658500	0,5	2,430450
8,666833	0,5	2,398250
8,675167	0,5	2,361200
8,683500	0,5	2,312850
8,691833	0,5	2,264200
8,700167	0,5	2,211750
8,708500	0,5	2,176450
8,716833	0,5	2,179150
8,725167	0,5	2,231550
8,733500	0,5	2,343800
8,741833	0,5	2,502750
8,750167	0,5	2,679900
8,758500	0,5	2,813300
8,766833	0,5	2,866800
8,775167	0,5	2,827950
8,783500	0,5	2,719450
8,791833	0,5	2,581200
8,800167	0,5	2,454350
8,808500	0,5	2,356650
8,816833	0,5	2,300000
8,825167	0,5	2,279350
8,833500	0,5	2,285550
8,841833	0,5	2,307950
8,850167	0,5	2,351000
8,858500	0,5	2,402700
8,866833	0,5	2,463700
8,875167	0,5	2,520050
8,883500	0,5	2,557100
8,891833	0,5	2,562900
8,900167	0,5	2,535350
8,908500	0,5	2,482000
8,916833	0,5	2,400350
8,925167	0,5	2,310500
8,933500	0,5	2,222300
8,941833	0,5	2,142400
8,950167	0,5	2,084550
8,958500	0,5	2,037300
8,966833	0,5	2,008500
8,975167	0,5	1,996700
8,983500	0,5	1,998200
8,991833	0,5	2,023100
9,000167	0,5	2,067200
9,008500	0,5	2,133950
9,016833	0,5	2,206800
9,025167	0,5	2,266800
9,033500	0,5	2,294350
9,041833	0,5	2,286550
9,050167	0,5	2,246750
9,058500	0,5	2,186900
9,066833	0,5	2,120950
9,075167	0,5	2,064200
9,083500	0,5	2,029850
9,091833	0,5	2,027250
9,100167	0,5	2,051150
9,108500	0,5	2,109950
9,116833	0,5	2,194300
9,125167	0,5	2,284250
9,133500	0,5	2,364700
9,141833	0,5	2,416100
9,150167	0,5	2,435550
9,158500	0,5	2,416200
9,166833	0,5	2,380950
9,175167	0,5	2,339250
9,183500	0,5	2,291500
9,191833	0,5	2,251150
9,200167	0,5	2,209250
9,208500	0,5	2,165600
9,216833	0,5	2,119500
9,225167	0,5	2,071100
9,233500	0,5	2,028350
9,241833	0,5	1,988800
9,250167	0,5	1,960850
9,258500	0,5	1,938800
9,266833	0,5	1,925400
9,275167	0,5	1,917350
9,283500	0,5	1,911500
9,291833	0,5	1,911850
9,300167	0,5	1,925650
9,308500	0,5	1,948200
9,316833	0,5	1,991550
9,325167	0,5	2,050100
9,333500	0,5	2,132500
9,341833	0,5	2,239900
9,350167	0,5	2,373550
9,358500	0,5	2,517200
9,366833	0,5	2,657600
9,375167	0,5	2,768100
9,383500	0,5	2,817900
9,391833	0,5	2,805350
9,400167	0,5	2,722000
9,408500	0,5	2,599400
9,416833	0,5	2,447950
9,425167	0,5	2,295000
9,433500	0,5	2,153600
9,441833	0,5	2,033400
9,450167	0,5	1,938350
9,458500	0,5	1,868900
9,466833	0,5	1,820300
9,475167	0,5	1,787950
9,483500	0,5	1,763800
9,491833	0,5	1,757600
9,500167	0,5	1,757200
9,508500	0,5	1,770150
9,516833	0,5	1,788800
9,525167	0,5	1,815100
9,533500	0,5	1,845650
9,541833	0,5	1,884500
9,550167	0,5	1,930300
9,558500	0,5	1,996900
9,566833	0,5	2,084350
9,575167	0,5	2,182000
9,583500	0,5	2,271450
9,591833	0,5	2,333000
9,600167	0,5	2,349450
9,608500	0,5	2,309550
9,616833	0,5	2,225750
9,625167	0,5	2,117000
9,633500	0,5	1,996950
9,641833	0,5	1,899950
9,650167	0,5	1,824850
9,658500	0,5	1,774200
9,666833	0,5	1,749300
9,675167	0,5	1,734550
9,683500	0,5	1,735650
9,691833	0,5	1,734900
9,700167	0,5	1,749700
9,708500	0,5	1,777150
9,716833	0,5	1,834600
9,725167	0,5	1,935550
9,733500	0,5	2,073950
9,741833	0,5	2,257500
9,750167	0,5	2,451050
9,758500	0,5	2,622150
9,766833	0,5	2,734300
9,775167	0,5	2,757800
9,783500	0,5	2,698900
9,791833	0,5	2,584500
9,800167	0,5	2,434100
9,808500	0,5	2,278750
9,816833	0,5	2,131350
9,825167	0,5	2,003950
9,833500	0,5	1,906300
9,841833	0,5	1,827850
9,850167	0,5	1,768300
9,858500	0,5	1,735550
9,866833	0,5	1,725250
9,875167	0,5	1,727800
9,883500	0,5	1,743700
9,891833	0,5	1,768100
9,900167	0,5	1,790000
9,908500	0,5	1,812450
9,916833	0,5	1,846400
9,925167	0,5	1,886050
9,933500	0,5	1,942600
9,941833	0,5	2,002200
9,950167	0,5	2,055850
9,958500	0,5	2,088200
9,966833	0,5	2,091750
9,975167	0,5	2,065100
9,983500	0,5	2,013950
9,991833	0,5	1,953550
10,000167	0,5	1,901600
10,008500	0,5	1,874200
10,016833	0,5	1,880150
10,025167	0,5	1,938400
10,033500	0,5	2,047500
10,041833	0,5	2,206000
10,050167	0,5	2,393700
10,058500	0,5	2,580200
10,066833	0,5	2,727150
10,075167	0,5	2,798850
10,083500	0,5	2,801750
10,091833	0,5	2,731300
10,100167	0,5	2,620800
10,108500	0,5	2,491500
10,116833	0,5	2,365750
10,125167	0,5	2,247400
10,133500	0,5	2,142950
10,141833	0,5	2,064200
10,150167	0,5	2,015750
10,158500	0,5	2,003200
10,166833	0,5	2,026200
10,175167	0,5	2,077150
10,183500	0,5	2,147450
10,191833	0,5	2,226600
10,200167	0,5	2,300900
10,208500	0,5	2,359800
10,216833	0,5	2,399650
10,225167	0,5	2,415050
10,233500	0,5	2,448000
10,241833	0,5	2,510550
10,250167	0,5	2,649900
10,258500	0,5	2,884300
10,266833	0,5	3,161500
10,275167	0,5	3,378850
10,283500	0,5	3,472650
10,291833	0,5	3,442750
10,300167	0,5	3,298400
10,308500	0,5	3,091300
10,316833	0,5	2,892650
10,325167	0,5	2,750550
10,333500	0,5	2,727450
10,341833	0,5	2,900950
10,350167	0,5	3,480750
10,358500	0,5	4,940200
10,366833	0,5	6,709350
10,375167	0,5	7,269450
10,383500	0,5	6,963250
10,391833	0,5	6,410700
10,400167	0,5	5,213350
10,408500	0,5	3,549050
10,416833	0,5	2,249050
10,425167	0,5	1,526850
10,433500	0,5	1,145300
10,441833	0,5	0,931250
10,450167	0,5	0,797950
10,458500	0,5	0,710850
10,466833	0,5	0,655300
10,475167	0,5	0,612750
10,483500	0,5	0,578500
10,491833	0,5	0,555400
10,500167	0,5	0,537600
10,508500	0,5	0,521350
10,516833	0,5	0,500900
10,525167	0,5	0,489700
10,533500	0,5	0,478200
10,541833	0,5	0,459450
10,550167	0,5	0,446900
10,558500	0,5	0,430150
10,566833	0,5	0,419150
10,575167	0,5	0,404100
10,583500	0,5	0,392800
10,591833	0,5	0,381100
10,600167	0,5	0,371600
10,608500	0,5	0,368450
10,616833	0,5	0,366600
10,625167	0,5	0,376250
10,633500	0,5	0,388900
10,641833	0,5	0,409900
10,650167	0,5	0,444700
10,658500	0,5	0,482800
10,666833	0,5	0,521750
10,675167	0,5	0,575450
10,683500	0,5	0,619850
10,691833	0,5	0,660850
10,700167	0,5	0,692600
10,708500	0,5	0,707300
10,716833	0,5	0,713800
10,725167	0,5	0,708550
10,733500	0,5	0,685250
10,741833	0,5	0,653550
10,750167	0,5	0,618150
10,758500	0,5	0,567650
10,766833	0,5	0,524350
10,775167	0,5	0,480950
10,783500	0,5	0,440150
10,791833	0,5	0,404100
10,800167	0,5	0,377750
10,808500	0,5	0,349000
10,816833	0,5	0,327500
10,825167	0,5	0,314200
10,833500	0,5	0,297100
10,841833	0,5	0,285400
10,850167	0,5	0,272350
10,858500	0,5	0,263650
10,866833	0,5	0,263750
10,875167	0,5	0,262100
10,883500	0,5	0,256750
10,891833	0,5	0,256350
10,900167	0,5	0,257800
10,908500	0,5	0,257800
10,916833	0,5	0,257300
10,925167	0,5	0,253950
10,933500	0,5	0,255900
10,941833	0,5	0,254900
10,950167	0,5	0,260000
10,958500	0,5	0,257050
10,966833	0,5	0,258400
10,975167	0,5	0,259500
10,983500	0,5	0,256300
10,991833	0,5	0,250600
11,000167	0,5	0,242300
11,008500	0,5	0,238250
11,016833	0,5	0,237500
11,025167	0,5	0,230450
11,033500	0,5	0,224550
11,041833	0,5	0,216000
11,050167	0,5	0,208800
11,058500	0,5	0,199400
11,066833	0,5	0,191350
11,075167	0,5	0,182100
11,083500	0,5	0,171600
11,091833	0,5	0,161850
11,100167	0,5	0,154150
11,108500	0,5	0,145100
11,116833	0,5	0,139300
11,125167	0,5	0,129600
11,133500	0,5	0,124150
11,141833	0,5	0,114400
11,150167	0,5	0,107100
11,158500	0,5	0,107050
11,166833	0,5	0,104250
11,175167	0,5	0,100150
11,183500	0,5	0,098400
11,191833	0,5	0,097250
11,200167	0,5	0,094350
11,208500	0,5	0,092100
11,216833	0,5	0,092750
11,225167	0,5	0,090700
11,233500	0,5	0,088250
11,241833	0,5	0,088550
11,250167	0,5	0,086150
11,258500	0,5	0,085000
11,266833	0,5	0,088400
11,275167	0,5	0,086200
11,283500	0,5	0,087750
11,291833	0,5	0,084850
11,300167	0,5	0,083950
11,308500	0,5	0,089750
11,316833	0,5	0,092150
11,325167	0,5	0,097200
11,333500	0,5	0,102050
11,341833	0,5	0,107300
11,350167	0,5	0,110750
11,358500	0,5	0,115450
11,366833	0,5	0,120650
11,375167	0,5	0,122900
11,383500	0,5	0,125550
11,391833	0,5	0,127750
11,400167	0,5	0,133900
11,408500	0,5	0,136750
11,416833	0,5	0,140500
11,425167	0,5	0,141200
11,433500	0,5	0,145700
11,441833	0,5	0,142050
11,450167	0,5	0,142550
11,458500	0,5	0,144500
11,466833	0,5	0,149850
11,475167	0,5	0,152750
11,483500	0,5	0,153200
11,491833	0,5	0,152400
11,500167	0,5	0,151550
11,508500	0,5	0,152650
11,516833	0,5	0,149250
11,525167	0,5	0,146500
11,533500	0,5	0,144150
11,541833	0,5	0,143400
11,550167	0,5	0,139600
11,558500	0,5	0,144650
11,566833	0,5	0,142400
11,575167	0,5	0,138900
11,583500	0,5	0,140750
11,591833	0,5	0,138650
11,600167	0,5	0,143800
11,608500	0,5	0,144100
11,616833	0,5	0,148500
11,625167	0,5	0,154700
11,633500	0,5	0,160650
11,641833	0,5	0,171250
11,650167	0,5	0,176200
11,658500	0,5	0,183150
11,666833	0,5	0,193300
11,675167	0,5	0,200750
11,683500	0,5	0,210200
11,691833	0,5	0,216700
11,700167	0,5	0,220400
11,708500	0,5	0,233900
11,716833	0,5	0,238300
11,725167	0,5	0,241250
11,733500	0,5	0,244300
11,741833	0,5	0,241550
11,750167	0,5	0,249700
11,758500	0,5	0,251050
11,766833	0,5	0,249650
11,775167	0,5	0,247050
11,783500	0,5	0,244850
11,791833	0,5	0,243450
11,800167	0,5	0,239100
11,808500	0,5	0,232150
11,816833	0,5	0,227100
11,825167	0,5	0,227400
11,833500	0,5	0,222900
11,841833	0,5	0,215900
11,850167	0,5	0,213450
11,858500	0,5	0,212600
11,866833	0,5	0,209950
11,875167	0,5	0,209250
11,883500	0,5	0,204350
11,891833	0,5	0,206500
11,900167	0,5	0,211100
11,908500	0,5	0,207500
11,916833	0,5	0,213500
11,925167	0,5	0,219550
11,933500	0,5	0,215450
11,941833	0,5	0,218600
11,950167	0,5	0,218150
11,958500	0,5	0,221550
11,966833	0,5	0,214850
11,975167	0,5	0,219650
11,983500	0,5	0,220300
11,991833	0,5	0,213700
12,000167	0,5	0,217700
12,008500	0,5	0,217600
12,016833	0,5	0,214550
12,025167	0,5	0,219100
12,033500	0,5	0,215200
12,041833	0,5	0,221300
12,050167	0,5	0,225750
12,058500	0,5	0,232100
12,066833	0,5	0,237200
12,075167	0,5	0,243750
12,083500	0,5	0,250000
12,091833	0,5	0,255250
12,100167	0,5	0,261600
12,108500	0,5	0,266400
12,116833	0,5	0,275100
12,125167	0,5	0,280500
12,133500	0,5	0,291400
12,141833	0,5	0,295250
12,150167	0,5	0,311350
12,158500	0,5	0,321250
12,166833	0,5	0,335850
12,175167	0,5	0,343300
12,183500	0,5	0,355600
12,191833	0,5	0,369700
12,200167	0,5	0,385250
12,208500	0,5	0,391350
12,216833	0,5	0,403950
12,225167	0,5	0,407000
12,233500	0,5	0,410750
12,241833	0,5	0,412900
12,250167	0,5	0,413100
12,258500	0,5	0,412450
12,266833	0,5	0,409700
12,275167	0,5	0,413050
12,283500	0,5	0,407650
12,291833	0,5	0,410400
12,300167	0,5	0,413150
12,308500	0,5	0,410050
12,316833	0,5	0,410250
12,325167	0,5	0,407700
12,333500	0,5	0,407600
12,341833	0,5	0,413850
12,350167	0,5	0,418800
12,358500	0,5	0,426550
12,366833	0,5	0,425750
12,375167	0,5	0,438450
12,383500	0,5	0,442500
12,391833	0,5	0,452950
12,400167	0,5	0,459850
12,408500	0,5	0,464750
12,416833	0,5	0,476150
12,425167	0,5	0,483300
12,433500	0,5	0,484450
12,441833	0,5	0,493150
12,450167	0,5	0,504450
12,458500	0,5	0,507550
12,466833	0,5	0,513450
12,475167	0,5	0,515200
12,483500	0,5	0,521700
12,491833	0,5	0,532950
12,500167	0,5	0,543650
12,508500	0,5	0,548900
12,516833	0,5	0,568250
12,525167	0,5	0,577800
12,533500	0,5	0,591300
12,541833	0,5	0,603500
12,550167	0,5	0,614500
12,558500	0,5	0,625800
12,566833	0,5	0,627250
12,575167	0,5	0,629950
12,583500	0,5	0,627600
12,591833	0,5	0,627500
12,600167	0,5	0,623850
12,608500	0,5	0,614500
12,616833	0,5	0,606500
12,625167	0,5	0,598350
12,633500	0,5	0,597200
12,641833	0,5	0,593950
12,650167	0,5	0,589450
12,658500	0,5	0,594100
12,666833	0,5	0,590650
12,675167	0,5	0,596700
12,683500	0,5	0,599600
12,691833	0,5	0,605800
12,700167	0,5	0,609000
12,708500	0,5	0,615350
12,716833	0,5	0,620500
12,725167	0,5	0,621650
12,733500	0,5	0,620400
12,741833	0,5	0,619300
12,750167	0,5	0,620750
12,758500	0,5	0,617550
12,766833	0,5	0,610200
12,775167	0,5	0,610400
12,783500	0,5	0,614400
12,791833	0,5	0,615850
12,800167	0,5	0,619000
12,808500	0,5	0,622050
12,816833	0,5	0,632300
12,825167	0,5	0,630750
12,833500	0,5	0,635250
12,841833	0,5	0,630200
12,850167	0,5	0,632100
12,858500	0,5	0,632700
12,866833	0,5	0,634800
12,875167	0,5	0,627000
12,883500	0,5	0,630400
12,891833	0,5	0,634100
12,900167	0,5	0,630300
12,908500	0,5	0,630750
12,916833	0,5	0,623050
12,925167	0,5	0,623300
12,933500	0,5	0,625200
12,941833	0,5	0,621950
12,950167	0,5	0,620400
12,958500	0,5	0,623900
12,966833	0,5	0,624300
12,975167	0,5	0,627000
12,983500	0,5	0,630100
12,991833	0,5	0,634050
13,000167	0,5	0,633000
13,008500	0,5	0,642000
13,016833	0,5	0,646400
13,025167	0,5	0,646100
13,033500	0,5	0,652950
13,041833	0,5	0,656000
13,050167	0,5	0,654150
13,058500	0,5	0,646100
13,066833	0,5	0,640500
13,075167	0,5	0,634850
13,083500	0,5	0,629150
13,091833	0,5	0,621050
13,100167	0,5	0,613800
13,108500	0,5	0,615200
13,116833	0,5	0,611600
13,125167	0,5	0,606600
13,133500	0,5	0,607300
13,141833	0,5	0,604050
13,150167	0,5	0,601950
13,158500	0,5	0,601300
13,166833	0,5	0,604750
13,175167	0,5	0,601200
13,183500	0,5	0,610700
13,191833	0,5	0,605400
13,200167	0,5	0,607800
13,208500	0,5	0,600550
13,216833	0,5	0,599100
13,225167	0,5	0,600000
13,233500	0,5	0,607500
13,241833	0,5	0,608300
13,250167	0,5	0,610100
13,258500	0,5	0,609850
13,266833	0,5	0,612800
13,275167	0,5	0,614250
13,283500	0,5	0,614700
13,291833	0,5	0,606250
13,300167	0,5	0,603550
13,308500	0,5	0,601050
13,316833	0,5	0,597400
13,325167	0,5	0,598550
13,333500	0,5	0,605600
13,341833	0,5	0,607300
13,350167	0,5	0,615600
13,358500	0,5	0,619500
13,366833	0,5	0,626550
13,375167	0,5	0,632550
13,383500	0,5	0,634450
13,391833	0,5	0,634300
13,400167	0,5	0,634400
13,408500	0,5	0,626900
13,416833	0,5	0,621900
13,425167	0,5	0,617550
13,433500	0,5	0,608900
13,441833	0,5	0,600900
13,450167	0,5	0,600100
13,458500	0,5	0,593000
13,466833	0,5	0,588750
13,475167	0,5	0,598000
13,483500	0,5	0,609250
13,491833	0,5	0,621950
13,500167	0,5	0,636650
13,508500	0,5	0,646150
13,516833	0,5	0,665150
13,525167	0,5	0,670850
13,533500	0,5	0,672800
13,541833	0,5	0,663300
13,550167	0,5	0,654100
13,558500	0,5	0,634950
13,566833	0,5	0,620000
13,575167	0,5	0,608950
13,583500	0,5	0,595500
13,591833	0,5	0,598200
13,600167	0,5	0,607600
13,608500	0,5	0,609400
13,616833	0,5	0,612100
13,625167	0,5	0,617050
13,633500	0,5	0,614450
13,641833	0,5	0,604100
13,650167	0,5	0,588600
13,658500	0,5	0,583800
13,666833	0,5	0,587550
13,675167	0,5	0,601200
13,683500	0,5	0,614900
13,691833	0,5	0,649200
13,700167	0,5	0,677600
13,708500	0,5	0,703900
13,716833	0,5	0,715450
13,725167	0,5	0,716650
13,733500	0,5	0,691950
13,741833	0,5	0,668750
13,750167	0,5	0,637600
13,758500	0,5	0,609600
13,766833	0,5	0,595750
13,775167	0,5	0,589200
13,783500	0,5	0,590700
13,791833	0,5	0,597250
13,800167	0,5	0,606850
13,808500	0,5	0,629000
13,816833	0,5	0,647000
13,825167	0,5	0,656650
13,833500	0,5	0,665050
13,841833	0,5	0,671350
13,850167	0,5	0,684800
13,858500	0,5	0,703550
13,866833	0,5	0,730250
13,875167	0,5	0,748900
13,883500	0,5	0,768500
13,891833	0,5	0,769250
13,900167	0,5	0,755250
13,908500	0,5	0,716900
13,916833	0,5	0,687000
13,925167	0,5	0,645750
13,933500	0,5	0,613200
13,941833	0,5	0,582750
13,950167	0,5	0,561150
13,958500	0,5	0,562250
13,966833	0,5	0,570150
13,975167	0,5	0,584000
13,983500	0,5	0,593300
13,991833	0,5	0,611000
14,000167	0,5	0,627850
14,008500	0,5	0,645800
14,016833	0,5	0,662600
14,025167	0,5	0,679500
14,033500	0,5	0,691350
14,041833	0,5	0,693700
14,050167	0,5	0,670000
14,058500	0,5	0,640400
14,066833	0,5	0,609600
14,075167	0,5	0,573100
14,083500	0,5	0,540000
14,091833	0,5	0,515150
14,100167	0,5	0,494050
14,108500	0,5	0,494100
14,116833	0,5	0,498000
14,125167	0,5	0,512800
14,133500	0,5	0,531350
14,141833	0,5	0,548750
14,150167	0,5	0,563200
14,158500	0,5	0,573150
14,166833	0,5	0,576850
14,175167	0,5	0,564250
14,183500	0,5	0,554200
14,191833	0,5	0,531150
14,200167	0,5	0,504400
14,208500	0,5	0,480650
14,216833	0,5	0,462350
14,225167	0,5	0,443400
14,233500	0,5	0,429850
14,241833	0,5	0,412550
14,250167	0,5	0,416350
14,258500	0,5	0,422200
14,266833	0,5	0,436850
14,275167	0,5	0,441300
14,283500	0,5	0,451800
14,291833	0,5	0,461800
14,300167	0,5	0,465700
14,308500	0,5	0,457750
14,316833	0,5	0,448450
14,325167	0,5	0,437850
14,333500	0,5	0,426200
14,341833	0,5	0,415550
14,350167	0,5	0,404550
14,358500	0,5	0,406750
14,366833	0,5	0,408550
14,375167	0,5	0,404400
14,383500	0,5	0,403150
14,391833	0,5	0,403300
14,400167	0,5	0,405050
14,408500	0,5	0,409250
14,416833	0,5	0,406100
14,425167	0,5	0,402850
14,433500	0,5	0,395550
14,441833	0,5	0,390750
14,450167	0,5	0,381000
14,458500	0,5	0,372600
14,466833	0,5	0,366300
14,475167	0,5	0,362800
14,483500	0,5	0,369000
14,491833	0,5	0,365400
14,500167	0,5	0,357800
14,508500	0,5	0,363400
14,516833	0,5	0,365050
14,525167	0,5	0,358000
14,533500	0,5	0,347450
14,541833	0,5	0,342650
14,550167	0,5	0,346550
14,558500	0,5	0,342200
14,566833	0,5	0,342650
14,575167	0,5	0,340000
14,583500	0,5	0,343000
14,591833	0,5	0,342900
14,600167	0,5	0,347050
14,608500	0,5	0,345150
14,616833	0,5	0,344800
14,625167	0,5	0,343000
14,633500	0,5	0,344100
14,641833	0,5	0,328900
14,650167	0,5	0,329550
14,658500	0,5	0,325550
14,666833	0,5	0,316750
14,675167	0,5	0,309050
14,683500	0,5	0,294650
14,691833	0,5	0,296800
14,700167	0,5	0,296450
14,708500	0,5	0,298000
14,716833	0,5	0,292900
14,725167	0,5	0,300300
14,733500	0,5	0,297500
14,741833	0,5	0,300850
14,750167	0,5	0,293650
14,758500	0,5	0,288150
14,766833	0,5	0,277550
14,775167	0,5	0,275850
14,783500	0,5	0,273650
14,791833	0,5	0,259750
14,800167	0,5	0,266400
14,808500	0,5	0,267600
14,816833	0,5	0,267650
14,825167	0,5	0,270800
14,833500	0,5	0,262600
14,841833	0,5	0,269850
14,850167	0,5	0,270350
14,858500	0,5	0,267550
14,866833	0,5	0,259650
14,875167	0,5	0,255750
14,883500	0,5	0,252750
14,891833	0,5	0,244050
14,900167	0,5	0,245500
14,908500	0,5	0,234450
14,916833	0,5	0,235800
14,925167	0,5	0,237300
14,933500	0,5	0,240050
14,941833	0,5	0,229950
14,950167	0,5	0,237400
14,958500	0,5	0,230900
14,966833	0,5	0,226500
14,975167	0,5	0,218150
14,983500	0,5	0,206650
14,991833	0,5	0,214900
15,000167	0,5	0,214450
15,008500	0,5	0,213500
15,016833	0,5	0,217500
15,025167	0,5	0,215500
15,033500	0,5	0,216200
15,041833	0,5	0,217850
15,050167	0,5	0,221200
15,058500	0,5	0,220600
15,066833	0,5	0,214050
15,075167	0,5	0,218600
15,083500	0,5	0,211200
15,091833	0,5	0,206450
15,100167	0,5	0,206950
15,108500	0,5	0,203150
15,116833	0,5	0,197100
15,125167	0,5	0,192200
15,133500	0,5	0,190150
15,141833	0,5	0,191700
15,150167	0,5	0,192900
15,158500	0,5	0,195000
15,166833	0,5	0,196250
15,175167	0,5	0,203200
15,183500	0,5	0,205800
15,191833	0,5	0,206200
15,200167	0,5	0,204350
15,208500	0,5	0,199750
15,216833	0,5	0,199750
15,225167	0,5	0,197950
15,233500	0,5	0,187150
15,241833	0,5	0,191800
15,250167	0,5	0,198900
15,258500	0,5	0,194100
15,266833	0,5	0,190850
15,275167	0,5	0,188750
15,283500	0,5	0,191150
15,291833	0,5	0,199100
15,300167	0,5	0,200750
15,308500	0,5	0,196250
15,316833	0,5	0,194750
15,325167	0,5	0,195050
15,333500	0,5	0,199100
15,341833	0,5	0,201600
15,350167	0,5	0,204300
15,358500	0,5	0,205400
15,366833	0,5	0,210350
15,375167	0,5	0,208100
15,383500	0,5	0,207300
15,391833	0,5	0,213050
15,400167	0,5	0,212650
15,408500	0,5	0,214150
15,416833	0,5	0,208200
15,425167	0,5	0,208750
15,433500	0,5	0,212250
15,441833	0,5	0,218250
15,450167	0,5	0,214100
15,458500	0,5	0,215650
15,466833	0,5	0,212900
15,475167	0,5	0,210500
15,483500	0,5	0,210300
15,491833	0,5	0,212400
15,500167	0,5	0,204500
15,508500	0,5	0,195600
15,516833	0,5	0,195600
15,525167	0,5	0,185450
15,533500	0,5	0,192350
15,541833	0,5	0,198600
15,550167	0,5	0,196000
15,558500	0,5	0,193400
15,566833	0,5	0,186850
15,575167	0,5	0,189200
15,583500	0,5	0,193950
15,591833	0,5	0,189200
15,600167	0,5	0,191950
15,608500	0,5	0,187850
15,616833	0,5	0,193900
15,625167	0,5	0,192200
15,633500	0,5	0,197550
15,641833	0,5	0,198800
15,650167	0,5	0,195550
15,658500	0,5	0,201250
15,666833	0,5	0,201050
15,675167	0,5	0,182800
15,683500	0,5	0,188550
15,691833	0,5	0,183350
15,700167	0,5	0,175650
15,708500	0,5	0,167000
15,716833	0,5	0,151400
15,725167	0,5	0,162250
15,733500	0,5	0,156750
15,741833	0,5	0,161650
15,750167	0,5	0,153850
15,758500	0,5	0,161700
15,766833	0,5	0,162450
15,775167	0,5	0,170200
15,783500	0,5	0,168300
15,791833	0,5	0,171450
15,800167	0,5	0,171350
15,808500	0,5	0,172000
15,816833	0,5	0,169850
15,825167	0,5	0,167100
15,833500	0,5	0,177150
15,841833	0,5	0,178050
15,850167	0,5	0,173500
15,858500	0,5	0,175750
15,866833	0,5	0,171000
15,875167	0,5	0,177850
15,883500	0,5	0,183650
15,891833	0,5	0,177250
15,900167	0,5	0,184250
15,908500	0,5	0,183250
15,916833	0,5	0,182300
15,925167	0,5	0,184900
15,933500	0,5	0,190050
15,941833	0,5	0,188800
15,950167	0,5	0,184350
15,958500	0,5	0,195800
15,966833	0,5	0,194200
15,975167	0,5	0,195600
15,983500	0,5	0,202900
15,991833	0,5	0,197400
16,000167	0,5	0,192050
16,008500	0,5	0,178600
16,016833	0,5	0,173850
16,025167	0,5	0,180650
16,033500	0,5	0,180150
16,041833	0,5	0,182350
16,050167	0,5	0,177050
16,058500	0,5	0,182500
16,066833	0,5	0,181600
16,075167	0,5	0,184250
16,083500	0,5	0,180300
16,091833	0,5	0,183800
16,100167	0,5	0,184650
16,108500	0,5	0,191600
16,116833	0,5	0,182250
16,125167	0,5	0,199100
16,133500	0,5	0,201700
16,141833	0,5	0,200700
16,150167	0,5	0,194050
16,158500	0,5	0,189300
16,166833	0,5	0,190550
16,175167	0,5	0,192850
16,183500	0,5	0,194200
16,191833	0,5	0,197100
16,200167	0,5	0,195250
16,208500	0,5	0,200950
16,216833	0,5	0,208900
16,225167	0,5	0,210400
16,233500	0,5	0,213050
16,241833	0,5	0,211200
16,250167	0,5	0,219750
16,258500	0,5	0,217100
16,266833	0,5	0,217250
16,275167	0,5	0,228300
16,283500	0,5	0,232850
16,291833	0,5	0,236650
16,300167	0,5	0,230850
16,308500	0,5	0,230000
16,316833	0,5	0,236900
16,325167	0,5	0,244000
16,333500	0,5	0,245150
16,341833	0,5	0,245500
16,350167	0,5	0,250950
16,358500	0,5	0,260200
16,366833	0,5	0,268050
16,375167	0,5	0,282350
16,383500	0,5	0,293100
16,391833	0,5	0,315350
16,400167	0,5	0,330300
16,408500	0,5	0,329750
16,416833	0,5	0,340000
16,425167	0,5	0,348800
16,433500	0,5	0,339100
16,441833	0,5	0,325100
16,450167	0,5	0,305250
16,458500	0,5	0,304250
16,466833	0,5	0,300800
16,475167	0,5	0,305900
16,483500	0,5	0,304750
16,491833	0,5	0,315600
16,500167	0,5	0,321400
16,508500	0,5	0,334450
16,516833	0,5	0,348350
16,525167	0,5	0,361550
16,533500	0,5	0,371600
16,541833	0,5	0,379800
16,550167	0,5	0,389250
16,558500	0,5	0,374950
16,566833	0,5	0,379950
16,575167	0,5	0,376250
16,583500	0,5	0,365600
16,591833	0,5	0,347250
16,600167	0,5	0,324550
16,608500	0,5	0,322850
16,616833	0,5	0,322550
16,625167	0,5	0,315300
16,633500	0,5	0,309550
16,641833	0,5	0,308800
16,650167	0,5	0,317100
16,658500	0,5	0,320350
16,666833	0,5	0,322850
16,675167	0,5	0,327500
16,683500	0,5	0,331450
16,691833	0,5	0,341000
16,700167	0,5	0,334200
16,708500	0,5	0,328850
16,716833	0,5	0,329750
16,725167	0,5	0,328450
16,733500	0,5	0,310900
16,741833	0,5	0,309550
16,750167	0,5	0,300950
16,758500	0,5	0,309550
16,766833	0,5	0,304200
16,775167	0,5	0,303850
16,783500	0,5	0,300450
16,791833	0,5	0,303800
16,800167	0,5	0,300500
16,808500	0,5	0,311900
16,816833	0,5	0,310900
16,825167	0,5	0,316300
16,833500	0,5	0,309350
16,841833	0,5	0,310550
16,850167	0,5	0,292850
16,858500	0,5	0,284950
16,866833	0,5	0,276700
16,875167	0,5	0,262000
16,883500	0,5	0,247200
16,891833	0,5	0,224800
16,900167	0,5	0,221250
16,908500	0,5	0,215600
16,916833	0,5	0,213050
16,925167	0,5	0,202050
16,933500	0,5	0,202100
16,941833	0,5	0,195000
16,950167	0,5	0,197400
16,958500	0,5	0,192800
16,966833	0,5	0,190300
16,975167	0,5	0,191000
16,983500	0,5	0,191600
16,991833	0,5	0,194650
17,000167	0,5	0,182050
17,008500	0,5	0,187100
17,016833	0,5	0,181100
17,025167	0,5	0,177600
17,033500	0,5	0,162900
17,041833	0,5	0,151000
17,050167	0,5	0,149950
17,058500	0,5	0,151100
17,066833	0,5	0,145250
17,075167	0,5	0,146150
17,083500	0,5	0,139300
17,091833	0,5	0,141000
17,100167	0,5	0,137300
17,108500	0,5	0,139150
17,116833	0,5	0,133700
17,125167	0,5	0,130350
17,133500	0,5	0,134000
17,141833	0,5	0,134150
17,150167	0,5	0,127250
17,158500	0,5	0,136100
17,166833	0,5	0,130600
17,175167	0,5	0,130100
17,183500	0,5	0,114450
17,191833	0,5	0,107750
17,200167	0,5	0,113250
17,208500	0,5	0,108750
17,216833	0,5	0,113000
17,225167	0,5	0,104950
17,233500	0,5	0,106600
17,241833	0,5	0,105100
17,250167	0,5	0,109250
17,258500	0,5	0,106450
17,266833	0,5	0,103400
17,275167	0,5	0,105300
17,283500	0,5	0,106950
17,291833	0,5	0,096200
17,300167	0,5	0,101150
17,308500	0,5	0,099900
17,316833	0,5	0,097950
17,325167	0,5	0,084650
17,333500	0,5	0,070700
17,341833	0,5	0,071550
17,350167	0,5	0,068200
17,358500	0,5	0,068400
17,366833	0,5	0,065050
17,375167	0,5	0,064450
17,383500	0,5	0,060200
17,391833	0,5	0,058950
17,400167	0,5	0,051450
17,408500	0,5	0,049350
17,416833	0,5	0,042800
17,425167	0,5	0,045700
17,433500	0,5	0,038350
17,441833	0,5	0,035550
17,450167	0,5	0,034000
17,458500	0,5	0,035200
17,466833	0,5	0,030000
17,475167	0,5	0,021100
17,483500	0,5	0,005750
17,491833	0,5	0,009550
17,500167	0,5	0,008200
17,508500	0,5	0,006250
17,516833	0,5	0,003400
17,525167	0,5	0,001700
17,533500	0,5	0,003200
17,541833	0,5	0,004050
17,550167	0,5	0,006300
17,558500	0,5	0,005950
17,566833	0,5	0,003250
17,575167	0,5	0,000750
17,583500	0,5	-0,007300
17,591833	0,5	-0,006050
17,600167	0,5	-0,002850
17,608500	0,5	-0,005600
17,616833	0,5	-0,008450
17,625167	0,5	-0,023300
17,633500	0,5	-0,021300
17,641833	0,5	-0,017900
17,650167	0,5	-0,014650
17,658500	0,5	-0,021700
17,666833	0,5	-0,017300
17,675167	0,5	-0,022000
17,683500	0,5	-0,019100
17,691833	0,5	-0,018900
17,700167	0,5	-0,024000
17,708500	0,5	-0,022500
17,716833	0,5	-0,028750
17,725167	0,5	-0,016900
17,733500	0,5	-0,031950
17,741833	0,5	-0,022700
17,750167	0,5	-0,018850
17,758500	0,5	-0,018000
17,766833	0,5	-0,024450
17,775167	0,5	-0,037900
17,783500	0,5	-0,031950
17,791833	0,5	-0,025800
17,800167	0,5	-0,029450
17,808500	0,5	-0,032500
17,816833	0,5	-0,040200
17,825167	0,5	-0,039200
17,833500	0,5	-0,037900
17,841833	0,5	-0,041200
17,850167	0,5	-0,041100
17,858500	0,5	-0,044150
17,866833	0,5	-0,037300
17,875167	0,5	-0,037100
17,883500	0,5	-0,048950
17,891833	0,5	-0,044600
17,900167	0,5	-0,051650
17,908500	0,5	-0,058600
17,916833	0,5	-0,064750
17,925167	0,5	-0,081200
17,933500	0,5	-0,071050
17,941833	0,5	-0,073700
17,950167	0,5	-0,075350
17,958500	0,5	-0,079750
17,966833	0,5	-0,074150
17,975167	0,5	-0,080500
17,983500	0,5	-0,079850
17,991833	0,5	-0,083450
18,000167	0,5	-0,087750
18,008500	0,5	-0,090150
18,016833	0,5	-0,087650
18,025167	0,5	-0,092100
18,033500	0,5	-0,090550
18,041833	0,5	-0,086500
18,050167	0,5	-0,092150
18,058500	0,5	-0,093750
18,066833	0,5	-0,107350
18,075167	0,5	-0,110150
18,083500	0,5	-0,109750
18,091833	0,5	-0,105250
18,100167	0,5	-0,106800
18,108500	0,5	-0,106500
18,116833	0,5	-0,107700
18,125167	0,5	-0,103550
18,133500	0,5	-0,102050
18,141833	0,5	-0,099850
18,150167	0,5	-0,097900
18,158500	0,5	-0,089950
18,166833	0,5	-0,086750
18,175167	0,5	-0,086550
18,183500	0,5	-0,079850
18,191833	0,5	-0,073650
18,200167	0,5	-0,073650
18,208500	0,5	-0,082900
18,216833	0,5	-0,084000
18,225167	0,5	-0,082200
18,233500	0,5	-0,068150
18,241833	0,5	-0,063500
18,250167	0,5	-0,055550
18,258500	0,5	-0,053750
18,266833	0,5	-0,041450
18,275167	0,5	-0,038450
18,283500	0,5	-0,030650
18,291833	0,5	-0,024450
18,300167	0,5	-0,019050
18,308500	0,5	-0,013900
18,316833	0,5	-0,011200
18,325167	0,5	-0,010400
18,333500	0,5	0,006600
18,341833	0,5	0,013550
18,350167	0,5	0,016350
18,358500	0,5	0,011950
18,366833	0,5	0,009100
18,375167	0,5	0,022850
18,383500	0,5	0,029800
18,391833	0,5	0,036400
18,400167	0,5	0,038500
18,408500	0,5	0,042700
18,416833	0,5	0,048500
18,425167	0,5	0,058450
18,433500	0,5	0,064050
18,441833	0,5	0,073450
18,450167	0,5	0,079400
18,458500	0,5	0,093500
18,466833	0,5	0,082450
18,475167	0,5	0,092950
18,483500	0,5	0,092600
18,491833	0,5	0,093200
18,500167	0,5	0,084550
18,508500	0,5	0,069100
18,516833	0,5	0,076750
18,525167	0,5	0,075250
18,533500	0,5	0,079250
18,541833	0,5	0,077950
18,550167	0,5	0,081950
18,558500	0,5	0,083150
18,566833	0,5	0,084800
18,575167	0,5	0,089450
18,583500	0,5	0,094600
18,591833	0,5	0,093600
18,600167	0,5	0,101900
18,608500	0,5	0,100700
18,616833	0,5	0,091000
18,625167	0,5	0,102700
18,633500	0,5	0,108050
18,641833	0,5	0,103400
18,650167	0,5	0,101800
18,658500	0,5	0,087000
18,666833	0,5	0,092650
18,675167	0,5	0,096000
18,683500	0,5	0,091200
18,691833	0,5	0,088450
18,700167	0,5	0,081250
18,708500	0,5	0,084550
18,716833	0,5	0,080800
18,725167	0,5	0,079800
18,733500	0,5	0,074900
18,741833	0,5	0,075250
18,750167	0,5	0,070100
18,758500	0,5	0,075400
18,766833	0,5	0,063200
18,775167	0,5	0,075200
18,783500	0,5	0,069750
18,791833	0,5	0,059600
18,800167	0,5	0,044300
18,808500	0,5	0,033650
18,816833	0,5	0,043300
18,825167	0,5	0,043750
18,833500	0,5	0,040000
18,841833	0,5	0,036850
18,850167	0,5	0,034950
18,858500	0,5	0,035300
18,866833	0,5	0,034950
18,875167	0,5	0,033950
18,883500	0,5	0,033400
18,891833	0,5	0,031000
18,900167	0,5	0,034550
18,908500	0,5	0,024800
18,916833	0,5	0,024750
18,925167	0,5	0,027150
18,933500	0,5	0,024500
18,941833	0,5	0,012450
18,950167	0,5	0,004950
18,958500	0,5	-0,003100
18,966833	0,5	0,002050
18,975167	0,5	0,001000
18,983500	0,5	-0,001200
18,991833	0,5	-0,004900
19,000167	0,5	-0,002100
19,008500	0,5	-0,004050
19,016833	0,5	-0,004550
19,025167	0,5	-0,006250
19,033500	0,5	-0,009150
19,041833	0,5	-0,002300
19,050167	0,5	-0,004650
19,058500	0,5	-0,009350
19,066833	0,5	-0,004550
19,075167	0,5	-0,007200
19,083500	0,5	-0,013750
19,091833	0,5	-0,025700
19,100167	0,5	-0,037650
19,108500	0,5	-0,036450
19,116833	0,5	-0,033700
19,125167	0,5	-0,028650
19,133500	0,5	-0,033250
19,141833	0,5	-0,026800
19,150167	0,5	-0,032600
19,158500	0,5	-0,024250
19,166833	0,5	-0,024600
19,175167	0,5	-0,025150
19,183500	0,5	-0,019350
19,191833	0,5	-0,024700
19,200167	0,5	-0,026000
19,208500	0,5	-0,025150
19,216833	0,5	-0,019850
19,225167	0,5	-0,028250
19,233500	0,5	-0,027050
19,241833	0,5	-0,042900
19,250167	0,5	-0,045900
19,258500	0,5	-0,044200
19,266833	0,5	-0,039850
19,275167	0,5	-0,044850
19,283500	0,5	-0,040300
19,291833	0,5	-0,049250
19,300167	0,5	-0,044800
19,308500	0,5	-0,040050
19,316833	0,5	-0,041400
19,325167	0,5	-0,039900
19,333500	0,5	-0,041750
19,341833	0,5	-0,034350
19,350167	0,5	-0,047050
19,358500	0,5	-0,034250
19,366833	0,5	-0,031100
19,375167	0,5	-0,030600
19,383500	0,5	-0,039600
19,391833	0,5	-0,052350
19,400167	0,5	-0,052000
19,408500	0,5	-0,042700
19,416833	0,5	-0,050450
19,425167	0,5	-0,043700
19,433500	0,5	-0,045600
19,441833	0,5	-0,045400
19,450167	0,5	-0,045600
19,458500	0,5	-0,041900
19,466833	0,5	-0,043450
19,475167	0,5	-0,043500
19,483500	0,5	-0,037800
19,491833	0,5	-0,044500
19,500167	0,5	-0,051750
19,508500	0,5	-0,042350
19,516833	0,5	-0,040400
19,525167	0,5	-0,043150
19,533500	0,5	-0,049900
19,541833	0,5	-0,059500
19,550167	0,5	-0,045250
19,558500	0,5	-0,047000
19,566833	0,5	-0,046450
19,575167	0,5	-0,046450
19,583500	0,5	-0,046300
19,591833	0,5	-0,046900
19,600167	0,5	-0,040850
19,608500	0,5	-0,040900
19,616833	0,5	-0,039600
19,625167	0,5	-0,036150
19,633500	0,5	-0,032300
19,641833	0,5	-0,041250
19,650167	0,5	-0,037900
19,658500	0,5	-0,029200
19,666833	0,5	-0,033550
19,675167	0,5	-0,035600
19,683500	0,5	-0,051250
19,691833	0,5	-0,048700
19,700167	0,5	-0,048150
19,708500	0,5	-0,046700
19,716833	0,5	-0,047500
19,725167	0,5	-0,044950
19,733500	0,5	-0,045700
19,741833	0,5	-0,040650
19,750167	0,5	-0,043950
19,758500	0,5	-0,043600
19,766833	0,5	-0,044100
19,775167	0,5	-0,041050
19,783500	0,5	-0,037450
19,791833	0,5	-0,046400
19,800167	0,5	-0,032050
19,808500	0,5	-0,028300
19,816833	0,5	-0,030200
19,825167	0,5	-0,035650
19,833500	0,5	-0,045950
19,841833	0,5	-0,038150
19,850167	0,5	-0,031100
19,858500	0,5	-0,033050
19,866833	0,5	-0,029950
19,875167	0,5	-0,033700
19,883500	0,5	-0,027800
19,891833	0,5	-0,024250
19,900167	0,5	-0,018350
19,908500	0,5	-0,017350
19,916833	0,5	-0,013000
19,925167	0,5	-0,004500
19,933500	0,5	-0,003550
19,941833	0,5	-0,007600
19,950167	0,5	0,001650
19,958500	0,5	-0,000600
19,966833	0,5	-0,005000
19,975167	0,5	-0,017400
19,983500	0,5	-0,029700
19,991833	0,5	-0,017450
20,000167	0,5	-0,016750
20,008500	0,5	-0,012200
20,016833	0,5	-0,019600
20,025167	0,5	-0,010350
20,033500	0,5	-0,012150
20,041833	0,5	-0,001050
20,050167	0,5	-0,000150
20,058500	0,5	0,003350
20,066833	0,5	0,017450
20,075167	0,5	0,019300
20,083500	0,5	0,012700
20,091833	0,5	0,014700
20,100167	0,5	0,025350
20,108500	0,5	0,026750
20,116833	0,5	0,026500
20,125167	0,5	0,024900
20,133500	0,5	0,025500
20,141833	0,5	0,030050
20,150167	0,5	0,039350
20,158500	0,5	0,040550
20,166833	0,5	0,040150
20,175167	0,5	0,029600
20,183500	0,5	0,028300
20,191833	0,5	0,023050
20,200167	0,5	0,022950
20,208500	0,5	0,019950
20,216833	0,5	0,029400
20,225167	0,5	0,027100
20,233500	0,5	0,020550
20,241833	0,5	0,025900
20,250167	0,5	0,029650
20,258500	0,5	0,020000
20,266833	0,5	0,009450
20,275167	0,5	0,000050
20,283500	0,5	0,001750
20,291833	0,5	0,008500
20,300167	0,5	0,003750
20,308500	0,5	0,006000
20,316833	0,5	0,005450
20,325167	0,5	0,009050
20,333500	0,5	0,008500
20,341833	0,5	0,013950
20,350167	0,5	0,013100
20,358500	0,5	0,021150
20,366833	0,5	0,028150
20,375167	0,5	0,023650
20,383500	0,5	0,023850
20,391833	0,5	0,033800
20,400167	0,5	0,036100
20,408500	0,5	0,036250
20,416833	0,5	0,024850
20,425167	0,5	0,024100
20,433500	0,5	0,038600
20,441833	0,5	0,042950
20,450167	0,5	0,048900
20,458500	0,5	0,052450
20,466833	0,5	0,059050
20,475167	0,5	0,064200
20,483500	0,5	0,075850
20,491833	0,5	0,073300
20,500167	0,5	0,083400
20,508500	0,5	0,095350
20,516833	0,5	0,106200
20,525167	0,5	0,091300
20,533500	0,5	0,097950
20,541833	0,5	0,096500
20,550167	0,5	0,094550
20,558500	0,5	0,092050
20,566833	0,5	0,082250
20,575167	0,5	0,100400
20,583500	0,5	0,100750
20,591833	0,5	0,106500
20,600167	0,5	0,112400
20,608500	0,5	0,121500
20,616833	0,5	0,125450
20,625167	0,5	0,137000
20,633500	0,5	0,146700
20,641833	0,5	0,157300
20,650167	0,5	0,163350
20,658500	0,5	0,181100
20,666833	0,5	0,190950
20,675167	0,5	0,184900
20,683500	0,5	0,192450
20,691833	0,5	0,194600
20,700167	0,5	0,188500
20,708500	0,5	0,181700
20,716833	0,5	0,179950
20,725167	0,5	0,187100
20,733500	0,5	0,195200
20,741833	0,5	0,195200
20,750167	0,5	0,202400
20,758500	0,5	0,213750
20,766833	0,5	0,219750
20,775167	0,5	0,226750
20,783500	0,5	0,237450
20,791833	0,5	0,238100
20,800167	0,5	0,261050
20,808500	0,5	0,272950
20,816833	0,5	0,272300
20,825167	0,5	0,267350
20,833500	0,5	0,268900
20,841833	0,5	0,262200
20,850167	0,5	0,253650
20,858500	0,5	0,232750
20,866833	0,5	0,240950
20,875167	0,5	0,247750
20,883500	0,5	0,253250
20,891833	0,5	0,261050
20,900167	0,5	0,267350
20,908500	0,5	0,275950
20,916833	0,5	0,285900
20,925167	0,5	0,302050
20,933500	0,5	0,310950
20,941833	0,5	0,337900
20,950167	0,5	0,362550
20,958500	0,5	0,384150
20,966833	0,5	0,378700
20,975167	0,5	0,382950
20,983500	0,5	0,375750
20,991833	0,5	0,377900
21,000167	0,5	0,369000
21,008500	0,5	0,361950
21,016833	0,5	0,373600
21,025167	0,5	0,372800
21,033500	0,5	0,378150
21,041833	0,5	0,388200
21,050167	0,5	0,392350
21,058500	0,5	0,392950
21,066833	0,5	0,404500
21,075167	0,5	0,410350
21,083500	0,5	0,420600
21,091833	0,5	0,438900
21,100167	0,5	0,457450
21,108500	0,5	0,469000
21,116833	0,5	0,468950
21,125167	0,5	0,475550
21,133500	0,5	0,476350
21,141833	0,5	0,480350
21,150167	0,5	0,479500
21,158500	0,5	0,482450
21,166833	0,5	0,499700
21,175167	0,5	0,514000
21,183500	0,5	0,532700
21,191833	0,5	0,550450
21,200167	0,5	0,564300
21,208500	0,5	0,583300
21,216833	0,5	0,604600
21,225167	0,5	0,630750
21,233500	0,5	0,653850
21,241833	0,5	0,696800
21,250167	0,5	0,729800
21,258500	0,5	0,727100
21,266833	0,5	0,722050
21,275167	0,5	0,709300
21,283500	0,5	0,690500
21,291833	0,5	0,676750
21,300167	0,5	0,664400
21,308500	0,5	0,667200
21,316833	0,5	0,670350
21,325167	0,5	0,676750
21,333500	0,5	0,687950
21,341833	0,5	0,703150
21,350167	0,5	0,721250
21,358500	0,5	0,740450
21,366833	0,5	0,763850
21,375167	0,5	0,772750
21,383500	0,5	0,793450
21,391833	0,5	0,813250
21,400167	0,5	0,827550
21,408500	0,5	0,830050
21,416833	0,5	0,833600
21,425167	0,5	0,835400
21,433500	0,5	0,845150
21,441833	0,5	0,838350
21,450167	0,5	0,857800
21,458500	0,5	0,875350
21,466833	0,5	0,900500
21,475167	0,5	0,918600
21,483500	0,5	0,930600
21,491833	0,5	0,945650
21,500167	0,5	0,955150
21,508500	0,5	0,972750
21,516833	0,5	0,986700
21,525167	0,5	1,003650
21,533500	0,5	1,043050
21,541833	0,5	1,073450
21,550167	0,5	1,081450
21,558500	0,5	1,091700
21,566833	0,5	1,099850
21,575167	0,5	1,108550
21,583500	0,5	1,112250
21,591833	0,5	1,114100
21,600167	0,5	1,131200
21,608500	0,5	1,137800
21,616833	0,5	1,146200
21,625167	0,5	1,153850
21,633500	0,5	1,165050
21,641833	0,5	1,179550
21,650167	0,5	1,197250
21,658500	0,5	1,207700
21,666833	0,5	1,237300
21,675167	0,5	1,263800
21,683500	0,5	1,296200
21,691833	0,5	1,318950
21,700167	0,5	1,322150
21,708500	0,5	1,329550
21,716833	0,5	1,345450
21,725167	0,5	1,348050
21,733500	0,5	1,360350
21,741833	0,5	1,383200
21,750167	0,5	1,409600
21,758500	0,5	1,436900
21,766833	0,5	1,461600
21,775167	0,5	1,490950
21,783500	0,5	1,519050
21,791833	0,5	1,551900
21,800167	0,5	1,580900
21,808500	0,5	1,606350
21,816833	0,5	1,631550
21,825167	0,5	1,675550
21,833500	0,5	1,709150
21,841833	0,5	1,720850
21,850167	0,5	1,732150
21,858500	0,5	1,748100
21,866833	0,5	1,757150
21,875167	0,5	1,769000
21,883500	0,5	1,775750
21,891833	0,5	1,794400
21,900167	0,5	1,794700
21,908500	0,5	1,845100
21,916833	0,5	1,871200
21,925167	0,5	1,891700
21,933500	0,5	1,913900
21,941833	0,5	1,932200
21,950167	0,5	1,959150
21,958500	0,5	1,984650
21,966833	0,5	2,014850
21,975167	0,5	2,047900
21,983500	0,5	2,076900
21,991833	0,5	2,091300
22,000167	0,5	2,124150
22,008500	0,5	2,140500
22,016833	0,5	2,172750
22,025167	0,5	2,199350
22,033500	0,5	2,231200
22,041833	0,5	2,274650
22,050167	0,5	2,316750
22,058500	0,5	2,358100
22,066833	0,5	2,394700
22,075167	0,5	2,421500
22,083500	0,5	2,443450
22,091833	0,5	2,468350
22,100167	0,5	2,485800
22,108500	0,5	2,514150
22,116833	0,5	2,552400
22,125167	0,5	2,585700
22,133500	0,5	2,607750
22,141833	0,5	2,639850
22,150167	0,5	2,672250
22,158500	0,5	2,701850
22,166833	0,5	2,721500
22,175167	0,5	2,746000
22,183500	0,5	2,783050
22,191833	0,5	2,817700
22,200167	0,5	2,857650
22,208500	0,5	2,896650
22,216833	0,5	2,947750
22,225167	0,5	2,992350
22,233500	0,5	3,045600
22,241833	0,5	3,078550
22,250167	0,5	3,125000
22,258500	0,5	3,164000
22,266833	0,5	3,205400
22,275167	0,5	3,234400
22,283500	0,5	3,299000
22,291833	0,5	3,345200
22,300167	0,5	3,393000
22,308500	0,5	3,446850
22,316833	0,5	3,494900
22,325167	0,5	3,555650
22,333500	0,5	3,609000
22,341833	0,5	3,662850
22,350167	0,5	3,713250
22,358500	0,5	3,760550
22,366833	0,5	3,801550
22,375167	0,5	3,845900
22,383500	0,5	3,886000
22,391833	0,5	3,930900
22,400167	0,5	3,977650
22,408500	0,5	4,018600
22,416833	0,5	4,059700
22,425167	0,5	4,123000
22,433500	0,5	4,187400
22,441833	0,5	4,252650
22,450167	0,5	4,311300
22,458500	0,5	4,369150
22,466833	0,5	4,428600
22,475167	0,5	4,503050
22,483500	0,5	4,579350
22,491833	0,5	4,662350
22,500167	0,5	4,728950
22,508500	0,5	4,796350
22,516833	0,5	4,875550
22,525167	0,5	4,941850
22,533500	0,5	5,016800
22,541833	0,5	5,080050
22,550167	0,5	5,145700
22,558500	0,5	5,194150
22,566833	0,5	5,268800
22,575167	0,5	5,353700
22,583500	0,5	5,419850
22,591833	0,5	5,475300
22,600167	0,5	5,521550
22,608500	0,5	5,559500
22,616833	0,5	5,605500
22,625167	0,5	5,652950
22,633500	0,5	5,694300
22,641833	0,5	5,727650
22,650167	0,5	5,758700
22,658500	0,5	5,788850
22,666833	0,5	5,812100
22,675167	0,5	5,833750
22,683500	0,5	5,839450
22,691833	0,5	5,849250
22,700167	0,5	5,800150
22,708500	0,5	5,801900
22,716833	0,5	5,773350
22,725167	0,5	5,765050
22,733500	0,5	5,713500
22,741833	0,5	5,657250
22,750167	0,5	5,576950
22,758500	0,5	5,486500
22,766833	0,5	5,402850
22,775167	0,5	5,310350
22,783500	0,5	5,206300
22,791833	0,5	5,100200
22,800167	0,5	4,993900
22,808500	0,5	4,878000
22,816833	0,5	4,750200
22,825167	0,5	4,617100
22,833500	0,5	4,476400
22,841833	0,5	4,318900
22,850167	0,5	4,110950
22,858500	0,5	3,967750
22,866833	0,5	3,817550
22,875167	0,5	3,645650
22,883500	0,5	3,464650
22,891833	0,5	3,276950
22,900167	0,5	3,096100
22,908500	0,5	2,913050
22,916833	0,5	2,723550
22,925167	0,5	2,537150
22,933500	0,5	2,360400
22,941833	0,5	2,181900
22,950167	0,5	2,008200
22,958500	0,5	1,842050
22,966833	0,5	1,678950
22,975167	0,5	1,515750
22,983500	0,5	1,366050
22,991833	0,5	1,234150
23,000167	0,5	1,076750
23,008500	0,5	0,934400
23,016833	0,5	0,765650
23,025167	0,5	0,620400
23,033500	0,5	0,499250
23,041833	0,5	0,374950
23,050167	0,5	0,262200
23,058500	0,5	0,144600
23,066833	0,5	0,031000
23,075167	0,5	-0,074000
23,083500	0,5	-0,169850
23,091833	0,5	-0,261900
23,100167	0,5	-0,353550
23,108500	0,5	-0,436100
23,116833	0,5	-0,525650
23,125167	0,5	-0,597100
23,133500	0,5	-0,674300
23,141833	0,5	-0,724350
23,150167	0,5	-0,785850
23,158500	0,5	-0,865300
23,166833	0,5	-0,959900
23,175167	0,5	-1,012350
23,183500	0,5	-1,073100
23,191833	0,5	-1,110750
23,200167	0,5	-1,153550
23,208500	0,5	-1,199700
23,216833	0,5	-1,245700
23,225167	0,5	-1,280000
23,233500	0,5	-1,316900
23,241833	0,5	-1,346500
23,250167	0,5	-1,374850
23,258500	0,5	-1,405450
23,266833	0,5	-1,428600
23,275167	0,5	-1,458100
23,283500	0,5	-1,456400
23,291833	0,5	-1,500450
23,300167	0,5	-1,510900
23,308500	0,5	-1,525900
23,316833	0,5	-1,574100
23,325167	0,5	-1,599950
23,333500	0,5	-1,608300
23,341833	0,5	-1,612750
23,350167	0,5	-1,621800
23,358500	0,5	-1,638500
23,366833	0,5	-1,643700
23,375167	0,5	-1,646250
23,383500	0,5	-1,647550
23,391833	0,5	-1,648450
23,400167	0,5	-1,644400
23,408500	0,5	-1,653050
23,416833	0,5	-1,648550
23,425167	0,5	-1,644800
23,433500	0,5	-1,669400
23,441833	0,5	-1,668100
23,450167	0,5	-1,641650
23,458500	0,5	-1,626650
23,466833	0,5	-1,645200
23,475167	0,5	-1,645300
23,483500	0,5	-1,650800
23,491833	0,5	-1,640300
23,500167	0,5	-1,640450
23,508500	0,5	-1,637400
23,516833	0,5	-1,636350
23,525167	0,5	-1,625700
23,533500	0,5	-1,619600
23,541833	0,5	-1,610100
23,550167	0,5	-1,605600
23,558500	0,5	-1,593700
23,566833	0,5	-1,587400
23,575167	0,5	-1,576000
23,583500	0,5	-1,658250
23,591833	0,5	-1,608400
23,600167	0,5	-1,564900
23,608500	0,5	-1,535950
23,616833	0,5	-1,532300
23,625167	0,5	-1,529400
23,633500	0,5	-1,522450
23,641833	0,5	-1,514250
23,650167	0,5	-1,508400
23,658500	0,5	-1,497950
23,666833	0,5	-1,489950
23,675167	0,5	-1,480950
23,683500	0,5	-1,472250
23,691833	0,5	-1,460900
23,700167	0,5	-1,450200
23,708500	0,5	-1,440650
23,716833	0,5	-1,429750
23,725167	0,5	-1,479750
23,733500	0,5	-1,516350
23,741833	0,5	-1,467800
23,750167	0,5	-1,416150
23,758500	0,5	-1,380400
23,766833	0,5	-1,372850
23,775167	0,5	-1,362900
23,783500	0,5	-1,356850
23,791833	0,5	-1,349100
23,800167	0,5	-1,328450
23,808500	0,5	-1,317600
23,816833	0,5	-1,300550
23,825167	0,5	-1,291050
23,833500	0,5	-1,277750
23,841833	0,5	-1,268100
23,850167	0,5	-1,249350
23,858500	0,5	-1,239750
23,866833	0,5	-1,228600
23,875167	0,5	-1,350850
23,883500	0,5	-1,311200
23,891833	0,5	-1,275900
23,900167	0,5	-1,211650
23,908500	0,5	-1,189650
23,916833	0,5	-1,171750
23,925167	0,5	-1,167600
23,933500	0,5	-1,165350
23,941833	0,5	-1,149500
23,950167	0,5	-1,133900
23,958500	0,5	-1,118750
23,966833	0,5	-1,104900
23,975167	0,5	-1,089650
23,983500	0,5	-1,079100
23,991833	0,5	-1,058450
24,000167	0,5	-1,044500
24,008500	0,5	-1,028950
24,016833	0,5	-1,037050
24,025167	0,5	-1,127100
24,033500	0,5	-1,084600
24,041833	0,5	-1,031100
24,050167	0,5	-0,987700
24,058500	0,5	-0,960200
24,066833	0,5	-0,953000
24,075167	0,5	-0,952700
24,083500	0,5	-0,946900
24,091833	0,5	-0,933300
24,100167	0,5	-0,915650
24,108500	0,5	-0,903000
24,116833	0,5	-0,893150
24,125167	0,5	-0,877450
24,133500	0,5	-0,864100
24,141833	0,5	-0,849350
24,150167	0,5	-0,833150
24,158500	0,5	-0,824800
24,166833	0,5	-0,875650
24,175167	0,5	-0,910250
24,183500	0,5	-0,865500
24,191833	0,5	-0,823850
24,200167	0,5	-0,783400
24,208500	0,5	-0,766850
24,216833	0,5	-0,752350
24,225167	0,5	-0,752200
24,233500	0,5	-0,741700
24,241833	0,5	-0,728900
24,250167	0,5	-0,712050
24,258500	0,5	-0,702550
24,266833	0,5	-0,689800
24,275167	0,5	-0,685050
24,283500	0,5	-0,670550
24,291833	0,5	-0,655850
24,300167	0,5	-0,649050
24,308500	0,5	-0,636400
24,316833	0,5	-0,719800
24,325167	0,5	-0,688150
24,333500	0,5	-0,670000
24,341833	0,5	-0,629150
24,350167	0,5	-0,606350
24,358500	0,5	-0,594400
24,366833	0,5	-0,593350
24,375167	0,5	-0,597600
24,383500	0,5	-0,579050
24,391833	0,5	-0,564200
24,400167	0,5	-0,556300
24,408500	0,5	-0,544100
24,416833	0,5	-0,537500
24,425167	0,5	-0,526400
24,433500	0,5	-0,514400
24,441833	0,5	-0,503300
24,450167	0,5	-0,496600
24,458500	0,5	-0,508600
24,466833	0,5	-0,552000
24,475167	0,5	-0,536700
24,483500	0,5	-0,508850
24,491833	0,5	-0,482250
24,500167	0,5	-0,467700
24,508500	0,5	-0,462400
24,516833	0,5	-0,458350
24,525167	0,5	-0,461550
24,533500	0,5	-0,445950
24,541833	0,5	-0,444200
24,550167	0,5	-0,436100
24,558500	0,5	-0,433900
24,566833	0,5	-0,420800
24,575167	0,5	-0,417700
24,583500	0,5	-0,404950
24,591833	0,5	-0,399650
24,600167	0,5	-0,392300
24,608500	0,5	-0,432350
24,616833	0,5	-0,428600
24,625167	0,5	-0,410650
24,633500	0,5	-0,389400
24,641833	0,5	-0,368650
24,650167	0,5	-0,364700
24,658500	0,5	-0,360500
24,666833	0,5	-0,367900
24,675167	0,5	-0,360750
24,683500	0,5	-0,354000
24,691833	0,5	-0,346500
24,700167	0,5	-0,346600
24,708500	0,5	-0,338200
24,716833	0,5	-0,337700
24,725167	0,5	-0,327800
24,733500	0,5	-0,325550
24,741833	0,5	-0,319650
24,750167	0,5	-0,314400
24,758500	0,5	-0,361700
24,766833	0,5	-0,334700
24,775167	0,5	-0,326550
24,783500	0,5	-0,308100
24,791833	0,5	-0,296650
24,800167	0,5	-0,294100
24,808500	0,5	-0,289750
24,816833	0,5	-0,296000
24,825167	0,5	-0,290500
24,833500	0,5	-0,280350
24,841833	0,5	-0,279800
24,850167	0,5	-0,275900
24,858500	0,5	-0,279300
24,866833	0,5	-0,270450
24,875167	0,5	-0,269800
24,883500	0,5	-0,259950
24,891833	0,5	-0,262300
24,900167	0,5	-0,267400
24,908500	0,5	-0,287200
24,916833	0,5	-0,271350
24,925167	0,5	-0,263850
24,933500	0,5	-0,248850
24,941833	0,5	-0,249250
24,950167	0,5	-0,243450
24,958500	0,5	-0,246250
24,966833	0,5	-0,250050
24,975167	0,5	-0,244650
24,983500	0,5	-0,242050
24,991833	0,5	-0,236950
25,000167	0,5	-0,233950
25,008500	0,5	-0,229750
25,016833	0,5	-0,229050
25,025167	0,5	-0,224900
25,033500	0,5	-0,223250
25,041833	0,5	-0,221750
25,050167	0,5	-0,236350
25,058500	0,5	-0,232350
25,066833	0,5	-0,227550
25,075167	0,5	-0,217650
25,083500	0,5	-0,209700
25,091833	0,5	-0,209550
25,100167	0,5	-0,208700
25,108500	0,5	-0,213450
25,116833	0,5	-0,210800
25,125167	0,5	-0,208250
25,133500	0,5	-0,206350
25,141833	0,5	-0,202350
25,150167	0,5	-0,202500
25,158500	0,5	-0,200100
25,166833	0,5	-0,197650
25,175167	0,5	-0,196250
25,183500	0,5	-0,193300
25,191833	0,5	-0,193050
25,200167	0,5	-0,197900
25,208500	0,5	-0,195300
25,216833	0,5	-0,190300
25,225167	0,5	-0,187000
25,233500	0,5	-0,182450
25,241833	0,5	-0,184700
25,250167	0,5	-0,185950
25,258500	0,5	-0,187050
25,266833	0,5	-0,186550
25,275167	0,5	-0,183550
25,283500	0,5	-0,182650
25,291833	0,5	-0,181800
25,300167	0,5	-0,180200
25,308500	0,5	-0,182200
25,316833	0,5	-0,180000
25,325167	0,5	-0,177500
25,333500	0,5	-0,177050
25,341833	0,5	-0,176700
25,350167	0,5	-0,176600
25,358500	0,5	-0,172950
25,366833	0,5	-0,170500
25,375167	0,5	-0,171150
25,383500	0,5	-0,169700
25,391833	0,5	-0,168600
25,400167	0,5	-0,169350
25,408500	0,5	-0,167050
25,416833	0,5	-0,172050
25,425167	0,5	-0,172850
25,433500	0,5	-0,171200
25,441833	0,5	-0,172250
25,450167	0,5	-0,169700
25,458500	0,5	-0,170650
25,466833	0,5	-0,171250
25,475167	0,5	-0,168300
25,483500	0,5	-0,170000
25,491833	0,5	-0,168400
25,500167	0,5	-0,165600
25,508500	0,5	-0,162100
25,516833	0,5	-0,162500
25,525167	0,5	-0,160950
25,533500	0,5	-0,158800
25,541833	0,5	-0,160850
25,550167	0,5	-0,161450
25,558500	0,5	-0,159300
25,566833	0,5	-0,160800
25,575167	0,5	-0,158500
25,583500	0,5	-0,160200
25,591833	0,5	-0,162050
25,600167	0,5	-0,161650
25,608500	0,5	-0,162550
25,616833	0,5	-0,160950
25,625167	0,5	-0,160400
25,633500	0,5	-0,159450
25,641833	0,5	-0,156900
25,650167	0,5	-0,153750
25,658500	0,5	-0,152750
25,666833	0,5	-0,157950
25,675167	0,5	-0,156800
25,683500	0,5	-0,157750
25,691833	0,5	-0,156250
25,700167	0,5	-0,152750
25,708500	0,5	-0,152100
25,716833	0,5	-0,155050
25,725167	0,5	-0,151450
25,733500	0,5	-0,150150
25,741833	0,5	-0,153000
25,750167	0,5	-0,148450
25,758500	0,5	-0,150750
25,766833	0,5	-0,151050
25,775167	0,5	-0,152450
25,783500	0,5	-0,149050
25,791833	0,5	-0,142650
25,800167	0,5	-0,147600
25,808500	0,5	-0,145200
25,816833	0,5	-0,150200
25,825167	0,5	-0,148600
25,833500	0,5	-0,149550
25,841833	0,5	-0,147100
25,850167	0,5	-0,144950
25,858500	0,5	-0,143100
25,866833	0,5	-0,141550
25,875167	0,5	-0,139650
25,883500	0,5	-0,140950
25,891833	0,5	-0,142000
25,900167	0,5	-0,143400
25,908500	0,5	-0,139950
25,916833	0,5	-0,139900
25,925167	0,5	-0,141950
25,933500	0,5	-0,138150
25,941833	0,5	-0,134500
25,950167	0,5	-0,136800
25,958500	0,5	-0,135300
25,966833	0,5	-0,141450
25,975167	0,5	-0,138150
25,983500	0,5	-0,137450
25,991833	0,5	-0,132500
26,000167	0,5	-0,128600
