File Path	chrom://chromeleon01/ikbm_chromeleon/2022/ICS-5000/ED1/Esteban/20220612_Cell_7_4_eg.seq/517.smp/ED_1.channel/ED_1.chm
Channel	ED_1

Injection Information:
Data Vault	ikbm_chromeleon
Injection	7_24h-EGS-pH6-Std0.005_2
Injection Number	53
Position	RA7
Comment	
Processing Method	Stop sequence after Cell Death
Instrument Method	ICS5000_PA200_FullNative_Ox_26min_ED1
Type	Unknown
Status	Finished
Injection Date	13.06.2022
Injection Time	16:49:22
Injection Volume (µl)	5,0
Dilution Factor	1,0000
Weight	1,0000

Chromatogram Data Information:
Time Min. (min)	0,000333
Time Max. (min)	26,000333
Data Points	3121
Detector	EDet1
Generating Data System	Chromeleon 7.2.9.11323
Exporting Data System	Chromeleon 7.2.9.0
Operator	Instrument Controller
Signal Quantity	
Signal Unit	nC
Signal Min.	-2,169700
Signal Max.	140,534702
Channel	ED_1
Driver Name	DC-5000
Channel Type	Evaluation
Min. Step (s)	0,5
Max. Step (s)	0,5
Average Step (s)	0,5

Signal Parameter Information:
Signal Info	

Chromatogram Data:
Time (min)	Step (s)	Value (nC)
0,000333	n.a.	-0,018200
0,008667	0,5	-0,034950
0,017000	0,5	-0,029100
0,025333	0,5	-0,019950
0,033667	0,5	-0,012300
0,042000	0,5	0,000250
0,050333	0,5	-0,004950
0,058667	0,5	0,003600
0,067000	0,5	-0,001700
0,075333	0,5	-0,002850
0,083667	0,5	0,000150
0,092000	0,5	-0,001800
0,100333	0,5	-0,002400
0,108667	0,5	-0,010150
0,117000	0,5	0,018150
0,125333	0,5	-0,002150
0,133667	0,5	-0,014300
0,142000	0,5	-0,012600
0,150333	0,5	-0,007350
0,158667	0,5	0,014950
0,167000	0,5	0,020650
0,175333	0,5	0,010500
0,183667	0,5	0,019900
0,192000	0,5	0,007950
0,200333	0,5	0,019150
0,208667	0,5	0,011900
0,217000	0,5	0,011950
0,225333	0,5	0,002500
0,233667	0,5	0,003900
0,242000	0,5	0,003300
0,250333	0,5	-0,014400
0,258667	0,5	-0,014350
0,267000	0,5	0,007000
0,275333	0,5	-0,013900
0,283667	0,5	-0,020700
0,292000	0,5	-0,004950
0,300333	0,5	0,020200
0,308667	0,5	0,040000
0,317000	0,5	0,013550
0,325333	0,5	0,003300
0,333667	0,5	-0,008650
0,342000	0,5	-0,001550
0,350333	0,5	-0,009350
0,358667	0,5	-0,002050
0,367000	0,5	-0,008650
0,375333	0,5	-0,009250
0,383667	0,5	-0,012850
0,392000	0,5	-0,009400
0,400333	0,5	-0,016450
0,408667	0,5	-0,006500
0,417000	0,5	-0,006800
0,425333	0,5	-0,023350
0,433667	0,5	-0,028700
0,442000	0,5	-0,021100
0,450333	0,5	-0,012100
0,458667	0,5	0,002000
0,467000	0,5	-0,001550
0,475333	0,5	-0,009250
0,483667	0,5	-0,000900
0,492000	0,5	-0,002000
0,500333	0,5	0,001200
0,508667	0,5	-0,011300
0,517000	0,5	-0,007000
0,525333	0,5	-0,016950
0,533667	0,5	-0,009600
0,542000	0,5	-0,005700
0,550333	0,5	-0,010700
0,558667	0,5	-0,004050
0,567000	0,5	-0,007600
0,575333	0,5	-0,022200
0,583667	0,5	-0,017450
0,592000	0,5	-0,011150
0,600333	0,5	0,013150
0,608667	0,5	0,016500
0,617000	0,5	0,004400
0,625333	0,5	0,007300
0,633667	0,5	0,002700
0,642000	0,5	0,005800
0,650333	0,5	0,002500
0,658667	0,5	0,004350
0,667000	0,5	-0,003550
0,675333	0,5	0,001300
0,683667	0,5	0,006950
0,692000	0,5	0,005750
0,700333	0,5	-0,007150
0,708667	0,5	0,014150
0,717000	0,5	-0,005350
0,725333	0,5	-0,006150
0,733667	0,5	-0,009100
0,742000	0,5	0,003850
0,750333	0,5	0,017150
0,758667	0,5	0,024900
0,767000	0,5	0,020350
0,775333	0,5	0,027800
0,783667	0,5	0,028750
0,792000	0,5	0,028900
0,800333	0,5	0,025100
0,808667	0,5	0,020100
0,817000	0,5	0,020700
0,825333	0,5	0,020450
0,833667	0,5	0,022100
0,842000	0,5	0,010200
0,850333	0,5	0,018400
0,858667	0,5	0,022800
0,867000	0,5	0,014650
0,875333	0,5	0,012850
0,883667	0,5	0,014150
0,892000	0,5	0,027450
0,900333	0,5	0,049500
0,908667	0,5	0,048350
0,917000	0,5	0,052100
0,925333	0,5	0,043950
0,933667	0,5	0,049100
0,942000	0,5	0,043750
0,950333	0,5	0,044050
0,958667	0,5	0,040100
0,967000	0,5	0,042300
0,975333	0,5	0,050650
0,983667	0,5	0,036700
0,992000	0,5	0,036400
1,000333	0,5	0,045200
1,008667	0,5	0,043300
1,017000	0,5	0,029700
1,025333	0,5	0,035200
1,033667	0,5	0,036100
1,042000	0,5	0,058550
1,050333	0,5	0,064300
1,058667	0,5	0,071800
1,067000	0,5	0,063150
1,075333	0,5	0,068350
1,083667	0,5	0,064050
1,092000	0,5	0,065600
1,100333	0,5	0,059450
1,108667	0,5	0,059750
1,117000	0,5	0,059050
1,125333	0,5	0,060400
1,133667	0,5	0,059800
1,142000	0,5	0,058200
1,150333	0,5	0,072600
1,158667	0,5	0,065050
1,167000	0,5	0,055500
1,175333	0,5	0,055600
1,183667	0,5	0,057350
1,192000	0,5	0,078400
1,200333	0,5	0,081650
1,208667	0,5	0,073600
1,217000	0,5	0,084500
1,225333	0,5	0,079300
1,233667	0,5	0,081850
1,242000	0,5	0,074150
1,250333	0,5	0,080450
1,258667	0,5	0,073550
1,267000	0,5	0,076850
1,275333	0,5	0,076300
1,283667	0,5	0,068650
1,292000	0,5	0,062250
1,300333	0,5	0,080850
1,308667	0,5	0,060600
1,317000	0,5	0,058100
1,325333	0,5	0,058450
1,333667	0,5	0,058750
1,342000	0,5	0,087100
1,350333	0,5	0,077550
1,358667	0,5	0,077100
1,367000	0,5	0,068950
1,375333	0,5	0,073800
1,383667	0,5	0,067850
1,392000	0,5	0,069550
1,400333	0,5	0,062700
1,408667	0,5	0,062450
1,417000	0,5	0,057950
1,425333	0,5	0,055700
1,433667	0,5	0,036100
1,442000	0,5	0,044050
1,450333	0,5	0,056200
1,458667	0,5	0,037750
1,467000	0,5	0,031900
1,475333	0,5	0,036100
1,483667	0,5	0,040100
1,492000	0,5	0,055150
1,500333	0,5	0,045250
1,508667	0,5	0,039700
1,517000	0,5	0,034850
1,525333	0,5	0,033200
1,533667	0,5	0,028050
1,542000	0,5	0,023300
1,550333	0,5	0,014750
1,558667	0,5	-0,013200
1,567000	0,5	-0,107900
1,575333	0,5	-0,403950
1,583667	0,5	-0,871150
1,592000	0,5	-0,848150
1,600333	0,5	1,169600
1,608667	0,5	8,354750
1,617000	0,5	27,198200
1,625333	0,5	63,685651
1,633667	0,5	109,434502
1,642000	0,5	140,402452
1,650333	0,5	140,534702
1,658667	0,5	117,374352
1,667000	0,5	88,385051
1,675333	0,5	64,029751
1,683667	0,5	46,607251
1,692000	0,5	34,944051
1,700333	0,5	27,359200
1,708667	0,5	22,546100
1,717000	0,5	19,403550
1,725333	0,5	17,077750
1,733667	0,5	15,061900
1,742000	0,5	13,362150
1,750333	0,5	11,979600
1,758667	0,5	10,966400
1,767000	0,5	10,357600
1,775333	0,5	10,219800
1,783667	0,5	10,501750
1,792000	0,5	10,938850
1,800333	0,5	11,145500
1,808667	0,5	10,927900
1,817000	0,5	10,315450
1,825333	0,5	9,558300
1,833667	0,5	8,826350
1,842000	0,5	8,208950
1,850333	0,5	7,717400
1,858667	0,5	7,356800
1,867000	0,5	7,122500
1,875333	0,5	7,030150
1,883667	0,5	7,125100
1,892000	0,5	7,293850
1,900333	0,5	7,275350
1,908667	0,5	7,017050
1,917000	0,5	6,644300
1,925333	0,5	6,349350
1,933667	0,5	6,203200
1,942000	0,5	6,234100
1,950333	0,5	6,531150
1,958667	0,5	7,064050
1,967000	0,5	7,802450
1,975333	0,5	8,673750
1,983667	0,5	9,444250
1,992000	0,5	9,666900
2,000333	0,5	9,266100
2,008667	0,5	8,613300
2,017000	0,5	8,076800
2,025333	0,5	7,791800
2,033667	0,5	7,724650
2,042000	0,5	7,804050
2,050333	0,5	8,090050
2,058667	0,5	8,571950
2,067000	0,5	8,913450
2,075333	0,5	8,812800
2,083667	0,5	8,314950
2,092000	0,5	7,746450
2,100333	0,5	7,275100
2,108667	0,5	6,981900
2,117000	0,5	6,897650
2,125333	0,5	7,119550
2,133667	0,5	7,775600
2,142000	0,5	8,795750
2,150333	0,5	9,654800
2,158667	0,5	9,815550
2,167000	0,5	9,285200
2,175333	0,5	8,547850
2,183667	0,5	7,943750
2,192000	0,5	7,508100
2,200333	0,5	7,221900
2,208667	0,5	7,062950
2,217000	0,5	6,979900
2,225333	0,5	6,953350
2,233667	0,5	6,932900
2,242000	0,5	6,936300
2,250333	0,5	6,974900
2,258667	0,5	7,039050
2,267000	0,5	7,143850
2,275333	0,5	7,323450
2,283667	0,5	7,637450
2,292000	0,5	8,079450
2,300333	0,5	8,547400
2,308667	0,5	8,826950
2,317000	0,5	8,736800
2,325333	0,5	8,345300
2,333667	0,5	7,975050
2,342000	0,5	7,729750
2,350333	0,5	7,650600
2,358667	0,5	7,664900
2,367000	0,5	7,738850
2,375333	0,5	7,872450
2,383667	0,5	8,041450
2,392000	0,5	8,281250
2,400333	0,5	8,597650
2,408667	0,5	9,007800
2,417000	0,5	9,599600
2,425333	0,5	10,465900
2,433667	0,5	11,551150
2,442000	0,5	12,555100
2,450333	0,5	13,072900
2,458667	0,5	12,975150
2,467000	0,5	12,419050
2,475333	0,5	11,777400
2,483667	0,5	11,266750
2,492000	0,5	11,011850
2,500333	0,5	11,102000
2,508667	0,5	11,651250
2,517000	0,5	12,825500
2,525333	0,5	14,883300
2,533667	0,5	17,918000
2,542000	0,5	21,687000
2,550333	0,5	25,168150
2,558667	0,5	27,000900
2,567000	0,5	26,371400
2,575333	0,5	23,773050
2,583667	0,5	20,500550
2,592000	0,5	17,760000
2,600333	0,5	16,191000
2,608667	0,5	15,993150
2,617000	0,5	17,050550
2,625333	0,5	18,825200
2,633667	0,5	20,380650
2,642000	0,5	20,927650
2,650333	0,5	20,229100
2,658667	0,5	18,557100
2,667000	0,5	16,447550
2,675333	0,5	14,361050
2,683667	0,5	12,615550
2,692000	0,5	11,298900
2,700333	0,5	10,374200
2,708667	0,5	9,730100
2,717000	0,5	9,291050
2,725333	0,5	8,974450
2,733667	0,5	8,748850
2,742000	0,5	8,580250
2,750333	0,5	8,459750
2,758667	0,5	8,395800
2,767000	0,5	8,418100
2,775333	0,5	8,571300
2,783667	0,5	8,815000
2,792000	0,5	9,072050
2,800333	0,5	9,224550
2,808667	0,5	9,163500
2,817000	0,5	8,880250
2,825333	0,5	8,452050
2,833667	0,5	7,981300
2,842000	0,5	7,585450
2,850333	0,5	7,289350
2,858667	0,5	7,106350
2,867000	0,5	7,024600
2,875333	0,5	7,095500
2,883667	0,5	7,367550
2,892000	0,5	7,926150
2,900333	0,5	8,741550
2,908667	0,5	9,628250
2,917000	0,5	10,295800
2,925333	0,5	10,464150
2,933667	0,5	10,034200
2,942000	0,5	9,215000
2,950333	0,5	8,263750
2,958667	0,5	7,405200
2,967000	0,5	6,729250
2,975333	0,5	6,225600
2,983667	0,5	5,857450
2,992000	0,5	5,574450
3,000333	0,5	5,356800
3,008667	0,5	5,170400
3,017000	0,5	5,019650
3,025333	0,5	4,882150
3,033667	0,5	4,767150
3,042000	0,5	4,664150
3,050333	0,5	4,565900
3,058667	0,5	4,478000
3,067000	0,5	4,424950
3,075333	0,5	4,361950
3,083667	0,5	4,303700
3,092000	0,5	4,263800
3,100333	0,5	4,231300
3,108667	0,5	4,211100
3,117000	0,5	4,166850
3,125333	0,5	4,100050
3,133667	0,5	4,009100
3,142000	0,5	3,910050
3,150333	0,5	3,806700
3,158667	0,5	3,704450
3,167000	0,5	3,607500
3,175333	0,5	3,520950
3,183667	0,5	3,436250
3,192000	0,5	3,375500
3,200333	0,5	3,305950
3,208667	0,5	3,249250
3,217000	0,5	3,216100
3,225333	0,5	3,176750
3,233667	0,5	3,141950
3,242000	0,5	3,131400
3,250333	0,5	3,121750
3,258667	0,5	3,118100
3,267000	0,5	3,084050
3,275333	0,5	3,029000
3,283667	0,5	2,960000
3,292000	0,5	2,886850
3,300333	0,5	2,820700
3,308667	0,5	2,757700
3,317000	0,5	2,703650
3,325333	0,5	2,657050
3,333667	0,5	2,616150
3,342000	0,5	2,576900
3,350333	0,5	2,528950
3,358667	0,5	2,484200
3,367000	0,5	2,462250
3,375333	0,5	2,402000
3,383667	0,5	2,363650
3,392000	0,5	2,329300
3,400333	0,5	2,312000
3,408667	0,5	2,300650
3,417000	0,5	2,276200
3,425333	0,5	2,251450
3,433667	0,5	2,241200
3,442000	0,5	2,225500
3,450333	0,5	2,220400
3,458667	0,5	2,206050
3,467000	0,5	2,197550
3,475333	0,5	2,187700
3,483667	0,5	2,176550
3,492000	0,5	2,168600
3,500333	0,5	2,144700
3,508667	0,5	2,139350
3,517000	0,5	2,119450
3,525333	0,5	2,089700
3,533667	0,5	2,062400
3,542000	0,5	2,042650
3,550333	0,5	2,030050
3,558667	0,5	2,024350
3,567000	0,5	1,992800
3,575333	0,5	1,979400
3,583667	0,5	1,962650
3,592000	0,5	1,958000
3,600333	0,5	1,944250
3,608667	0,5	1,942800
3,617000	0,5	1,933650
3,625333	0,5	1,935750
3,633667	0,5	1,938200
3,642000	0,5	1,935450
3,650333	0,5	1,947450
3,658667	0,5	1,981750
3,667000	0,5	2,020850
3,675333	0,5	2,077000
3,683667	0,5	2,169650
3,692000	0,5	2,298550
3,700333	0,5	2,459150
3,708667	0,5	2,622600
3,717000	0,5	2,770200
3,725333	0,5	2,873950
3,733667	0,5	2,937550
3,742000	0,5	2,929850
3,750333	0,5	2,875050
3,758667	0,5	2,762450
3,767000	0,5	2,638250
3,775333	0,5	2,508500
3,783667	0,5	2,401300
3,792000	0,5	2,310900
3,800333	0,5	2,254750
3,808667	0,5	2,224900
3,817000	0,5	2,200800
3,825333	0,5	2,183950
3,833667	0,5	2,170000
3,842000	0,5	2,155500
3,850333	0,5	2,142550
3,858667	0,5	2,110650
3,867000	0,5	2,068300
3,875333	0,5	2,033500
3,883667	0,5	1,998900
3,892000	0,5	1,972750
3,900333	0,5	1,947450
3,908667	0,5	1,933050
3,917000	0,5	1,916950
3,925333	0,5	1,915550
3,933667	0,5	1,910300
3,942000	0,5	1,912800
3,950333	0,5	1,929000
3,958667	0,5	1,950450
3,967000	0,5	1,963950
3,975333	0,5	1,999650
3,983667	0,5	2,036800
3,992000	0,5	2,092050
4,000333	0,5	2,134200
4,008667	0,5	2,158050
4,017000	0,5	2,165700
4,025333	0,5	2,149450
4,033667	0,5	2,125350
4,042000	0,5	2,087450
4,050333	0,5	2,041500
4,058667	0,5	1,993900
4,067000	0,5	1,956450
4,075333	0,5	1,921950
4,083667	0,5	1,891950
4,092000	0,5	1,866850
4,100333	0,5	1,873100
4,108667	0,5	1,860400
4,117000	0,5	1,858900
4,125333	0,5	1,867050
4,133667	0,5	1,888400
4,142000	0,5	1,922950
4,150333	0,5	1,946050
4,158667	0,5	1,961300
4,167000	0,5	1,979100
4,175333	0,5	1,980900
4,183667	0,5	1,974750
4,192000	0,5	1,959550
4,200333	0,5	1,933600
4,208667	0,5	1,904600
4,217000	0,5	1,871800
4,225333	0,5	1,845800
4,233667	0,5	1,809950
4,242000	0,5	1,787200
4,250333	0,5	1,786850
4,258667	0,5	1,762650
4,267000	0,5	1,750750
4,275333	0,5	1,746400
4,283667	0,5	1,745450
4,292000	0,5	1,763050
4,300333	0,5	1,757100
4,308667	0,5	1,764200
4,317000	0,5	1,765150
4,325333	0,5	1,770850
4,333667	0,5	1,775100
4,342000	0,5	1,782450
4,350333	0,5	1,781700
4,358667	0,5	1,785650
4,367000	0,5	1,789200
4,375333	0,5	1,791050
4,383667	0,5	1,789350
4,392000	0,5	1,792800
4,400333	0,5	1,808450
4,408667	0,5	1,804950
4,417000	0,5	1,809900
4,425333	0,5	1,821300
4,433667	0,5	1,838550
4,442000	0,5	1,864200
4,450333	0,5	1,871800
4,458667	0,5	1,882000
4,467000	0,5	1,907350
4,475333	0,5	1,935600
4,483667	0,5	1,982650
4,492000	0,5	2,045550
4,500333	0,5	2,127250
4,508667	0,5	2,229850
4,517000	0,5	2,347150
4,525333	0,5	2,472150
4,533667	0,5	2,572950
4,542000	0,5	2,652900
4,550333	0,5	2,694450
4,558667	0,5	2,673100
4,567000	0,5	2,615850
4,575333	0,5	2,523850
4,583667	0,5	2,405500
4,592000	0,5	2,281600
4,600333	0,5	2,138600
4,608667	0,5	2,009450
4,617000	0,5	1,891300
4,625333	0,5	1,795850
4,633667	0,5	1,712200
4,642000	0,5	1,644550
4,650333	0,5	1,586900
4,658667	0,5	1,544950
4,667000	0,5	1,513850
4,675333	0,5	1,486800
4,683667	0,5	1,461250
4,692000	0,5	1,457050
4,700333	0,5	1,434350
4,708667	0,5	1,416600
4,717000	0,5	1,399050
4,725333	0,5	1,394150
4,733667	0,5	1,393250
4,742000	0,5	1,383000
4,750333	0,5	1,374350
4,758667	0,5	1,363900
4,767000	0,5	1,354600
4,775333	0,5	1,344150
4,783667	0,5	1,338200
4,792000	0,5	1,326350
4,800333	0,5	1,320350
4,808667	0,5	1,311400
4,817000	0,5	1,298450
4,825333	0,5	1,274200
4,833667	0,5	1,260900
4,842000	0,5	1,250000
4,850333	0,5	1,227400
4,858667	0,5	1,203200
4,867000	0,5	1,186900
4,875333	0,5	1,178350
4,883667	0,5	1,178700
4,892000	0,5	1,167950
4,900333	0,5	1,157400
4,908667	0,5	1,148050
4,917000	0,5	1,144000
4,925333	0,5	1,139000
4,933667	0,5	1,133950
4,942000	0,5	1,129650
4,950333	0,5	1,121750
4,958667	0,5	1,123300
4,967000	0,5	1,114750
4,975333	0,5	1,101800
4,983667	0,5	1,105100
4,992000	0,5	1,100800
5,000333	0,5	1,086200
5,008667	0,5	1,080050
5,017000	0,5	1,072600
5,025333	0,5	1,079200
5,033667	0,5	1,076700
5,042000	0,5	1,074600
5,050333	0,5	1,063250
5,058667	0,5	1,059050
5,067000	0,5	1,053250
5,075333	0,5	1,049050
5,083667	0,5	1,041000
5,092000	0,5	1,038200
5,100333	0,5	1,035300
5,108667	0,5	1,035350
5,117000	0,5	1,036950
5,125333	0,5	1,031650
5,133667	0,5	1,043600
5,142000	0,5	1,040300
5,150333	0,5	1,042200
5,158667	0,5	1,049900
5,167000	0,5	1,069150
5,175333	0,5	1,099800
5,183667	0,5	1,131750
5,192000	0,5	1,158600
5,200333	0,5	1,198350
5,208667	0,5	1,232850
5,217000	0,5	1,271550
5,225333	0,5	1,291000
5,233667	0,5	1,301400
5,242000	0,5	1,295050
5,250333	0,5	1,273150
5,258667	0,5	1,247600
5,267000	0,5	1,203750
5,275333	0,5	1,160700
5,283667	0,5	1,136300
5,292000	0,5	1,092750
5,300333	0,5	1,064150
5,308667	0,5	1,043300
5,317000	0,5	1,028450
5,325333	0,5	1,032400
5,333667	0,5	1,022650
5,342000	0,5	1,026350
5,350333	0,5	1,027600
5,358667	0,5	1,041850
5,367000	0,5	1,049300
5,375333	0,5	1,064750
5,383667	0,5	1,068000
5,392000	0,5	1,075500
5,400333	0,5	1,074500
5,408667	0,5	1,068500
5,417000	0,5	1,047550
5,425333	0,5	1,031550
5,433667	0,5	1,014400
5,442000	0,5	0,979850
5,450333	0,5	0,954850
5,458667	0,5	0,931550
5,467000	0,5	0,913700
5,475333	0,5	0,906000
5,483667	0,5	0,890950
5,492000	0,5	0,874950
5,500333	0,5	0,866700
5,508667	0,5	0,855050
5,517000	0,5	0,849450
5,525333	0,5	0,839700
5,533667	0,5	0,829700
5,542000	0,5	0,822250
5,550333	0,5	0,819000
5,558667	0,5	0,815350
5,567000	0,5	0,807450
5,575333	0,5	0,802250
5,583667	0,5	0,798300
5,592000	0,5	0,780400
5,600333	0,5	0,775000
5,608667	0,5	0,768350
5,617000	0,5	0,772650
5,625333	0,5	0,774250
5,633667	0,5	0,761100
5,642000	0,5	0,755350
5,650333	0,5	0,749250
5,658667	0,5	0,742000
5,667000	0,5	0,733600
5,675333	0,5	0,729050
5,683667	0,5	0,721250
5,692000	0,5	0,715600
5,700333	0,5	0,709350
5,708667	0,5	0,707600
5,717000	0,5	0,695600
5,725333	0,5	0,696550
5,733667	0,5	0,687000
5,742000	0,5	0,676850
5,750333	0,5	0,673000
5,758667	0,5	0,669150
5,767000	0,5	0,672100
5,775333	0,5	0,671500
5,783667	0,5	0,667150
5,792000	0,5	0,661200
5,800333	0,5	0,654150
5,808667	0,5	0,651950
5,817000	0,5	0,643800
5,825333	0,5	0,637200
5,833667	0,5	0,630950
5,842000	0,5	0,630100
5,850333	0,5	0,627550
5,858667	0,5	0,615800
5,867000	0,5	0,620800
5,875333	0,5	0,618100
5,883667	0,5	0,616550
5,892000	0,5	0,614000
5,900333	0,5	0,617600
5,908667	0,5	0,619050
5,917000	0,5	0,629950
5,925333	0,5	0,630800
5,933667	0,5	0,632450
5,942000	0,5	0,628100
5,950333	0,5	0,629750
5,958667	0,5	0,625950
5,967000	0,5	0,628900
5,975333	0,5	0,622950
5,983667	0,5	0,620350
5,992000	0,5	0,618350
6,000333	0,5	0,617400
6,008667	0,5	0,620050
6,017000	0,5	0,628950
6,025333	0,5	0,640550
6,033667	0,5	0,652000
6,042000	0,5	0,670200
6,050333	0,5	0,692250
6,058667	0,5	0,721600
6,067000	0,5	0,754500
6,075333	0,5	0,779550
6,083667	0,5	0,795600
6,092000	0,5	0,821250
6,100333	0,5	0,825850
6,108667	0,5	0,830650
6,117000	0,5	0,820400
6,125333	0,5	0,811300
6,133667	0,5	0,796100
6,142000	0,5	0,774500
6,150333	0,5	0,750450
6,158667	0,5	0,720200
6,167000	0,5	0,700000
6,175333	0,5	0,669050
6,183667	0,5	0,638600
6,192000	0,5	0,612050
6,200333	0,5	0,592900
6,208667	0,5	0,587250
6,217000	0,5	0,574850
6,225333	0,5	0,558450
6,233667	0,5	0,552550
6,242000	0,5	0,539700
6,250333	0,5	0,534650
6,258667	0,5	0,526000
6,267000	0,5	0,518200
6,275333	0,5	0,513850
6,283667	0,5	0,511050
6,292000	0,5	0,511150
6,300333	0,5	0,509800
6,308667	0,5	0,508150
6,317000	0,5	0,525500
6,325333	0,5	0,520550
6,333667	0,5	0,528750
6,342000	0,5	0,534150
6,350333	0,5	0,543100
6,358667	0,5	0,558400
6,367000	0,5	0,560950
6,375333	0,5	0,561650
6,383667	0,5	0,560950
6,392000	0,5	0,562850
6,400333	0,5	0,557950
6,408667	0,5	0,553800
6,417000	0,5	0,543100
6,425333	0,5	0,544300
6,433667	0,5	0,540550
6,442000	0,5	0,541350
6,450333	0,5	0,537900
6,458667	0,5	0,548600
6,467000	0,5	0,564450
6,475333	0,5	0,577100
6,483667	0,5	0,597850
6,492000	0,5	0,621100
6,500333	0,5	0,649600
6,508667	0,5	0,680350
6,517000	0,5	0,689450
6,525333	0,5	0,691350
6,533667	0,5	0,684800
6,542000	0,5	0,668500
6,550333	0,5	0,649200
6,558667	0,5	0,625550
6,567000	0,5	0,603300
6,575333	0,5	0,584450
6,583667	0,5	0,574500
6,592000	0,5	0,564500
6,600333	0,5	0,554900
6,608667	0,5	0,553200
6,617000	0,5	0,557400
6,625333	0,5	0,556750
6,633667	0,5	0,557450
6,642000	0,5	0,561000
6,650333	0,5	0,570450
6,658667	0,5	0,581600
6,667000	0,5	0,584550
6,675333	0,5	0,581700
6,683667	0,5	0,583050
6,692000	0,5	0,584250
6,700333	0,5	0,586750
6,708667	0,5	0,584700
6,717000	0,5	0,581000
6,725333	0,5	0,581250
6,733667	0,5	0,583850
6,742000	0,5	0,588450
6,750333	0,5	0,590000
6,758667	0,5	0,603150
6,767000	0,5	0,605550
6,775333	0,5	0,615750
6,783667	0,5	0,634100
6,792000	0,5	0,652450
6,800333	0,5	0,679400
6,808667	0,5	0,710050
6,817000	0,5	0,736600
6,825333	0,5	0,774950
6,833667	0,5	0,813150
6,842000	0,5	0,869750
6,850333	0,5	0,942150
6,858667	0,5	1,054200
6,867000	0,5	1,218750
6,875333	0,5	1,452900
6,883667	0,5	1,777450
6,892000	0,5	2,194500
6,900333	0,5	2,700300
6,908667	0,5	3,271200
6,917000	0,5	3,831450
6,925333	0,5	4,315150
6,933667	0,5	4,651900
6,942000	0,5	4,781950
6,950333	0,5	4,683150
6,958667	0,5	4,366550
6,967000	0,5	3,892500
6,975333	0,5	3,336650
6,983667	0,5	2,771850
6,992000	0,5	2,252550
7,000333	0,5	1,818950
7,008667	0,5	1,469250
7,017000	0,5	1,217650
7,025333	0,5	1,032500
7,033667	0,5	0,907300
7,042000	0,5	0,817350
7,050333	0,5	0,760350
7,058667	0,5	0,723550
7,067000	0,5	0,689150
7,075333	0,5	0,663550
7,083667	0,5	0,646300
7,092000	0,5	0,640950
7,100333	0,5	0,635350
7,108667	0,5	0,630450
7,117000	0,5	0,621750
7,125333	0,5	0,618500
7,133667	0,5	0,612350
7,142000	0,5	0,608000
7,150333	0,5	0,602450
7,158667	0,5	0,595250
7,167000	0,5	0,593050
7,175333	0,5	0,591900
7,183667	0,5	0,589550
7,192000	0,5	0,587550
7,200333	0,5	0,593150
7,208667	0,5	0,586300
7,217000	0,5	0,581800
7,225333	0,5	0,580350
7,233667	0,5	0,581050
7,242000	0,5	0,587050
7,250333	0,5	0,593500
7,258667	0,5	0,594200
7,267000	0,5	0,599600
7,275333	0,5	0,603900
7,283667	0,5	0,608200
7,292000	0,5	0,611300
7,300333	0,5	0,610450
7,308667	0,5	0,606650
7,317000	0,5	0,606250
7,325333	0,5	0,597450
7,333667	0,5	0,590700
7,342000	0,5	0,576250
7,350333	0,5	0,579000
7,358667	0,5	0,568700
7,367000	0,5	0,568750
7,375333	0,5	0,569700
7,383667	0,5	0,576100
7,392000	0,5	0,598600
7,400333	0,5	0,611800
7,408667	0,5	0,639950
7,417000	0,5	0,673000
7,425333	0,5	0,717700
7,433667	0,5	0,760800
7,442000	0,5	0,798800
7,450333	0,5	0,816500
7,458667	0,5	0,815500
7,467000	0,5	0,790550
7,475333	0,5	0,761750
7,483667	0,5	0,719750
7,492000	0,5	0,687050
7,500333	0,5	0,665400
7,508667	0,5	0,641650
7,517000	0,5	0,629050
7,525333	0,5	0,620350
7,533667	0,5	0,621250
7,542000	0,5	0,627700
7,550333	0,5	0,627250
7,558667	0,5	0,630650
7,567000	0,5	0,637050
7,575333	0,5	0,646700
7,583667	0,5	0,654650
7,592000	0,5	0,661700
7,600333	0,5	0,669050
7,608667	0,5	0,673100
7,617000	0,5	0,678700
7,625333	0,5	0,679250
7,633667	0,5	0,680200
7,642000	0,5	0,674550
7,650333	0,5	0,668850
7,658667	0,5	0,662500
7,667000	0,5	0,658350
7,675333	0,5	0,655000
7,683667	0,5	0,659150
7,692000	0,5	0,662150
7,700333	0,5	0,661500
7,708667	0,5	0,657650
7,717000	0,5	0,654650
7,725333	0,5	0,651400
7,733667	0,5	0,645500
7,742000	0,5	0,641600
7,750333	0,5	0,638550
7,758667	0,5	0,634300
7,767000	0,5	0,632050
7,775333	0,5	0,634650
7,783667	0,5	0,637550
7,792000	0,5	0,643250
7,800333	0,5	0,646750
7,808667	0,5	0,652000
7,817000	0,5	0,650600
7,825333	0,5	0,656700
7,833667	0,5	0,659700
7,842000	0,5	0,665800
7,850333	0,5	0,666900
7,858667	0,5	0,671350
7,867000	0,5	0,668050
7,875333	0,5	0,678200
7,883667	0,5	0,681100
7,892000	0,5	0,681600
7,900333	0,5	0,688250
7,908667	0,5	0,693650
7,917000	0,5	0,700750
7,925333	0,5	0,708900
7,933667	0,5	0,717700
7,942000	0,5	0,728850
7,950333	0,5	0,736200
7,958667	0,5	0,746200
7,967000	0,5	0,756350
7,975333	0,5	0,769350
7,983667	0,5	0,787650
7,992000	0,5	0,805450
8,000333	0,5	0,825750
8,008667	0,5	0,840350
8,017000	0,5	0,853550
8,025333	0,5	0,857350
8,033667	0,5	0,855850
8,042000	0,5	0,843550
8,050333	0,5	0,828900
8,058667	0,5	0,821300
8,067000	0,5	0,817850
8,075333	0,5	0,818300
8,083667	0,5	0,833400
8,092000	0,5	0,856650
8,100333	0,5	0,886600
8,108667	0,5	0,923950
8,117000	0,5	0,967550
8,125333	0,5	1,009050
8,133667	0,5	1,035800
8,142000	0,5	1,045400
8,150333	0,5	1,037450
8,158667	0,5	1,026550
8,167000	0,5	1,019200
8,175333	0,5	1,023200
8,183667	0,5	1,042250
8,192000	0,5	1,075700
8,200333	0,5	1,122450
8,208667	0,5	1,185750
8,217000	0,5	1,258550
8,225333	0,5	1,340150
8,233667	0,5	1,433900
8,242000	0,5	1,540500
8,250333	0,5	1,656700
8,258667	0,5	1,778100
8,267000	0,5	1,912850
8,275333	0,5	2,062500
8,283667	0,5	2,216800
8,292000	0,5	2,372400
8,300333	0,5	2,525650
8,308667	0,5	2,672250
8,317000	0,5	2,801350
8,325333	0,5	2,897150
8,333667	0,5	2,950050
8,342000	0,5	2,945400
8,350333	0,5	2,875900
8,358667	0,5	2,743650
8,367000	0,5	2,556800
8,375333	0,5	2,338250
8,383667	0,5	2,109100
8,392000	0,5	1,886550
8,400333	0,5	1,693050
8,408667	0,5	1,539900
8,417000	0,5	1,436750
8,425333	0,5	1,378100
8,433667	0,5	1,350050
8,442000	0,5	1,347400
8,450333	0,5	1,357800
8,458667	0,5	1,381100
8,467000	0,5	1,403300
8,475333	0,5	1,439300
8,483667	0,5	1,483900
8,492000	0,5	1,549000
8,500333	0,5	1,648700
8,508667	0,5	1,808900
8,517000	0,5	2,053200
8,525333	0,5	2,422800
8,533667	0,5	2,962550
8,542000	0,5	3,650900
8,550333	0,5	4,450050
8,558667	0,5	5,237750
8,567000	0,5	5,847200
8,575333	0,5	6,143500
8,583667	0,5	6,037050
8,592000	0,5	5,566900
8,600333	0,5	4,850400
8,608667	0,5	4,045650
8,617000	0,5	3,293300
8,625333	0,5	2,669900
8,633667	0,5	2,204750
8,642000	0,5	1,878750
8,650333	0,5	1,666550
8,658667	0,5	1,526350
8,667000	0,5	1,431350
8,675333	0,5	1,368800
8,683667	0,5	1,324700
8,692000	0,5	1,289050
8,700333	0,5	1,256900
8,708667	0,5	1,230350
8,717000	0,5	1,207150
8,725333	0,5	1,191350
8,733667	0,5	1,174400
8,742000	0,5	1,161200
8,750333	0,5	1,155050
8,758667	0,5	1,150450
8,767000	0,5	1,150550
8,775333	0,5	1,156300
8,783667	0,5	1,165500
8,792000	0,5	1,183800
8,800333	0,5	1,206900
8,808667	0,5	1,232150
8,817000	0,5	1,256250
8,825333	0,5	1,276250
8,833667	0,5	1,288650
8,842000	0,5	1,283950
8,850333	0,5	1,271550
8,858667	0,5	1,258900
8,867000	0,5	1,250000
8,875333	0,5	1,252200
8,883667	0,5	1,264150
8,892000	0,5	1,291350
8,900333	0,5	1,334950
8,908667	0,5	1,403500
8,917000	0,5	1,485550
8,925333	0,5	1,585800
8,933667	0,5	1,693850
8,942000	0,5	1,798750
8,950333	0,5	1,886200
8,958667	0,5	1,944300
8,967000	0,5	1,962950
8,975333	0,5	1,932450
8,983667	0,5	1,864950
8,992000	0,5	1,763650
9,000333	0,5	1,646400
9,008667	0,5	1,529650
9,017000	0,5	1,427550
9,025333	0,5	1,342300
9,033667	0,5	1,278900
9,042000	0,5	1,230900
9,050333	0,5	1,205250
9,058667	0,5	1,189900
9,067000	0,5	1,187050
9,075333	0,5	1,185700
9,083667	0,5	1,183000
9,092000	0,5	1,179300
9,100333	0,5	1,168150
9,108667	0,5	1,159600
9,117000	0,5	1,151850
9,125333	0,5	1,155900
9,133667	0,5	1,163300
9,142000	0,5	1,182850
9,150333	0,5	1,210900
9,158667	0,5	1,235500
9,167000	0,5	1,262800
9,175333	0,5	1,286250
9,183667	0,5	1,298050
9,192000	0,5	1,304000
9,200333	0,5	1,294950
9,208667	0,5	1,281050
9,217000	0,5	1,266150
9,225333	0,5	1,248300
9,233667	0,5	1,230750
9,242000	0,5	1,212200
9,250333	0,5	1,198200
9,258667	0,5	1,183150
9,267000	0,5	1,162800
9,275333	0,5	1,147350
9,283667	0,5	1,126300
9,292000	0,5	1,106550
9,300333	0,5	1,094150
9,308667	0,5	1,082750
9,317000	0,5	1,082200
9,325333	0,5	1,080700
9,333667	0,5	1,077950
9,342000	0,5	1,074200
9,350333	0,5	1,071700
9,358667	0,5	1,064550
9,367000	0,5	1,061850
9,375333	0,5	1,059150
9,383667	0,5	1,054150
9,392000	0,5	1,055750
9,400333	0,5	1,061200
9,408667	0,5	1,067200
9,417000	0,5	1,084100
9,425333	0,5	1,101650
9,433667	0,5	1,123450
9,442000	0,5	1,149150
9,450333	0,5	1,169200
9,458667	0,5	1,184900
9,467000	0,5	1,193250
9,475333	0,5	1,190200
9,483667	0,5	1,172500
9,492000	0,5	1,154950
9,500333	0,5	1,131500
9,508667	0,5	1,110700
9,517000	0,5	1,090750
9,525333	0,5	1,075450
9,533667	0,5	1,057550
9,542000	0,5	1,041550
9,550333	0,5	1,030450
9,558667	0,5	1,022050
9,567000	0,5	1,011650
9,575333	0,5	1,010750
9,583667	0,5	1,006750
9,592000	0,5	1,005700
9,600333	0,5	1,012650
9,608667	0,5	1,025650
9,617000	0,5	1,040100
9,625333	0,5	1,057400
9,633667	0,5	1,069250
9,642000	0,5	1,076300
9,650333	0,5	1,074450
9,658667	0,5	1,074150
9,667000	0,5	1,072200
9,675333	0,5	1,070800
9,683667	0,5	1,082250
9,692000	0,5	1,095500
9,700333	0,5	1,117600
9,708667	0,5	1,129200
9,717000	0,5	1,138900
9,725333	0,5	1,142700
9,733667	0,5	1,133950
9,742000	0,5	1,127300
9,750333	0,5	1,111450
9,758667	0,5	1,104550
9,767000	0,5	1,096650
9,775333	0,5	1,097450
9,783667	0,5	1,090900
9,792000	0,5	1,089200
9,800333	0,5	1,088950
9,808667	0,5	1,083800
9,817000	0,5	1,074200
9,825333	0,5	1,056950
9,833667	0,5	1,038850
9,842000	0,5	1,019500
9,850333	0,5	0,999600
9,858667	0,5	0,988200
9,867000	0,5	0,979000
9,875333	0,5	0,976900
9,883667	0,5	0,974950
9,892000	0,5	0,975750
9,900333	0,5	0,974050
9,908667	0,5	0,978950
9,917000	0,5	0,977800
9,925333	0,5	0,977600
9,933667	0,5	0,976250
9,942000	0,5	0,976800
9,950333	0,5	0,982250
9,958667	0,5	0,992450
9,967000	0,5	1,009700
9,975333	0,5	1,020200
9,983667	0,5	1,030750
9,992000	0,5	1,030550
10,000333	0,5	1,020700
10,008667	0,5	1,009000
10,017000	0,5	0,994100
10,025333	0,5	0,970150
10,033667	0,5	0,952900
10,042000	0,5	0,938000
10,050333	0,5	0,927450
10,058667	0,5	0,921850
10,067000	0,5	0,922650
10,075333	0,5	0,920500
10,083667	0,5	0,923150
10,092000	0,5	0,925500
10,100333	0,5	0,929300
10,108667	0,5	0,938500
10,117000	0,5	0,950750
10,125333	0,5	0,965100
10,133667	0,5	0,986050
10,142000	0,5	1,013900
10,150333	0,5	1,043550
10,158667	0,5	1,078700
10,167000	0,5	1,100800
10,175333	0,5	1,108150
10,183667	0,5	1,097900
10,192000	0,5	1,075650
10,200333	0,5	1,047650
10,208667	0,5	1,016200
10,217000	0,5	0,988050
10,225333	0,5	0,966400
10,233667	0,5	0,939200
10,242000	0,5	0,919150
10,250333	0,5	0,900400
10,258667	0,5	0,889050
10,267000	0,5	0,876900
10,275333	0,5	0,868850
10,283667	0,5	0,864400
10,292000	0,5	0,861150
10,300333	0,5	0,854700
10,308667	0,5	0,857600
10,317000	0,5	0,853000
10,325333	0,5	0,849600
10,333667	0,5	0,845350
10,342000	0,5	0,834400
10,350333	0,5	0,835550
10,358667	0,5	0,833900
10,367000	0,5	0,833050
10,375333	0,5	0,834400
10,383667	0,5	0,833800
10,392000	0,5	0,838650
10,400333	0,5	0,841700
10,408667	0,5	0,851500
10,417000	0,5	0,851800
10,425333	0,5	0,849600
10,433667	0,5	0,843900
10,442000	0,5	0,831300
10,450333	0,5	0,822400
10,458667	0,5	0,816600
10,467000	0,5	0,805450
10,475333	0,5	0,800900
10,483667	0,5	0,803900
10,492000	0,5	0,811450
10,500333	0,5	0,826100
10,508667	0,5	0,849750
10,517000	0,5	0,877050
10,525333	0,5	0,912550
10,533667	0,5	0,947900
10,542000	0,5	0,984000
10,550333	0,5	1,009250
10,558667	0,5	1,033350
10,567000	0,5	1,053200
10,575333	0,5	1,061050
10,583667	0,5	1,074500
10,592000	0,5	1,082600
10,600333	0,5	1,089700
10,608667	0,5	1,092950
10,617000	0,5	1,087150
10,625333	0,5	1,069200
10,633667	0,5	1,043150
10,642000	0,5	1,018950
10,650333	0,5	0,997600
10,658667	0,5	0,976300
10,667000	0,5	0,958400
10,675333	0,5	0,935300
10,683667	0,5	0,915900
10,692000	0,5	0,893300
10,700333	0,5	0,875850
10,708667	0,5	0,850300
10,717000	0,5	0,828400
10,725333	0,5	0,805750
10,733667	0,5	0,784950
10,742000	0,5	0,759850
10,750333	0,5	0,747350
10,758667	0,5	0,733000
10,767000	0,5	0,722750
10,775333	0,5	0,713000
10,783667	0,5	0,699050
10,792000	0,5	0,689050
10,800333	0,5	0,680000
10,808667	0,5	0,671150
10,817000	0,5	0,662100
10,825333	0,5	0,661500
10,833667	0,5	0,662750
10,842000	0,5	0,672900
10,850333	0,5	0,692200
10,858667	0,5	0,717700
10,867000	0,5	0,740800
10,875333	0,5	0,762350
10,883667	0,5	0,772250
10,892000	0,5	0,775900
10,900333	0,5	0,773650
10,908667	0,5	0,764350
10,917000	0,5	0,751800
10,925333	0,5	0,736300
10,933667	0,5	0,716500
10,942000	0,5	0,702600
10,950333	0,5	0,688350
10,958667	0,5	0,674850
10,967000	0,5	0,659300
10,975333	0,5	0,644500
10,983667	0,5	0,634100
10,992000	0,5	0,622550
11,000333	0,5	0,615350
11,008667	0,5	0,607850
11,017000	0,5	0,607700
11,025333	0,5	0,607400
11,033667	0,5	0,605500
11,042000	0,5	0,613000
11,050333	0,5	0,620800
11,058667	0,5	0,624050
11,067000	0,5	0,628400
11,075333	0,5	0,627750
11,083667	0,5	0,627750
11,092000	0,5	0,628950
11,100333	0,5	0,626700
11,108667	0,5	0,615300
11,117000	0,5	0,610800
11,125333	0,5	0,601650
11,133667	0,5	0,599350
11,142000	0,5	0,605650
11,150333	0,5	0,612700
11,158667	0,5	0,623250
11,167000	0,5	0,637800
11,175333	0,5	0,649000
11,183667	0,5	0,644600
11,192000	0,5	0,645800
11,200333	0,5	0,634250
11,208667	0,5	0,618950
11,217000	0,5	0,600250
11,225333	0,5	0,578500
11,233667	0,5	0,564200
11,242000	0,5	0,556050
11,250333	0,5	0,542200
11,258667	0,5	0,536150
11,267000	0,5	0,527400
11,275333	0,5	0,524800
11,283667	0,5	0,520200
11,292000	0,5	0,516750
11,300333	0,5	0,518300
11,308667	0,5	0,517400
11,317000	0,5	0,525450
11,325333	0,5	0,528150
11,333667	0,5	0,523500
11,342000	0,5	0,532700
11,350333	0,5	0,537600
11,358667	0,5	0,533900
11,367000	0,5	0,525700
11,375333	0,5	0,515550
11,383667	0,5	0,515850
11,392000	0,5	0,511100
11,400333	0,5	0,513500
11,408667	0,5	0,514650
11,417000	0,5	0,526200
11,425333	0,5	0,531700
11,433667	0,5	0,543700
11,442000	0,5	0,547000
11,450333	0,5	0,546700
11,458667	0,5	0,544700
11,467000	0,5	0,538600
11,475333	0,5	0,526150
11,483667	0,5	0,518800
11,492000	0,5	0,511000
11,500333	0,5	0,499200
11,508667	0,5	0,491750
11,517000	0,5	0,481350
11,525333	0,5	0,471950
11,533667	0,5	0,467700
11,542000	0,5	0,463200
11,550333	0,5	0,456950
11,558667	0,5	0,457400
11,567000	0,5	0,456950
11,575333	0,5	0,461550
11,583667	0,5	0,463800
11,592000	0,5	0,475500
11,600333	0,5	0,484050
11,608667	0,5	0,493450
11,617000	0,5	0,497650
11,625333	0,5	0,496450
11,633667	0,5	0,495500
11,642000	0,5	0,495300
11,650333	0,5	0,489500
11,658667	0,5	0,471900
11,667000	0,5	0,457050
11,675333	0,5	0,445250
11,683667	0,5	0,441550
11,692000	0,5	0,435300
11,700333	0,5	0,435500
11,708667	0,5	0,438400
11,717000	0,5	0,442100
11,725333	0,5	0,440250
11,733667	0,5	0,439450
11,742000	0,5	0,431050
11,750333	0,5	0,425400
11,758667	0,5	0,413700
11,767000	0,5	0,399650
11,775333	0,5	0,382150
11,783667	0,5	0,375950
11,792000	0,5	0,365200
11,800333	0,5	0,350900
11,808667	0,5	0,338600
11,817000	0,5	0,325600
11,825333	0,5	0,319250
11,833667	0,5	0,321000
11,842000	0,5	0,319800
11,850333	0,5	0,319850
11,858667	0,5	0,322300
11,867000	0,5	0,320600
11,875333	0,5	0,322650
11,883667	0,5	0,320950
11,892000	0,5	0,321500
11,900333	0,5	0,319200
11,908667	0,5	0,320950
11,917000	0,5	0,312000
11,925333	0,5	0,315150
11,933667	0,5	0,315100
11,942000	0,5	0,314850
11,950333	0,5	0,315500
11,958667	0,5	0,313150
11,967000	0,5	0,317600
11,975333	0,5	0,319250
11,983667	0,5	0,327750
11,992000	0,5	0,327500
12,000333	0,5	0,333550
12,008667	0,5	0,329500
12,017000	0,5	0,328950
12,025333	0,5	0,321300
12,033667	0,5	0,317800
12,042000	0,5	0,312400
12,050333	0,5	0,313100
12,058667	0,5	0,307350
12,067000	0,5	0,301050
12,075333	0,5	0,302800
12,083667	0,5	0,300400
12,092000	0,5	0,293500
12,100333	0,5	0,292100
12,108667	0,5	0,284450
12,117000	0,5	0,283600
12,125333	0,5	0,282050
12,133667	0,5	0,286350
12,142000	0,5	0,290450
12,150333	0,5	0,293300
12,158667	0,5	0,295600
12,167000	0,5	0,302250
12,175333	0,5	0,306550
12,183667	0,5	0,307750
12,192000	0,5	0,314500
12,200333	0,5	0,318600
12,208667	0,5	0,325200
12,217000	0,5	0,321350
12,225333	0,5	0,329600
12,233667	0,5	0,326450
12,242000	0,5	0,323850
12,250333	0,5	0,316400
12,258667	0,5	0,305450
12,267000	0,5	0,304400
12,275333	0,5	0,298800
12,283667	0,5	0,289050
12,292000	0,5	0,286150
12,300333	0,5	0,277950
12,308667	0,5	0,275400
12,317000	0,5	0,268200
12,325333	0,5	0,265850
12,333667	0,5	0,260500
12,342000	0,5	0,257900
12,350333	0,5	0,257400
12,358667	0,5	0,248500
12,367000	0,5	0,244650
12,375333	0,5	0,235350
12,383667	0,5	0,208500
12,392000	0,5	0,136400
12,400333	0,5	0,021800
12,408667	0,5	-0,107500
12,417000	0,5	-0,214300
12,425333	0,5	-0,299400
12,433667	0,5	-0,351400
12,442000	0,5	-0,387750
12,450333	0,5	-0,407900
12,458667	0,5	-0,428750
12,467000	0,5	-0,440650
12,475333	0,5	-0,453600
12,483667	0,5	-0,465800
12,492000	0,5	-0,469450
12,500333	0,5	-0,477700
12,508667	0,5	-0,488350
12,517000	0,5	-0,494800
12,525333	0,5	-0,494400
12,533667	0,5	-0,499550
12,542000	0,5	-0,502550
12,550333	0,5	-0,504950
12,558667	0,5	-0,508850
12,567000	0,5	-0,502900
12,575333	0,5	-0,500850
12,583667	0,5	-0,501800
12,592000	0,5	-0,499400
12,600333	0,5	-0,503500
12,608667	0,5	-0,506050
12,617000	0,5	-0,510500
12,625333	0,5	-0,508100
12,633667	0,5	-0,511300
12,642000	0,5	-0,508600
12,650333	0,5	-0,504050
12,658667	0,5	-0,507450
12,667000	0,5	-0,499650
12,675333	0,5	-0,495600
12,683667	0,5	-0,493350
12,692000	0,5	-0,494500
12,700333	0,5	-0,496000
12,708667	0,5	-0,493150
12,717000	0,5	-0,487900
12,725333	0,5	-0,482350
12,733667	0,5	-0,478700
12,742000	0,5	-0,477250
12,750333	0,5	-0,473950
12,758667	0,5	-0,472050
12,767000	0,5	-0,469550
12,775333	0,5	-0,471250
12,783667	0,5	-0,471450
12,792000	0,5	-0,466650
12,800333	0,5	-0,470250
12,808667	0,5	-0,473100
12,817000	0,5	-0,465800
12,825333	0,5	-0,463150
12,833667	0,5	-0,453850
12,842000	0,5	-0,458700
12,850333	0,5	-0,456600
12,858667	0,5	-0,445350
12,867000	0,5	-0,435400
12,875333	0,5	-0,430750
12,883667	0,5	-0,420200
12,892000	0,5	-0,410050
12,900333	0,5	-0,405200
12,908667	0,5	-0,394000
12,917000	0,5	-0,384250
12,925333	0,5	-0,367950
12,933667	0,5	-0,353850
12,942000	0,5	-0,335750
12,950333	0,5	-0,327600
12,958667	0,5	-0,305850
12,967000	0,5	-0,281800
12,975333	0,5	-0,265850
12,983667	0,5	-0,244900
12,992000	0,5	-0,231550
13,000333	0,5	-0,211700
13,008667	0,5	-0,194650
13,017000	0,5	-0,175550
13,025333	0,5	-0,161800
13,033667	0,5	-0,150450
13,042000	0,5	-0,137950
13,050333	0,5	-0,124050
13,058667	0,5	-0,121900
13,067000	0,5	-0,114250
13,075333	0,5	-0,112150
13,083667	0,5	-0,101450
13,092000	0,5	-0,097000
13,100333	0,5	-0,098400
13,108667	0,5	-0,089350
13,117000	0,5	-0,075150
13,125333	0,5	-0,077500
13,133667	0,5	-0,070800
13,142000	0,5	-0,072650
13,150333	0,5	-0,063350
13,158667	0,5	-0,055800
13,167000	0,5	-0,046200
13,175333	0,5	-0,039750
13,183667	0,5	-0,034350
13,192000	0,5	-0,021000
13,200333	0,5	-0,013100
13,208667	0,5	-0,005400
13,217000	0,5	0,001950
13,225333	0,5	0,011550
13,233667	0,5	0,021550
13,242000	0,5	0,034200
13,250333	0,5	0,043100
13,258667	0,5	0,059400
13,267000	0,5	0,068150
13,275333	0,5	0,076300
13,283667	0,5	0,085350
13,292000	0,5	0,095150
13,300333	0,5	0,103950
13,308667	0,5	0,115200
13,317000	0,5	0,119550
13,325333	0,5	0,123300
13,333667	0,5	0,125300
13,342000	0,5	0,127050
13,350333	0,5	0,128250
13,358667	0,5	0,129100
13,367000	0,5	0,127900
13,375333	0,5	0,128400
13,383667	0,5	0,130450
13,392000	0,5	0,132050
13,400333	0,5	0,138950
13,408667	0,5	0,146500
13,417000	0,5	0,153350
13,425333	0,5	0,150850
13,433667	0,5	0,147850
13,442000	0,5	0,145400
13,450333	0,5	0,155700
13,458667	0,5	0,151850
13,467000	0,5	0,160350
13,475333	0,5	0,168150
13,483667	0,5	0,178600
13,492000	0,5	0,182650
13,500333	0,5	0,179650
13,508667	0,5	0,173550
13,517000	0,5	0,166400
13,525333	0,5	0,158950
13,533667	0,5	0,152150
13,542000	0,5	0,138100
13,550333	0,5	0,137900
13,558667	0,5	0,137050
13,567000	0,5	0,134050
13,575333	0,5	0,129150
13,583667	0,5	0,120800
13,592000	0,5	0,132500
13,600333	0,5	0,134950
13,608667	0,5	0,151000
13,617000	0,5	0,158100
13,625333	0,5	0,170750
13,633667	0,5	0,171350
13,642000	0,5	0,169950
13,650333	0,5	0,158700
13,658667	0,5	0,147250
13,667000	0,5	0,132050
13,675333	0,5	0,121900
13,683667	0,5	0,113850
13,692000	0,5	0,106100
13,700333	0,5	0,109750
13,708667	0,5	0,112900
13,717000	0,5	0,123200
13,725333	0,5	0,128250
13,733667	0,5	0,137900
13,742000	0,5	0,147050
13,750333	0,5	0,156650
13,758667	0,5	0,157100
13,767000	0,5	0,155300
13,775333	0,5	0,143050
13,783667	0,5	0,131550
13,792000	0,5	0,118750
13,800333	0,5	0,108250
13,808667	0,5	0,098650
13,817000	0,5	0,100450
13,825333	0,5	0,097950
13,833667	0,5	0,103250
13,842000	0,5	0,111100
13,850333	0,5	0,124050
13,858667	0,5	0,121950
13,867000	0,5	0,122250
13,875333	0,5	0,109700
13,883667	0,5	0,101700
13,892000	0,5	0,096000
13,900333	0,5	0,083300
13,908667	0,5	0,077550
13,917000	0,5	0,070500
13,925333	0,5	0,066800
13,933667	0,5	0,064400
13,942000	0,5	0,068450
13,950333	0,5	0,068350
13,958667	0,5	0,074150
13,967000	0,5	0,075800
13,975333	0,5	0,075950
13,983667	0,5	0,060400
13,992000	0,5	0,061450
14,000333	0,5	0,052950
14,008667	0,5	0,043750
14,017000	0,5	0,032500
14,025333	0,5	0,022000
14,033667	0,5	0,014400
14,042000	0,5	0,017050
14,050333	0,5	0,015900
14,058667	0,5	0,019100
14,067000	0,5	0,007050
14,075333	0,5	0,007050
14,083667	0,5	0,003950
14,092000	0,5	-0,004650
14,100333	0,5	-0,010100
14,108667	0,5	-0,015100
14,117000	0,5	-0,014350
14,125333	0,5	-0,023100
14,133667	0,5	-0,028050
14,142000	0,5	-0,020200
14,150333	0,5	-0,022750
14,158667	0,5	-0,027500
14,167000	0,5	-0,033650
14,175333	0,5	-0,039550
14,183667	0,5	-0,038550
14,192000	0,5	-0,048100
14,200333	0,5	-0,048850
14,208667	0,5	-0,056600
14,217000	0,5	-0,059400
14,225333	0,5	-0,064200
14,233667	0,5	-0,069300
14,242000	0,5	-0,072100
14,250333	0,5	-0,077800
14,258667	0,5	-0,077500
14,267000	0,5	-0,076400
14,275333	0,5	-0,085500
14,283667	0,5	-0,082400
14,292000	0,5	-0,084250
14,300333	0,5	-0,085800
14,308667	0,5	-0,088950
14,317000	0,5	-0,099500
14,325333	0,5	-0,101250
14,333667	0,5	-0,101500
14,342000	0,5	-0,098450
14,350333	0,5	-0,101750
14,358667	0,5	-0,101150
14,367000	0,5	-0,105300
14,375333	0,5	-0,106350
14,383667	0,5	-0,109800
14,392000	0,5	-0,117300
14,400333	0,5	-0,121150
14,408667	0,5	-0,126250
14,417000	0,5	-0,123500
14,425333	0,5	-0,132700
14,433667	0,5	-0,133450
14,442000	0,5	-0,133450
14,450333	0,5	-0,136800
14,458667	0,5	-0,145450
14,467000	0,5	-0,155700
14,475333	0,5	-0,153150
14,483667	0,5	-0,148250
14,492000	0,5	-0,159800
14,500333	0,5	-0,160450
14,508667	0,5	-0,165000
14,517000	0,5	-0,163950
14,525333	0,5	-0,167700
14,533667	0,5	-0,166450
14,542000	0,5	-0,171800
14,550333	0,5	-0,176100
14,558667	0,5	-0,171400
14,567000	0,5	-0,169600
14,575333	0,5	-0,180300
14,583667	0,5	-0,177000
14,592000	0,5	-0,184300
14,600333	0,5	-0,186750
14,608667	0,5	-0,197250
14,617000	0,5	-0,207300
14,625333	0,5	-0,200650
14,633667	0,5	-0,203200
14,642000	0,5	-0,198100
14,650333	0,5	-0,204050
14,658667	0,5	-0,202400
14,667000	0,5	-0,208550
14,675333	0,5	-0,207200
14,683667	0,5	-0,213950
14,692000	0,5	-0,220750
14,700333	0,5	-0,219900
14,708667	0,5	-0,219450
14,717000	0,5	-0,229600
14,725333	0,5	-0,229700
14,733667	0,5	-0,228250
14,742000	0,5	-0,231950
14,750333	0,5	-0,237700
14,758667	0,5	-0,245700
14,767000	0,5	-0,252750
14,775333	0,5	-0,255450
14,783667	0,5	-0,251200
14,792000	0,5	-0,254000
14,800333	0,5	-0,254500
14,808667	0,5	-0,249850
14,817000	0,5	-0,248300
14,825333	0,5	-0,250750
14,833667	0,5	-0,257000
14,842000	0,5	-0,258150
14,850333	0,5	-0,253250
14,858667	0,5	-0,257150
14,867000	0,5	-0,263450
14,875333	0,5	-0,262500
14,883667	0,5	-0,263600
14,892000	0,5	-0,273200
14,900333	0,5	-0,276500
14,908667	0,5	-0,288100
14,917000	0,5	-0,292100
14,925333	0,5	-0,288750
14,933667	0,5	-0,290050
14,942000	0,5	-0,286350
14,950333	0,5	-0,291000
14,958667	0,5	-0,287300
14,967000	0,5	-0,287950
14,975333	0,5	-0,282700
14,983667	0,5	-0,286650
14,992000	0,5	-0,290100
15,000333	0,5	-0,286900
15,008667	0,5	-0,287950
15,017000	0,5	-0,295650
15,025333	0,5	-0,286300
15,033667	0,5	-0,289950
15,042000	0,5	-0,294600
15,050333	0,5	-0,303150
15,058667	0,5	-0,311450
15,067000	0,5	-0,306450
15,075333	0,5	-0,307900
15,083667	0,5	-0,315050
15,092000	0,5	-0,315350
15,100333	0,5	-0,315100
15,108667	0,5	-0,316850
15,117000	0,5	-0,314150
15,125333	0,5	-0,316250
15,133667	0,5	-0,316600
15,142000	0,5	-0,320000
15,150333	0,5	-0,313550
15,158667	0,5	-0,327000
15,167000	0,5	-0,323950
15,175333	0,5	-0,322850
15,183667	0,5	-0,326550
15,192000	0,5	-0,331000
15,200333	0,5	-0,339850
15,208667	0,5	-0,344750
15,217000	0,5	-0,337800
15,225333	0,5	-0,339850
15,233667	0,5	-0,339750
15,242000	0,5	-0,340200
15,250333	0,5	-0,340300
15,258667	0,5	-0,346250
15,267000	0,5	-0,340000
15,275333	0,5	-0,344300
15,283667	0,5	-0,351600
15,292000	0,5	-0,348300
15,300333	0,5	-0,340400
15,308667	0,5	-0,354150
15,317000	0,5	-0,346650
15,325333	0,5	-0,345950
15,333667	0,5	-0,349350
15,342000	0,5	-0,352450
15,350333	0,5	-0,364550
15,358667	0,5	-0,355100
15,367000	0,5	-0,359000
15,375333	0,5	-0,352350
15,383667	0,5	-0,360950
15,392000	0,5	-0,358150
15,400333	0,5	-0,359100
15,408667	0,5	-0,358400
15,417000	0,5	-0,357850
15,425333	0,5	-0,358050
15,433667	0,5	-0,359200
15,442000	0,5	-0,365750
15,450333	0,5	-0,363200
15,458667	0,5	-0,373950
15,467000	0,5	-0,364700
15,475333	0,5	-0,368500
15,483667	0,5	-0,378100
15,492000	0,5	-0,388600
15,500333	0,5	-0,401350
15,508667	0,5	-0,400000
15,517000	0,5	-0,398000
15,525333	0,5	-0,401600
15,533667	0,5	-0,402350
15,542000	0,5	-0,408750
15,550333	0,5	-0,406700
15,558667	0,5	-0,411500
15,567000	0,5	-0,410950
15,575333	0,5	-0,418050
15,583667	0,5	-0,421950
15,592000	0,5	-0,419000
15,600333	0,5	-0,421250
15,608667	0,5	-0,424000
15,617000	0,5	-0,416550
15,625333	0,5	-0,420450
15,633667	0,5	-0,422950
15,642000	0,5	-0,432800
15,650333	0,5	-0,443150
15,658667	0,5	-0,437000
15,667000	0,5	-0,440700
15,675333	0,5	-0,442650
15,683667	0,5	-0,447250
15,692000	0,5	-0,446450
15,700333	0,5	-0,448700
15,708667	0,5	-0,443400
15,717000	0,5	-0,448800
15,725333	0,5	-0,450600
15,733667	0,5	-0,447150
15,742000	0,5	-0,445000
15,750333	0,5	-0,454500
15,758667	0,5	-0,453400
15,767000	0,5	-0,452300
15,775333	0,5	-0,459800
15,783667	0,5	-0,467150
15,792000	0,5	-0,473450
15,800333	0,5	-0,478250
15,808667	0,5	-0,476150
15,817000	0,5	-0,474250
15,825333	0,5	-0,477300
15,833667	0,5	-0,473000
15,842000	0,5	-0,474000
15,850333	0,5	-0,471200
15,858667	0,5	-0,474450
15,867000	0,5	-0,476900
15,875333	0,5	-0,482850
15,883667	0,5	-0,481100
15,892000	0,5	-0,486100
15,900333	0,5	-0,490800
15,908667	0,5	-0,487300
15,917000	0,5	-0,486450
15,925333	0,5	-0,495800
15,933667	0,5	-0,504500
15,942000	0,5	-0,515300
15,950333	0,5	-0,518650
15,958667	0,5	-0,516950
15,967000	0,5	-0,518600
15,975333	0,5	-0,521650
15,983667	0,5	-0,521600
15,992000	0,5	-0,518450
16,000333	0,5	-0,520750
16,008667	0,5	-0,517500
16,017000	0,5	-0,517350
16,025333	0,5	-0,511500
16,033667	0,5	-0,511800
16,042000	0,5	-0,517700
16,050333	0,5	-0,521550
16,058667	0,5	-0,512200
16,067000	0,5	-0,517300
16,075333	0,5	-0,522650
16,083667	0,5	-0,538850
16,092000	0,5	-0,535100
16,100333	0,5	-0,532300
16,108667	0,5	-0,532000
16,117000	0,5	-0,532050
16,125333	0,5	-0,533800
16,133667	0,5	-0,532950
16,142000	0,5	-0,534950
16,150333	0,5	-0,529550
16,158667	0,5	-0,531650
16,167000	0,5	-0,535900
16,175333	0,5	-0,545950
16,183667	0,5	-0,536450
16,192000	0,5	-0,557450
16,200333	0,5	-0,543250
16,208667	0,5	-0,544550
16,217000	0,5	-0,544050
16,225333	0,5	-0,551450
16,233667	0,5	-0,560350
16,242000	0,5	-0,559450
16,250333	0,5	-0,555400
16,258667	0,5	-0,560000
16,267000	0,5	-0,558650
16,275333	0,5	-0,564150
16,283667	0,5	-0,560900
16,292000	0,5	-0,563300
16,300333	0,5	-0,561250
16,308667	0,5	-0,561950
16,317000	0,5	-0,566050
16,325333	0,5	-0,554450
16,333667	0,5	-0,555400
16,342000	0,5	-0,570200
16,350333	0,5	-0,562100
16,358667	0,5	-0,564150
16,367000	0,5	-0,573750
16,375333	0,5	-0,577500
16,383667	0,5	-0,587550
16,392000	0,5	-0,582500
16,400333	0,5	-0,582600
16,408667	0,5	-0,580950
16,417000	0,5	-0,585500
16,425333	0,5	-0,580500
16,433667	0,5	-0,582450
16,442000	0,5	-0,582800
16,450333	0,5	-0,578500
16,458667	0,5	-0,583250
16,467000	0,5	-0,585750
16,475333	0,5	-0,578200
16,483667	0,5	-0,579100
16,492000	0,5	-0,583000
16,500333	0,5	-0,575700
16,508667	0,5	-0,579350
16,517000	0,5	-0,581900
16,525333	0,5	-0,593550
16,533667	0,5	-0,595850
16,542000	0,5	-0,596850
16,550333	0,5	-0,588150
16,558667	0,5	-0,588400
16,567000	0,5	-0,586850
16,575333	0,5	-0,588000
16,583667	0,5	-0,579950
16,592000	0,5	-0,574500
16,600333	0,5	-0,570200
16,608667	0,5	-0,573100
16,617000	0,5	-0,569150
16,625333	0,5	-0,563850
16,633667	0,5	-0,569900
16,642000	0,5	-0,570100
16,650333	0,5	-0,568050
16,658667	0,5	-0,567700
16,667000	0,5	-0,579850
16,675333	0,5	-0,587750
16,683667	0,5	-0,594650
16,692000	0,5	-0,586450
16,700333	0,5	-0,588950
16,708667	0,5	-0,579550
16,717000	0,5	-0,582050
16,725333	0,5	-0,577700
16,733667	0,5	-0,577750
16,742000	0,5	-0,574800
16,750333	0,5	-0,573600
16,758667	0,5	-0,571300
16,767000	0,5	-0,566000
16,775333	0,5	-0,566000
16,783667	0,5	-0,572200
16,792000	0,5	-0,562850
16,800333	0,5	-0,559950
16,808667	0,5	-0,563100
16,817000	0,5	-0,567800
16,825333	0,5	-0,578700
16,833667	0,5	-0,573050
16,842000	0,5	-0,575700
16,850333	0,5	-0,566800
16,858667	0,5	-0,566100
16,867000	0,5	-0,562850
16,875333	0,5	-0,564950
16,883667	0,5	-0,556150
16,892000	0,5	-0,551150
16,900333	0,5	-0,549050
16,908667	0,5	-0,544700
16,917000	0,5	-0,534550
16,925333	0,5	-0,543650
16,933667	0,5	-0,533300
16,942000	0,5	-0,526200
16,950333	0,5	-0,519450
16,958667	0,5	-0,519850
16,967000	0,5	-0,539650
16,975333	0,5	-0,534650
16,983667	0,5	-0,531650
16,992000	0,5	-0,523300
17,000333	0,5	-0,520300
17,008667	0,5	-0,514450
17,017000	0,5	-0,510650
17,025333	0,5	-0,508850
17,033667	0,5	-0,505800
17,042000	0,5	-0,498350
17,050333	0,5	-0,498300
17,058667	0,5	-0,490000
17,067000	0,5	-0,485800
17,075333	0,5	-0,487150
17,083667	0,5	-0,471850
17,092000	0,5	-0,462600
17,100333	0,5	-0,457750
17,108667	0,5	-0,450100
17,117000	0,5	-0,457550
17,125333	0,5	-0,446400
17,133667	0,5	-0,433600
17,142000	0,5	-0,426400
17,150333	0,5	-0,416950
17,158667	0,5	-0,410000
17,167000	0,5	-0,393650
17,175333	0,5	-0,371950
17,183667	0,5	-0,341700
17,192000	0,5	-0,316750
17,200333	0,5	-0,288150
17,208667	0,5	-0,273100
17,217000	0,5	-0,257050
17,225333	0,5	-0,276800
17,233667	0,5	-0,279450
17,242000	0,5	-0,301850
17,250333	0,5	-0,332600
17,258667	0,5	-0,372200
17,267000	0,5	-0,413150
17,275333	0,5	-0,427700
17,283667	0,5	-0,445400
17,292000	0,5	-0,458250
17,300333	0,5	-0,467350
17,308667	0,5	-0,472650
17,317000	0,5	-0,475350
17,325333	0,5	-0,479850
17,333667	0,5	-0,480300
17,342000	0,5	-0,480450
17,350333	0,5	-0,484850
17,358667	0,5	-0,480400
17,367000	0,5	-0,494650
17,375333	0,5	-0,490350
17,383667	0,5	-0,482050
17,392000	0,5	-0,486700
17,400333	0,5	-0,496350
17,408667	0,5	-0,502100
17,417000	0,5	-0,512150
17,425333	0,5	-0,506550
17,433667	0,5	-0,504850
17,442000	0,5	-0,504450
17,450333	0,5	-0,507000
17,458667	0,5	-0,514700
17,467000	0,5	-0,516250
17,475333	0,5	-0,513650
17,483667	0,5	-0,514750
17,492000	0,5	-0,519200
17,500333	0,5	-0,516750
17,508667	0,5	-0,518450
17,517000	0,5	-0,530200
17,525333	0,5	-0,524300
17,533667	0,5	-0,521450
17,542000	0,5	-0,525900
17,550333	0,5	-0,535550
17,558667	0,5	-0,552400
17,567000	0,5	-0,551050
17,575333	0,5	-0,551350
17,583667	0,5	-0,547700
17,592000	0,5	-0,554200
17,600333	0,5	-0,549900
17,608667	0,5	-0,554450
17,617000	0,5	-0,553000
17,625333	0,5	-0,555350
17,633667	0,5	-0,559400
17,642000	0,5	-0,562300
17,650333	0,5	-0,567400
17,658667	0,5	-0,575100
17,667000	0,5	-0,580050
17,675333	0,5	-0,567550
17,683667	0,5	-0,571700
17,692000	0,5	-0,575300
17,700333	0,5	-0,589450
17,708667	0,5	-0,601350
17,717000	0,5	-0,604300
17,725333	0,5	-0,603250
17,733667	0,5	-0,609200
17,742000	0,5	-0,604350
17,750333	0,5	-0,612800
17,758667	0,5	-0,614900
17,767000	0,5	-0,615550
17,775333	0,5	-0,616000
17,783667	0,5	-0,621800
17,792000	0,5	-0,620650
17,800333	0,5	-0,618200
17,808667	0,5	-0,633600
17,817000	0,5	-0,634550
17,825333	0,5	-0,633150
17,833667	0,5	-0,638300
17,842000	0,5	-0,647750
17,850333	0,5	-0,662100
17,858667	0,5	-0,680250
17,867000	0,5	-0,679100
17,875333	0,5	-0,684250
17,883667	0,5	-0,685550
17,892000	0,5	-0,694250
17,900333	0,5	-0,696250
17,908667	0,5	-0,699100
17,917000	0,5	-0,701200
17,925333	0,5	-0,705750
17,933667	0,5	-0,713750
17,942000	0,5	-0,709900
17,950333	0,5	-0,711450
17,958667	0,5	-0,734550
17,967000	0,5	-0,728750
17,975333	0,5	-0,726550
17,983667	0,5	-0,726700
17,992000	0,5	-0,740100
18,000333	0,5	-0,758150
18,008667	0,5	-0,757900
18,017000	0,5	-0,765800
18,025333	0,5	-0,759350
18,033667	0,5	-0,766900
18,042000	0,5	-0,757700
18,050333	0,5	-0,768300
18,058667	0,5	-0,760500
18,067000	0,5	-0,761750
18,075333	0,5	-0,758450
18,083667	0,5	-0,753350
18,092000	0,5	-0,748000
18,100333	0,5	-0,749500
18,108667	0,5	-0,751100
18,117000	0,5	-0,740500
18,125333	0,5	-0,733200
18,133667	0,5	-0,732350
18,142000	0,5	-0,740350
18,150333	0,5	-0,744000
18,158667	0,5	-0,737500
18,167000	0,5	-0,724850
18,175333	0,5	-0,725650
18,183667	0,5	-0,724000
18,192000	0,5	-0,718300
18,200333	0,5	-0,709900
18,208667	0,5	-0,711800
18,217000	0,5	-0,707500
18,225333	0,5	-0,712500
18,233667	0,5	-0,704950
18,242000	0,5	-0,700450
18,250333	0,5	-0,716000
18,258667	0,5	-0,715150
18,267000	0,5	-0,708200
18,275333	0,5	-0,706250
18,283667	0,5	-0,710350
18,292000	0,5	-0,726750
18,300333	0,5	-0,729750
18,308667	0,5	-0,725250
18,317000	0,5	-0,730600
18,325333	0,5	-0,730600
18,333667	0,5	-0,734850
18,342000	0,5	-0,732100
18,350333	0,5	-0,738500
18,358667	0,5	-0,735750
18,367000	0,5	-0,736350
18,375333	0,5	-0,737700
18,383667	0,5	-0,731750
18,392000	0,5	-0,724350
18,400333	0,5	-0,740100
18,408667	0,5	-0,727750
18,417000	0,5	-0,726450
18,425333	0,5	-0,727950
18,433667	0,5	-0,737100
18,442000	0,5	-0,752550
18,450333	0,5	-0,751200
18,458667	0,5	-0,751100
18,467000	0,5	-0,749800
18,475333	0,5	-0,751050
18,483667	0,5	-0,747100
18,492000	0,5	-0,751550
18,500333	0,5	-0,747100
18,508667	0,5	-0,749900
18,517000	0,5	-0,751850
18,525333	0,5	-0,750650
18,533667	0,5	-0,741000
18,542000	0,5	-0,745750
18,550333	0,5	-0,755700
18,558667	0,5	-0,751250
18,567000	0,5	-0,746550
18,575333	0,5	-0,749750
18,583667	0,5	-0,761450
18,592000	0,5	-0,774000
18,600333	0,5	-0,769900
18,608667	0,5	-0,769850
18,617000	0,5	-0,768500
18,625333	0,5	-0,766250
18,633667	0,5	-0,763550
18,642000	0,5	-0,768600
18,650333	0,5	-0,769750
18,658667	0,5	-0,767450
18,667000	0,5	-0,772250
18,675333	0,5	-0,765650
18,683667	0,5	-0,763100
18,692000	0,5	-0,765450
18,700333	0,5	-0,770950
18,708667	0,5	-0,765200
18,717000	0,5	-0,771450
18,725333	0,5	-0,772700
18,733667	0,5	-0,791600
18,742000	0,5	-0,800850
18,750333	0,5	-0,802200
18,758667	0,5	-0,795600
18,767000	0,5	-0,794800
18,775333	0,5	-0,790650
18,783667	0,5	-0,793800
18,792000	0,5	-0,794400
18,800333	0,5	-0,793750
18,808667	0,5	-0,796500
18,817000	0,5	-0,797950
18,825333	0,5	-0,794950
18,833667	0,5	-0,792500
18,842000	0,5	-0,808750
18,850333	0,5	-0,806350
18,858667	0,5	-0,804100
18,867000	0,5	-0,807100
18,875333	0,5	-0,823950
18,883667	0,5	-0,827850
18,892000	0,5	-0,834800
18,900333	0,5	-0,835800
18,908667	0,5	-0,835600
18,917000	0,5	-0,834900
18,925333	0,5	-0,841000
18,933667	0,5	-0,841750
18,942000	0,5	-0,848050
18,950333	0,5	-0,853000
18,958667	0,5	-0,850150
18,967000	0,5	-0,856550
18,975333	0,5	-0,852500
18,983667	0,5	-0,861000
18,992000	0,5	-0,869800
19,000333	0,5	-0,862300
19,008667	0,5	-0,864700
19,017000	0,5	-0,873750
19,025333	0,5	-0,888350
19,033667	0,5	-0,898800
19,042000	0,5	-0,903800
19,050333	0,5	-0,911700
19,058667	0,5	-0,908800
19,067000	0,5	-0,912450
19,075333	0,5	-0,910600
19,083667	0,5	-0,919550
19,092000	0,5	-0,919700
19,100333	0,5	-0,923550
19,108667	0,5	-0,930100
19,117000	0,5	-0,929550
19,125333	0,5	-0,924850
19,133667	0,5	-0,943800
19,142000	0,5	-0,941100
19,150333	0,5	-0,939350
19,158667	0,5	-0,945150
19,167000	0,5	-0,950400
19,175333	0,5	-0,975250
19,183667	0,5	-0,970350
19,192000	0,5	-0,977500
19,200333	0,5	-0,973850
19,208667	0,5	-0,981750
19,217000	0,5	-0,984700
19,225333	0,5	-0,990850
19,233667	0,5	-0,990100
19,242000	0,5	-0,998650
19,250333	0,5	-1,001200
19,258667	0,5	-1,005050
19,267000	0,5	-1,010300
19,275333	0,5	-1,007450
19,283667	0,5	-1,020150
19,292000	0,5	-1,013100
19,300333	0,5	-1,017400
19,308667	0,5	-1,023350
19,317000	0,5	-1,035450
19,325333	0,5	-1,048200
19,333667	0,5	-1,049450
19,342000	0,5	-1,053150
19,350333	0,5	-1,059350
19,358667	0,5	-1,057400
19,367000	0,5	-1,061750
19,375333	0,5	-1,061750
19,383667	0,5	-1,066300
19,392000	0,5	-1,065850
19,400333	0,5	-1,069400
19,408667	0,5	-1,071100
19,417000	0,5	-1,066150
19,425333	0,5	-1,070050
19,433667	0,5	-1,080500
19,442000	0,5	-1,073450
19,450333	0,5	-1,075400
19,458667	0,5	-1,082300
19,467000	0,5	-1,096850
19,475333	0,5	-1,110800
19,483667	0,5	-1,100350
19,492000	0,5	-1,107500
19,500333	0,5	-1,107350
19,508667	0,5	-1,110450
19,517000	0,5	-1,104100
19,525333	0,5	-1,112300
19,533667	0,5	-1,114350
19,542000	0,5	-1,118750
19,550333	0,5	-1,117500
19,558667	0,5	-1,113200
19,567000	0,5	-1,106400
19,575333	0,5	-1,123850
19,583667	0,5	-1,118800
19,592000	0,5	-1,118750
19,600333	0,5	-1,120050
19,608667	0,5	-1,131750
19,617000	0,5	-1,155850
19,625333	0,5	-1,150000
19,633667	0,5	-1,161200
19,642000	0,5	-1,152700
19,650333	0,5	-1,154750
19,658667	0,5	-1,155700
19,667000	0,5	-1,155900
19,675333	0,5	-1,151850
19,683667	0,5	-1,152150
19,692000	0,5	-1,150200
19,700333	0,5	-1,152200
19,708667	0,5	-1,144300
19,717000	0,5	-1,146950
19,725333	0,5	-1,152950
19,733667	0,5	-1,150100
19,742000	0,5	-1,152850
19,750333	0,5	-1,160000
19,758667	0,5	-1,170950
19,767000	0,5	-1,180850
19,775333	0,5	-1,185450
19,783667	0,5	-1,179200
19,792000	0,5	-1,184000
19,800333	0,5	-1,178250
19,808667	0,5	-1,174850
19,817000	0,5	-1,175000
19,825333	0,5	-1,177250
19,833667	0,5	-1,180200
19,842000	0,5	-1,182050
19,850333	0,5	-1,172800
19,858667	0,5	-1,168850
19,867000	0,5	-1,176650
19,875333	0,5	-1,176150
19,883667	0,5	-1,172900
19,892000	0,5	-1,178150
19,900333	0,5	-1,183700
19,908667	0,5	-1,202300
19,917000	0,5	-1,202450
19,925333	0,5	-1,199300
19,933667	0,5	-1,204950
19,942000	0,5	-1,204600
19,950333	0,5	-1,206750
19,958667	0,5	-1,206750
19,967000	0,5	-1,200850
19,975333	0,5	-1,200700
19,983667	0,5	-1,205400
19,992000	0,5	-1,205600
20,000333	0,5	-1,199350
20,008667	0,5	-1,198750
20,017000	0,5	-1,211600
20,025333	0,5	-1,201300
20,033667	0,5	-1,203900
20,042000	0,5	-1,206150
20,050333	0,5	-1,213600
20,058667	0,5	-1,228750
20,067000	0,5	-1,221650
20,075333	0,5	-1,220550
20,083667	0,5	-1,221500
20,092000	0,5	-1,221000
20,100333	0,5	-1,219550
20,108667	0,5	-1,217450
20,117000	0,5	-1,212000
20,125333	0,5	-1,216500
20,133667	0,5	-1,211150
20,142000	0,5	-1,212750
20,150333	0,5	-1,197200
20,158667	0,5	-1,207150
20,167000	0,5	-1,201350
20,175333	0,5	-1,198500
20,183667	0,5	-1,198800
20,192000	0,5	-1,208750
20,200333	0,5	-1,220950
20,208667	0,5	-1,222000
20,217000	0,5	-1,219000
20,225333	0,5	-1,226150
20,233667	0,5	-1,228300
20,242000	0,5	-1,231150
20,250333	0,5	-1,228200
20,258667	0,5	-1,228700
20,267000	0,5	-1,230700
20,275333	0,5	-1,230050
20,283667	0,5	-1,234950
20,292000	0,5	-1,224850
20,300333	0,5	-1,220500
20,308667	0,5	-1,232400
20,317000	0,5	-1,223800
20,325333	0,5	-1,229000
20,333667	0,5	-1,233800
20,342000	0,5	-1,241400
20,350333	0,5	-1,257750
20,358667	0,5	-1,257150
20,367000	0,5	-1,253800
20,375333	0,5	-1,252300
20,383667	0,5	-1,254650
20,392000	0,5	-1,252250
20,400333	0,5	-1,255750
20,408667	0,5	-1,255050
20,417000	0,5	-1,255600
20,425333	0,5	-1,267500
20,433667	0,5	-1,263750
20,442000	0,5	-1,253750
20,450333	0,5	-1,253250
20,458667	0,5	-1,265600
20,467000	0,5	-1,254700
20,475333	0,5	-1,257800
20,483667	0,5	-1,262950
20,492000	0,5	-1,273150
20,500333	0,5	-1,289850
20,508667	0,5	-1,285300
20,517000	0,5	-1,281400
20,525333	0,5	-1,290050
20,533667	0,5	-1,285950
20,542000	0,5	-1,281750
20,550333	0,5	-1,279350
20,558667	0,5	-1,283450
20,567000	0,5	-1,278250
20,575333	0,5	-1,280050
20,583667	0,5	-1,269500
20,592000	0,5	-1,259600
20,600333	0,5	-1,259950
20,608667	0,5	-1,263900
20,617000	0,5	-1,262450
20,625333	0,5	-1,269550
20,633667	0,5	-1,278850
20,642000	0,5	-1,290450
20,650333	0,5	-1,292850
20,658667	0,5	-1,285550
20,667000	0,5	-1,282400
20,675333	0,5	-1,281700
20,683667	0,5	-1,279050
20,692000	0,5	-1,274700
20,700333	0,5	-1,276550
20,708667	0,5	-1,273150
20,717000	0,5	-1,270450
20,725333	0,5	-1,276450
20,733667	0,5	-1,255250
20,742000	0,5	-1,245600
20,750333	0,5	-1,250400
20,758667	0,5	-1,255250
20,767000	0,5	-1,248700
20,775333	0,5	-1,255550
20,783667	0,5	-1,268950
20,792000	0,5	-1,284400
20,800333	0,5	-1,281900
20,808667	0,5	-1,283250
20,817000	0,5	-1,278450
20,825333	0,5	-1,282850
20,833667	0,5	-1,273150
20,842000	0,5	-1,267750
20,850333	0,5	-1,267150
20,858667	0,5	-1,266000
20,867000	0,5	-1,265150
20,875333	0,5	-1,252850
20,883667	0,5	-1,233950
20,892000	0,5	-1,232100
20,900333	0,5	-1,234400
20,908667	0,5	-1,233200
20,917000	0,5	-1,242350
20,925333	0,5	-1,245600
20,933667	0,5	-1,258350
20,942000	0,5	-1,254400
20,950333	0,5	-1,255900
20,958667	0,5	-1,245850
20,967000	0,5	-1,243000
20,975333	0,5	-1,235150
20,983667	0,5	-1,234950
20,992000	0,5	-1,229600
21,000333	0,5	-1,220650
21,008667	0,5	-1,215350
21,017000	0,5	-1,209750
21,025333	0,5	-1,187250
21,033667	0,5	-1,172000
21,042000	0,5	-1,174450
21,050333	0,5	-1,175750
21,058667	0,5	-1,177350
21,067000	0,5	-1,183550
21,075333	0,5	-1,192350
21,083667	0,5	-1,204400
21,092000	0,5	-1,202000
21,100333	0,5	-1,193000
21,108667	0,5	-1,198600
21,117000	0,5	-1,199350
21,125333	0,5	-1,195800
21,133667	0,5	-1,188650
21,142000	0,5	-1,184250
21,150333	0,5	-1,176050
21,158667	0,5	-1,176350
21,167000	0,5	-1,167350
21,175333	0,5	-1,144250
21,183667	0,5	-1,131250
21,192000	0,5	-1,135150
21,200333	0,5	-1,135850
21,208667	0,5	-1,134550
21,217000	0,5	-1,151300
21,225333	0,5	-1,155650
21,233667	0,5	-1,153200
21,242000	0,5	-1,139450
21,250333	0,5	-1,140250
21,258667	0,5	-1,131550
21,267000	0,5	-1,134250
21,275333	0,5	-1,122850
21,283667	0,5	-1,121350
21,292000	0,5	-1,106850
21,300333	0,5	-1,106850
21,308667	0,5	-1,100500
21,317000	0,5	-1,079250
21,325333	0,5	-1,055350
21,333667	0,5	-1,050450
21,342000	0,5	-1,047100
21,350333	0,5	-1,040950
21,358667	0,5	-1,038600
21,367000	0,5	-1,034300
21,375333	0,5	-1,040550
21,383667	0,5	-1,021400
21,392000	0,5	-1,009500
21,400333	0,5	-0,983750
21,408667	0,5	-0,961100
21,417000	0,5	-0,939300
21,425333	0,5	-0,921050
21,433667	0,5	-0,901500
21,442000	0,5	-0,905300
21,450333	0,5	-0,906800
21,458667	0,5	-0,912600
21,467000	0,5	-0,891300
21,475333	0,5	-0,878450
21,483667	0,5	-0,876700
21,492000	0,5	-0,870200
21,500333	0,5	-0,877000
21,508667	0,5	-0,880600
21,517000	0,5	-0,896750
21,525333	0,5	-0,898150
21,533667	0,5	-0,894700
21,542000	0,5	-0,885600
21,550333	0,5	-0,881850
21,558667	0,5	-0,877200
21,567000	0,5	-0,869100
21,575333	0,5	-0,858550
21,583667	0,5	-0,845700
21,592000	0,5	-0,837550
21,600333	0,5	-0,821000
21,608667	0,5	-0,799550
21,617000	0,5	-0,774100
21,625333	0,5	-0,759800
21,633667	0,5	-0,750700
21,642000	0,5	-0,740250
21,650333	0,5	-0,736650
21,658667	0,5	-0,738350
21,667000	0,5	-0,734200
21,675333	0,5	-0,729850
21,683667	0,5	-0,708150
21,692000	0,5	-0,696150
21,700333	0,5	-0,681650
21,708667	0,5	-0,672500
21,717000	0,5	-0,655300
21,725333	0,5	-0,638450
21,733667	0,5	-0,622700
21,742000	0,5	-0,607400
21,750333	0,5	-0,595800
21,758667	0,5	-0,564650
21,767000	0,5	-0,547700
21,775333	0,5	-0,539200
21,783667	0,5	-0,532350
21,792000	0,5	-0,518550
21,800333	0,5	-0,510750
21,808667	0,5	-0,510650
21,817000	0,5	-0,508800
21,825333	0,5	-0,482050
21,833667	0,5	-0,470000
21,842000	0,5	-0,448800
21,850333	0,5	-0,432100
21,858667	0,5	-0,413300
21,867000	0,5	-0,399700
21,875333	0,5	-0,377750
21,883667	0,5	-0,363800
21,892000	0,5	-0,345000
21,900333	0,5	-0,315100
21,908667	0,5	-0,285900
21,917000	0,5	-0,272750
21,925333	0,5	-0,248850
21,933667	0,5	-0,219150
21,942000	0,5	-0,202200
21,950333	0,5	-0,171600
21,958667	0,5	-0,160500
21,967000	0,5	-0,123300
21,975333	0,5	-0,096850
21,983667	0,5	-0,065750
21,992000	0,5	-0,045050
22,000333	0,5	-0,020950
22,008667	0,5	-0,008600
22,017000	0,5	0,008650
22,025333	0,5	0,028300
22,033667	0,5	0,042550
22,042000	0,5	0,060600
22,050333	0,5	0,083400
22,058667	0,5	0,098200
22,067000	0,5	0,113050
22,075333	0,5	0,148750
22,083667	0,5	0,168950
22,092000	0,5	0,192900
22,100333	0,5	0,203300
22,108667	0,5	0,221100
22,117000	0,5	0,253200
22,125333	0,5	0,285650
22,133667	0,5	0,311600
22,142000	0,5	0,341350
22,150333	0,5	0,379700
22,158667	0,5	0,411450
22,167000	0,5	0,451400
22,175333	0,5	0,489900
22,183667	0,5	0,534450
22,192000	0,5	0,562350
22,200333	0,5	0,593650
22,208667	0,5	0,610250
22,217000	0,5	0,663150
22,225333	0,5	0,697500
22,233667	0,5	0,738000
22,242000	0,5	0,766950
22,250333	0,5	0,798450
22,258667	0,5	0,845600
22,267000	0,5	0,895200
22,275333	0,5	0,933350
22,283667	0,5	0,978950
22,292000	0,5	1,015400
22,300333	0,5	1,055200
22,308667	0,5	1,093900
22,317000	0,5	1,135650
22,325333	0,5	1,179100
22,333667	0,5	1,220250
22,342000	0,5	1,254300
22,350333	0,5	1,300200
22,358667	0,5	1,344100
22,367000	0,5	1,409250
22,375333	0,5	1,461650
22,383667	0,5	1,509650
22,392000	0,5	1,554950
22,400333	0,5	1,592750
22,408667	0,5	1,658350
22,417000	0,5	1,715850
22,425333	0,5	1,775850
22,433667	0,5	1,827500
22,442000	0,5	1,884400
22,450333	0,5	1,938000
22,458667	0,5	1,990900
22,467000	0,5	2,048050
22,475333	0,5	2,095850
22,483667	0,5	2,144050
22,492000	0,5	2,168550
22,500333	0,5	2,227250
22,508667	0,5	2,291750
22,517000	0,5	2,350850
22,525333	0,5	2,389250
22,533667	0,5	2,428350
22,542000	0,5	2,459250
22,550333	0,5	2,500100
22,558667	0,5	2,542050
22,567000	0,5	2,591200
22,575333	0,5	2,619100
22,583667	0,5	2,659450
22,592000	0,5	2,680450
22,600333	0,5	2,705150
22,608667	0,5	2,726400
22,617000	0,5	2,730600
22,625333	0,5	2,734850
22,633667	0,5	2,697100
22,642000	0,5	2,697300
22,650333	0,5	2,689350
22,658667	0,5	2,678750
22,667000	0,5	2,646300
22,675333	0,5	2,608750
22,683667	0,5	2,538700
22,692000	0,5	2,477800
22,700333	0,5	2,411600
22,708667	0,5	2,353000
22,717000	0,5	2,272900
22,725333	0,5	2,203800
22,733667	0,5	2,121750
22,742000	0,5	2,044300
22,750333	0,5	1,952250
22,758667	0,5	1,868950
22,767000	0,5	1,771100
22,775333	0,5	1,661850
22,783667	0,5	1,512400
22,792000	0,5	1,408150
22,800333	0,5	1,311450
22,808667	0,5	1,197900
22,817000	0,5	1,070100
22,825333	0,5	0,943250
22,833667	0,5	0,817700
22,842000	0,5	0,692600
22,850333	0,5	0,565000
22,858667	0,5	0,448750
22,867000	0,5	0,320450
22,875333	0,5	0,209850
22,883667	0,5	0,095350
22,892000	0,5	-0,011600
22,900333	0,5	-0,120750
22,908667	0,5	-0,228050
22,917000	0,5	-0,335450
22,925333	0,5	-0,424050
22,933667	0,5	-0,537300
22,942000	0,5	-0,645000
22,950333	0,5	-0,769900
22,958667	0,5	-0,883150
22,967000	0,5	-0,970500
22,975333	0,5	-1,061150
22,983667	0,5	-1,138200
22,992000	0,5	-1,228650
23,000333	0,5	-1,298700
23,008667	0,5	-1,372750
23,017000	0,5	-1,424950
23,025333	0,5	-1,489250
23,033667	0,5	-1,536550
23,042000	0,5	-1,593700
23,050333	0,5	-1,642050
23,058667	0,5	-1,688900
23,067000	0,5	-1,736650
23,075333	0,5	-1,759200
23,083667	0,5	-1,800400
23,092000	0,5	-1,856150
23,100333	0,5	-1,926400
23,108667	0,5	-1,969000
23,117000	0,5	-2,000900
23,125333	0,5	-2,024200
23,133667	0,5	-2,046800
23,142000	0,5	-2,069550
23,150333	0,5	-2,089600
23,158667	0,5	-2,093850
23,167000	0,5	-2,107550
23,175333	0,5	-2,102350
23,183667	0,5	-2,111000
23,192000	0,5	-2,111650
23,200333	0,5	-2,121400
23,208667	0,5	-2,117750
23,217000	0,5	-2,104850
23,225333	0,5	-2,123600
23,233667	0,5	-2,109450
23,242000	0,5	-2,122850
23,250333	0,5	-2,158850
23,258667	0,5	-2,169700
23,267000	0,5	-2,164300
23,275333	0,5	-2,160700
23,283667	0,5	-2,153500
23,292000	0,5	-2,157750
23,300333	0,5	-2,144050
23,308667	0,5	-2,130850
23,317000	0,5	-2,111050
23,325333	0,5	-2,099350
23,333667	0,5	-2,076000
23,342000	0,5	-2,061950
23,350333	0,5	-2,040100
23,358667	0,5	-2,025500
23,367000	0,5	-2,028050
23,375333	0,5	-1,999350
23,383667	0,5	-1,971400
23,392000	0,5	-1,945900
23,400333	0,5	-1,956850
23,408667	0,5	-1,955800
23,417000	0,5	-1,943000
23,425333	0,5	-1,929550
23,433667	0,5	-1,919350
23,442000	0,5	-1,906950
23,450333	0,5	-1,893600
23,458667	0,5	-1,877850
23,467000	0,5	-1,859600
23,475333	0,5	-1,838700
23,483667	0,5	-1,819150
23,492000	0,5	-1,799400
23,500333	0,5	-1,780100
23,508667	0,5	-1,757750
23,517000	0,5	-1,808600
23,525333	0,5	-1,760050
23,533667	0,5	-1,706350
23,542000	0,5	-1,677500
23,550333	0,5	-1,669900
23,558667	0,5	-1,656350
23,567000	0,5	-1,643100
23,575333	0,5	-1,629600
23,583667	0,5	-1,612100
23,592000	0,5	-1,598950
23,600333	0,5	-1,582550
23,608667	0,5	-1,567650
23,617000	0,5	-1,550750
23,625333	0,5	-1,535200
23,633667	0,5	-1,517450
23,642000	0,5	-1,502100
23,650333	0,5	-1,485100
23,658667	0,5	-1,508900
23,667000	0,5	-1,560400
23,675333	0,5	-1,506250
23,683667	0,5	-1,453900
23,692000	0,5	-1,414300
23,700333	0,5	-1,400650
23,708667	0,5	-1,389800
23,717000	0,5	-1,376000
23,725333	0,5	-1,360750
23,733667	0,5	-1,343900
23,742000	0,5	-1,321950
23,750333	0,5	-1,302150
23,758667	0,5	-1,286200
23,767000	0,5	-1,264250
23,775333	0,5	-1,244200
23,783667	0,5	-1,223400
23,792000	0,5	-1,207000
23,800333	0,5	-1,189250
23,808667	0,5	-1,282200
23,817000	0,5	-1,253450
23,825333	0,5	-1,225500
23,833667	0,5	-1,162550
23,842000	0,5	-1,131250
23,850333	0,5	-1,118050
23,858667	0,5	-1,111350
23,867000	0,5	-1,109050
23,875333	0,5	-1,097200
23,883667	0,5	-1,075600
23,892000	0,5	-1,061850
23,900333	0,5	-1,043300
23,908667	0,5	-1,025350
23,917000	0,5	-1,003300
23,925333	0,5	-0,982600
23,933667	0,5	-0,963150
23,942000	0,5	-0,945500
23,950333	0,5	-0,950400
23,958667	0,5	-1,025800
23,967000	0,5	-0,994550
23,975333	0,5	-0,947050
23,983667	0,5	-0,890800
23,992000	0,5	-0,861100
24,000333	0,5	-0,852400
24,008667	0,5	-0,839650
24,017000	0,5	-0,840250
24,025333	0,5	-0,814550
24,033667	0,5	-0,798600
24,042000	0,5	-0,780050
24,050333	0,5	-0,773050
24,058667	0,5	-0,752600
24,067000	0,5	-0,740600
24,075333	0,5	-0,719200
24,083667	0,5	-0,705200
24,092000	0,5	-0,694800
24,100333	0,5	-0,734450
24,108667	0,5	-0,762500
24,117000	0,5	-0,731450
24,125333	0,5	-0,687300
24,133667	0,5	-0,644850
24,142000	0,5	-0,620900
24,150333	0,5	-0,612650
24,158667	0,5	-0,604500
24,167000	0,5	-0,592400
24,175333	0,5	-0,574850
24,183667	0,5	-0,554550
24,192000	0,5	-0,541600
24,200333	0,5	-0,522650
24,208667	0,5	-0,512850
24,217000	0,5	-0,491550
24,225333	0,5	-0,476750
24,233667	0,5	-0,460000
24,242000	0,5	-0,454850
24,250333	0,5	-0,535450
24,258667	0,5	-0,501850
24,267000	0,5	-0,485650
24,275333	0,5	-0,448950
24,283667	0,5	-0,422450
24,292000	0,5	-0,405500
24,300333	0,5	-0,400400
24,308667	0,5	-0,407200
24,317000	0,5	-0,394650
24,325333	0,5	-0,375650
24,333667	0,5	-0,363500
24,342000	0,5	-0,352200
24,350333	0,5	-0,343500
24,358667	0,5	-0,324300
24,367000	0,5	-0,312150
24,375333	0,5	-0,294200
24,383667	0,5	-0,286050
24,392000	0,5	-0,284750
24,400333	0,5	-0,337650
24,408667	0,5	-0,304000
24,417000	0,5	-0,290800
24,425333	0,5	-0,250550
24,433667	0,5	-0,237700
24,442000	0,5	-0,232150
24,450333	0,5	-0,234350
24,458667	0,5	-0,237850
24,467000	0,5	-0,225750
24,475333	0,5	-0,216050
24,483667	0,5	-0,205100
24,492000	0,5	-0,198550
24,500333	0,5	-0,188550
24,508667	0,5	-0,180800
24,517000	0,5	-0,167100
24,525333	0,5	-0,160600
24,533667	0,5	-0,150700
24,542000	0,5	-0,176350
24,550333	0,5	-0,184500
24,558667	0,5	-0,167000
24,567000	0,5	-0,144050
24,575333	0,5	-0,121900
24,583667	0,5	-0,106450
24,592000	0,5	-0,104550
24,600333	0,5	-0,105800
24,608667	0,5	-0,110700
24,617000	0,5	-0,102650
24,625333	0,5	-0,092700
24,633667	0,5	-0,088550
24,642000	0,5	-0,080000
24,650333	0,5	-0,069650
24,658667	0,5	-0,063050
24,667000	0,5	-0,056200
24,675333	0,5	-0,048200
24,683667	0,5	-0,046000
24,692000	0,5	-0,069400
24,700333	0,5	-0,068000
24,708667	0,5	-0,056150
24,717000	0,5	-0,040150
24,725333	0,5	-0,024650
24,733667	0,5	-0,024050
24,742000	0,5	-0,020500
24,750333	0,5	-0,023850
24,758667	0,5	-0,020550
24,767000	0,5	-0,011700
24,775333	0,5	-0,002050
24,783667	0,5	0,002600
24,792000	0,5	0,008600
24,800333	0,5	0,013550
24,808667	0,5	0,019200
24,817000	0,5	0,028900
24,825333	0,5	0,032200
24,833667	0,5	0,031650
24,842000	0,5	0,012800
24,850333	0,5	0,023450
24,858667	0,5	0,029150
24,867000	0,5	0,039800
24,875333	0,5	0,047200
24,883667	0,5	0,046450
24,892000	0,5	0,046150
24,900333	0,5	0,044250
24,908667	0,5	0,045750
24,917000	0,5	0,050600
24,925333	0,5	0,052950
24,933667	0,5	0,054800
24,942000	0,5	0,061250
24,950333	0,5	0,065300
24,958667	0,5	0,071200
24,967000	0,5	0,076050
24,975333	0,5	0,082200
24,983667	0,5	0,075550
24,992000	0,5	0,075750
25,000333	0,5	0,081650
25,008667	0,5	0,087300
25,017000	0,5	0,094300
25,025333	0,5	0,097000
25,033667	0,5	0,096750
25,042000	0,5	0,093550
25,050333	0,5	0,091200
25,058667	0,5	0,097200
25,067000	0,5	0,098600
25,075333	0,5	0,098600
25,083667	0,5	0,099050
25,092000	0,5	0,104350
25,100333	0,5	0,104400
25,108667	0,5	0,107000
25,117000	0,5	0,109400
25,125333	0,5	0,109600
25,133667	0,5	0,105650
25,142000	0,5	0,112400
25,150333	0,5	0,112250
25,158667	0,5	0,114850
25,167000	0,5	0,123400
25,175333	0,5	0,124800
25,183667	0,5	0,123200
25,192000	0,5	0,119400
25,200333	0,5	0,125750
25,208667	0,5	0,125300
25,217000	0,5	0,124200
25,225333	0,5	0,123050
25,233667	0,5	0,122500
25,242000	0,5	0,126450
25,250333	0,5	0,126850
25,258667	0,5	0,128700
25,267000	0,5	0,127900
25,275333	0,5	0,126200
25,283667	0,5	0,125500
25,292000	0,5	0,127650
25,300333	0,5	0,130950
25,308667	0,5	0,126800
25,317000	0,5	0,132400
25,325333	0,5	0,132950
25,333667	0,5	0,131600
25,342000	0,5	0,136050
25,350333	0,5	0,135150
25,358667	0,5	0,134050
25,367000	0,5	0,135750
25,375333	0,5	0,135200
25,383667	0,5	0,136400
25,392000	0,5	0,135300
25,400333	0,5	0,135500
25,408667	0,5	0,135300
25,417000	0,5	0,137400
25,425333	0,5	0,136200
25,433667	0,5	0,139050
25,442000	0,5	0,138200
25,450333	0,5	0,137450
25,458667	0,5	0,135800
25,467000	0,5	0,136750
25,475333	0,5	0,136150
25,483667	0,5	0,134950
25,492000	0,5	0,136200
25,500333	0,5	0,136200
25,508667	0,5	0,139750
25,517000	0,5	0,138550
25,525333	0,5	0,142250
25,533667	0,5	0,139900
25,542000	0,5	0,140950
25,550333	0,5	0,138750
25,558667	0,5	0,140950
25,567000	0,5	0,139900
25,575333	0,5	0,142050
25,583667	0,5	0,139600
25,592000	0,5	0,141650
25,600333	0,5	0,139150
25,608667	0,5	0,135800
25,617000	0,5	0,137200
25,625333	0,5	0,134050
25,633667	0,5	0,135350
25,642000	0,5	0,139600
25,650333	0,5	0,139850
25,658667	0,5	0,137800
25,667000	0,5	0,140000
25,675333	0,5	0,136800
25,683667	0,5	0,138000
25,692000	0,5	0,138850
25,700333	0,5	0,137500
25,708667	0,5	0,137600
25,717000	0,5	0,140250
25,725333	0,5	0,138300
25,733667	0,5	0,140850
25,742000	0,5	0,143450
25,750333	0,5	0,138850
25,758667	0,5	0,138900
25,767000	0,5	0,138350
25,775333	0,5	0,137900
25,783667	0,5	0,140250
25,792000	0,5	0,138150
25,800333	0,5	0,141450
25,808667	0,5	0,139050
25,817000	0,5	0,141850
25,825333	0,5	0,139450
25,833667	0,5	0,140500
25,842000	0,5	0,139600
25,850333	0,5	0,139450
25,858667	0,5	0,142950
25,867000	0,5	0,142100
25,875333	0,5	0,148200
25,883667	0,5	0,144000
25,892000	0,5	0,147200
25,900333	0,5	0,141050
25,908667	0,5	0,142200
25,917000	0,5	0,139050
25,925333	0,5	0,148850
25,933667	0,5	0,150850
25,942000	0,5	0,152050
25,950333	0,5	0,149400
25,958667	0,5	0,149750
25,967000	0,5	0,148800
25,975333	0,5	0,149750
25,983667	0,5	0,147300
25,992000	0,5	0,147800
26,000333	0,5	0,150150
