File Path	chrom://chromeleon01/ikbm_chromeleon/2022/ICS-5000/ED1/Esteban/20220612_Cell_7_4_eg.seq/969.smp/ED_1.channel/ED_1.chm
Channel	ED_1

Injection Information:
Data Vault	ikbm_chromeleon
Injection	7_24h-NT-pH6_3
Injection Number	17
Position	RB4
Comment	
Processing Method	Stop sequence after Cell Death
Instrument Method	ICS5000_PA200_FullNative_Ox_26min_ED1
Type	Unknown
Status	Finished
Injection Date	12.06.2022
Injection Time	23:39:12
Injection Volume (µl)	5,0
Dilution Factor	1,0000
Weight	1,0000

Chromatogram Data Information:
Time Min. (min)	0,000167
Time Max. (min)	26,000167
Data Points	3121
Detector	EDet1
Generating Data System	Chromeleon 7.2.9.11323
Exporting Data System	Chromeleon 7.2.9.0
Operator	Instrument Controller
Signal Quantity	
Signal Unit	nC
Signal Min.	-1,591800
Signal Max.	435,556706
Channel	ED_1
Driver Name	DC-5000
Channel Type	Evaluation
Min. Step (s)	0,5
Max. Step (s)	0,5
Average Step (s)	0,5

Signal Parameter Information:
Signal Info	

Chromatogram Data:
Time (min)	Step (s)	Value (nC)
0,000167	n.a.	-0,042350
0,008500	0,5	-0,041650
0,016833	0,5	-0,041350
0,025167	0,5	-0,036050
0,033500	0,5	-0,028250
0,041833	0,5	-0,002000
0,050167	0,5	-0,004100
0,058500	0,5	-0,006750
0,066833	0,5	-0,007400
0,075167	0,5	0,001200
0,083500	0,5	0,004300
0,091833	0,5	-0,002050
0,100167	0,5	-0,003600
0,108500	0,5	-0,005900
0,116833	0,5	-0,001450
0,125167	0,5	0,001800
0,133500	0,5	0,014350
0,141833	0,5	-0,001000
0,150167	0,5	0,014100
0,158500	0,5	-0,012700
0,166833	0,5	-0,008250
0,175167	0,5	-0,006850
0,183500	0,5	0,008550
0,191833	0,5	0,023400
0,200167	0,5	0,015800
0,208500	0,5	0,012600
0,216833	0,5	0,015500
0,225167	0,5	0,014750
0,233500	0,5	0,012900
0,241833	0,5	0,009100
0,250167	0,5	0,006800
0,258500	0,5	0,010250
0,266833	0,5	0,008550
0,275167	0,5	0,012100
0,283500	0,5	0,007900
0,291833	0,5	0,046750
0,300167	0,5	0,058550
0,308500	0,5	0,020450
0,316833	0,5	-0,000300
0,325167	0,5	-0,004350
0,333500	0,5	-0,000850
0,341833	0,5	0,010450
0,350167	0,5	0,011200
0,358500	0,5	0,017800
0,366833	0,5	0,016400
0,375167	0,5	0,020900
0,383500	0,5	0,009150
0,391833	0,5	0,013000
0,400167	0,5	0,007900
0,408500	0,5	0,008450
0,416833	0,5	0,009550
0,425167	0,5	0,000550
0,433500	0,5	0,000050
0,441833	0,5	0,012650
0,450167	0,5	0,002850
0,458500	0,5	-0,006450
0,466833	0,5	0,002800
0,475167	0,5	-0,000200
0,483500	0,5	0,020150
0,491833	0,5	0,019750
0,500167	0,5	0,026800
0,508500	0,5	0,017000
0,516833	0,5	0,022750
0,525167	0,5	0,013350
0,533500	0,5	0,019650
0,541833	0,5	0,015400
0,550167	0,5	0,022900
0,558500	0,5	0,020500
0,566833	0,5	0,017900
0,575167	0,5	0,009450
0,583500	0,5	0,017250
0,591833	0,5	0,031550
0,600167	0,5	0,013950
0,608500	0,5	0,009250
0,616833	0,5	0,014600
0,625167	0,5	0,021050
0,633500	0,5	0,037300
0,641833	0,5	0,033550
0,650167	0,5	0,033100
0,658500	0,5	0,039000
0,666833	0,5	0,036450
0,675167	0,5	0,041900
0,683500	0,5	0,032200
0,691833	0,5	0,036500
0,700167	0,5	0,030700
0,708500	0,5	0,037600
0,716833	0,5	0,038600
0,725167	0,5	0,035750
0,733500	0,5	0,042700
0,741833	0,5	0,053100
0,750167	0,5	0,034600
0,758500	0,5	0,032600
0,766833	0,5	0,037400
0,775167	0,5	0,048750
0,783500	0,5	0,062250
0,791833	0,5	0,051750
0,800167	0,5	0,051850
0,808500	0,5	0,053700
0,816833	0,5	0,057300
0,825167	0,5	0,052300
0,833500	0,5	0,061850
0,841833	0,5	0,058200
0,850167	0,5	0,060700
0,858500	0,5	0,059850
0,866833	0,5	0,062950
0,875167	0,5	0,054700
0,883500	0,5	0,069600
0,891833	0,5	0,064500
0,900167	0,5	0,060100
0,908500	0,5	0,060900
0,916833	0,5	0,069550
0,925167	0,5	0,080650
0,933500	0,5	0,095700
0,941833	0,5	0,088700
0,950167	0,5	0,090500
0,958500	0,5	0,088450
0,966833	0,5	0,087400
0,975167	0,5	0,093200
0,983500	0,5	0,090700
0,991833	0,5	0,089700
1,000167	0,5	0,086150
1,008500	0,5	0,090200
1,016833	0,5	0,085350
1,025167	0,5	0,091150
1,033500	0,5	0,104700
1,041833	0,5	0,098150
1,050167	0,5	0,089900
1,058500	0,5	0,089450
1,066833	0,5	0,097850
1,075167	0,5	0,116450
1,083500	0,5	0,123300
1,091833	0,5	0,124700
1,100167	0,5	0,118800
1,108500	0,5	0,125750
1,116833	0,5	0,119850
1,125167	0,5	0,126200
1,133500	0,5	0,124250
1,141833	0,5	0,120550
1,150167	0,5	0,124100
1,158500	0,5	0,117800
1,166833	0,5	0,118100
1,175167	0,5	0,123450
1,183500	0,5	0,130400
1,191833	0,5	0,111950
1,200167	0,5	0,112200
1,208500	0,5	0,115650
1,216833	0,5	0,136500
1,225167	0,5	0,143150
1,233500	0,5	0,144550
1,241833	0,5	0,130250
1,250167	0,5	0,136400
1,258500	0,5	0,131750
1,266833	0,5	0,136400
1,275167	0,5	0,130250
1,283500	0,5	0,127400
1,291833	0,5	0,120550
1,300167	0,5	0,120600
1,308500	0,5	0,126600
1,316833	0,5	0,119850
1,325167	0,5	0,132700
1,333500	0,5	0,122250
1,341833	0,5	0,112050
1,350167	0,5	0,107500
1,358500	0,5	0,111550
1,366833	0,5	0,120750
1,375167	0,5	0,123800
1,383500	0,5	0,112900
1,391833	0,5	0,116900
1,400167	0,5	0,110200
1,408500	0,5	0,118150
1,416833	0,5	0,110300
1,425167	0,5	0,109500
1,433500	0,5	0,098150
1,441833	0,5	0,097950
1,450167	0,5	0,099700
1,458500	0,5	0,103100
1,466833	0,5	0,093250
1,475167	0,5	0,112850
1,483500	0,5	0,090750
1,491833	0,5	0,083250
1,500167	0,5	0,079550
1,508500	0,5	0,084800
1,516833	0,5	0,101450
1,525167	0,5	0,090550
1,533500	0,5	0,084200
1,541833	0,5	0,082100
1,550167	0,5	0,090100
1,558500	0,5	0,090800
1,566833	0,5	0,055300
1,575167	0,5	-0,026100
1,583500	0,5	0,814550
1,591833	0,5	6,007500
1,600167	0,5	25,156200
1,608500	0,5	80,650601
1,616833	0,5	194,619203
1,625167	0,5	338,082005
1,633500	0,5	433,944856
1,641833	0,5	435,556706
1,650167	0,5	364,454505
1,658500	0,5	272,716504
1,666833	0,5	194,700003
1,675167	0,5	139,188502
1,683500	0,5	102,722852
1,691833	0,5	79,806551
1,700167	0,5	65,728701
1,708500	0,5	56,511851
1,716833	0,5	49,459301
1,725167	0,5	44,114051
1,733500	0,5	41,730001
1,741833	0,5	43,924751
1,750167	0,5	50,525901
1,758500	0,5	58,566001
1,766833	0,5	64,334651
1,775167	0,5	65,817751
1,783500	0,5	63,179651
1,791833	0,5	58,043901
1,800167	0,5	52,259801
1,808500	0,5	47,129451
1,816833	0,5	42,999951
1,825167	0,5	39,878751
1,833500	0,5	37,865901
1,841833	0,5	36,942901
1,850167	0,5	36,539551
1,858500	0,5	35,840651
1,866833	0,5	34,779951
1,875167	0,5	34,173451
1,883500	0,5	35,080451
1,891833	0,5	38,656301
1,900167	0,5	45,923051
1,908500	0,5	55,922351
1,916833	0,5	64,956101
1,925167	0,5	69,009101
1,933500	0,5	66,906451
1,941833	0,5	60,195351
1,950167	0,5	52,151701
1,958500	0,5	45,498351
1,966833	0,5	41,035801
1,975167	0,5	38,294101
1,983500	0,5	37,045251
1,991833	0,5	37,364751
2,000167	0,5	37,974251
2,008500	0,5	36,702601
2,016833	0,5	33,623001
2,025167	0,5	30,439000
2,033500	0,5	28,264950
2,041833	0,5	27,616000
2,050167	0,5	29,167700
2,058500	0,5	33,081500
2,066833	0,5	36,752101
2,075167	0,5	36,520501
2,083500	0,5	32,648850
2,091833	0,5	28,123600
2,100167	0,5	24,688400
2,108500	0,5	22,411050
2,116833	0,5	20,866850
2,125167	0,5	19,801750
2,133500	0,5	18,933350
2,141833	0,5	18,198200
2,150167	0,5	17,618550
2,158500	0,5	17,265200
2,166833	0,5	17,150500
2,175167	0,5	17,545700
2,183500	0,5	19,288150
2,191833	0,5	22,833900
2,200167	0,5	23,576600
2,208500	0,5	20,254800
2,216833	0,5	17,157350
2,225167	0,5	15,625750
2,233500	0,5	14,982950
2,241833	0,5	14,713100
2,250167	0,5	14,685250
2,258500	0,5	14,868450
2,266833	0,5	15,341650
2,275167	0,5	16,394850
2,283500	0,5	18,560400
2,291833	0,5	22,098000
2,300167	0,5	26,315050
2,308500	0,5	29,585200
2,316833	0,5	30,678900
2,325167	0,5	29,581250
2,333500	0,5	27,319000
2,341833	0,5	25,175300
2,350167	0,5	24,142250
2,358500	0,5	24,952250
2,366833	0,5	28,574600
2,375167	0,5	36,610151
2,383500	0,5	50,482651
2,391833	0,5	68,591801
2,400167	0,5	84,520301
2,408500	0,5	90,544451
2,416833	0,5	84,586451
2,425167	0,5	71,490901
2,433500	0,5	58,019151
2,441833	0,5	48,815501
2,450167	0,5	45,873151
2,458500	0,5	48,934501
2,466833	0,5	54,874301
2,475167	0,5	59,042101
2,483500	0,5	58,529751
2,491833	0,5	53,662851
2,500167	0,5	46,490401
2,508500	0,5	38,962651
2,516833	0,5	32,215500
2,525167	0,5	26,854200
2,533500	0,5	22,981800
2,541833	0,5	20,393250
2,550167	0,5	18,762300
2,558500	0,5	17,776300
2,566833	0,5	17,294350
2,575167	0,5	17,313400
2,583500	0,5	17,958400
2,591833	0,5	19,231150
2,600167	0,5	20,771250
2,608500	0,5	21,824100
2,616833	0,5	21,771650
2,625167	0,5	20,589250
2,633500	0,5	18,819050
2,641833	0,5	17,068050
2,650167	0,5	15,749700
2,658500	0,5	14,942200
2,666833	0,5	14,591750
2,675167	0,5	14,716300
2,683500	0,5	15,516500
2,691833	0,5	17,450100
2,700167	0,5	21,034550
2,708500	0,5	26,015300
2,716833	0,5	30,880250
2,725167	0,5	33,485550
2,733500	0,5	32,790500
2,741833	0,5	29,388100
2,750167	0,5	24,785550
2,758500	0,5	20,419600
2,766833	0,5	17,041300
2,775167	0,5	14,728800
2,783500	0,5	13,190200
2,791833	0,5	12,157200
2,800167	0,5	11,444250
2,808500	0,5	10,928700
2,816833	0,5	10,534950
2,825167	0,5	10,260950
2,833500	0,5	10,060100
2,841833	0,5	9,904500
2,850167	0,5	9,760500
2,858500	0,5	9,597800
2,866833	0,5	9,452550
2,875167	0,5	9,353950
2,883500	0,5	9,289450
2,891833	0,5	9,241600
2,900167	0,5	9,147100
2,908500	0,5	8,994900
2,916833	0,5	8,794400
2,925167	0,5	8,574750
2,933500	0,5	8,354500
2,941833	0,5	8,133100
2,950167	0,5	7,931550
2,958500	0,5	7,737400
2,966833	0,5	7,577150
2,975167	0,5	7,490600
2,983500	0,5	7,484950
2,991833	0,5	7,546550
3,000167	0,5	7,652050
3,008500	0,5	7,752000
3,016833	0,5	7,831700
3,025167	0,5	7,847500
3,033500	0,5	7,800350
3,041833	0,5	7,698100
3,050167	0,5	7,585950
3,058500	0,5	7,474500
3,066833	0,5	7,395100
3,075167	0,5	7,333550
3,083500	0,5	7,270250
3,091833	0,5	7,191950
3,100167	0,5	7,078450
3,108500	0,5	6,913250
3,116833	0,5	6,743250
3,125167	0,5	6,575750
3,133500	0,5	6,421450
3,141833	0,5	6,288600
3,150167	0,5	6,157100
3,158500	0,5	6,048050
3,166833	0,5	5,953600
3,175167	0,5	5,874700
3,183500	0,5	5,793050
3,191833	0,5	5,716850
3,200167	0,5	5,623300
3,208500	0,5	5,525600
3,216833	0,5	5,430850
3,225167	0,5	5,343750
3,233500	0,5	5,258400
3,241833	0,5	5,204250
3,250167	0,5	5,149900
3,258500	0,5	5,103700
3,266833	0,5	5,070800
3,275167	0,5	5,058150
3,283500	0,5	5,061400
3,291833	0,5	5,076800
3,300167	0,5	5,103250
3,308500	0,5	5,161900
3,316833	0,5	5,267750
3,325167	0,5	5,445150
3,333500	0,5	5,752050
3,341833	0,5	6,205900
3,350167	0,5	6,850150
3,358500	0,5	7,640800
3,366833	0,5	8,514750
3,375167	0,5	9,343300
3,383500	0,5	10,023100
3,391833	0,5	10,530000
3,400167	0,5	10,912850
3,408500	0,5	11,338200
3,416833	0,5	11,979300
3,425167	0,5	12,892500
3,433500	0,5	13,972850
3,441833	0,5	14,904350
3,450167	0,5	15,363200
3,458500	0,5	15,134450
3,466833	0,5	14,188300
3,475167	0,5	12,704050
3,483500	0,5	10,981700
3,491833	0,5	9,318450
3,500167	0,5	7,911750
3,508500	0,5	6,854050
3,516833	0,5	6,121200
3,525167	0,5	5,642650
3,533500	0,5	5,319900
3,541833	0,5	5,124200
3,550167	0,5	4,955600
3,558500	0,5	4,836150
3,566833	0,5	4,735850
3,575167	0,5	4,672550
3,583500	0,5	4,633950
3,591833	0,5	4,612850
3,600167	0,5	4,604400
3,608500	0,5	4,599950
3,616833	0,5	4,587700
3,625167	0,5	4,563900
3,633500	0,5	4,515650
3,641833	0,5	4,444200
3,650167	0,5	4,360850
3,658500	0,5	4,267050
3,666833	0,5	4,183750
3,675167	0,5	4,089700
3,683500	0,5	4,025200
3,691833	0,5	3,965050
3,700167	0,5	3,904700
3,708500	0,5	3,854350
3,716833	0,5	3,815300
3,725167	0,5	3,790200
3,733500	0,5	3,775650
3,741833	0,5	3,763200
3,750167	0,5	3,781900
3,758500	0,5	3,826000
3,766833	0,5	3,915500
3,775167	0,5	4,028700
3,783500	0,5	4,176850
3,791833	0,5	4,316000
3,800167	0,5	4,419600
3,808500	0,5	4,462300
3,816833	0,5	4,427400
3,825167	0,5	4,315000
3,833500	0,5	4,179900
3,841833	0,5	4,008950
3,850167	0,5	3,837100
3,858500	0,5	3,698850
3,866833	0,5	3,590100
3,875167	0,5	3,527750
3,883500	0,5	3,480950
3,891833	0,5	3,456800
3,900167	0,5	3,447050
3,908500	0,5	3,463200
3,916833	0,5	3,478300
3,925167	0,5	3,506450
3,933500	0,5	3,531450
3,941833	0,5	3,557000
3,950167	0,5	3,576850
3,958500	0,5	3,596250
3,966833	0,5	3,614000
3,975167	0,5	3,615650
3,983500	0,5	3,634500
3,991833	0,5	3,622750
4,000167	0,5	3,620650
4,008500	0,5	3,609500
4,016833	0,5	3,608850
4,025167	0,5	3,612300
4,033500	0,5	3,608200
4,041833	0,5	3,597950
4,050167	0,5	3,603950
4,058500	0,5	3,614550
4,066833	0,5	3,644350
4,075167	0,5	3,685450
4,083500	0,5	3,758150
4,091833	0,5	3,841900
4,100167	0,5	3,948950
4,108500	0,5	4,067200
4,116833	0,5	4,179150
4,125167	0,5	4,258950
4,133500	0,5	4,315050
4,141833	0,5	4,296900
4,150167	0,5	4,247350
4,158500	0,5	4,156650
4,166833	0,5	4,050800
4,175167	0,5	3,946950
4,183500	0,5	3,837000
4,191833	0,5	3,744700
4,200167	0,5	3,671800
4,208500	0,5	3,621700
4,216833	0,5	3,581100
4,225167	0,5	3,559500
4,233500	0,5	3,528050
4,241833	0,5	3,514900
4,250167	0,5	3,489550
4,258500	0,5	3,470250
4,266833	0,5	3,439400
4,275167	0,5	3,427200
4,283500	0,5	3,401550
4,291833	0,5	3,364100
4,300167	0,5	3,328650
4,308500	0,5	3,287100
4,316833	0,5	3,250500
4,325167	0,5	3,199400
4,333500	0,5	3,138050
4,341833	0,5	3,074100
4,350167	0,5	3,011800
4,358500	0,5	2,962350
4,366833	0,5	2,911900
4,375167	0,5	2,870950
4,383500	0,5	2,828150
4,391833	0,5	2,781900
4,400167	0,5	2,741450
4,408500	0,5	2,690650
4,416833	0,5	2,642500
4,425167	0,5	2,609550
4,433500	0,5	2,560450
4,441833	0,5	2,510750
4,450167	0,5	2,473050
4,458500	0,5	2,434750
4,466833	0,5	2,415700
4,475167	0,5	2,382500
4,483500	0,5	2,349150
4,491833	0,5	2,316850
4,500167	0,5	2,293550
4,508500	0,5	2,268900
4,516833	0,5	2,250050
4,525167	0,5	2,235150
4,533500	0,5	2,219400
4,541833	0,5	2,214150
4,550167	0,5	2,209500
4,558500	0,5	2,210750
4,566833	0,5	2,201800
4,575167	0,5	2,212200
4,583500	0,5	2,194050
4,591833	0,5	2,186700
4,600167	0,5	2,179600
4,608500	0,5	2,175750
4,616833	0,5	2,183150
4,625167	0,5	2,178500
4,633500	0,5	2,172400
4,641833	0,5	2,176450
4,650167	0,5	2,178650
4,658500	0,5	2,192700
4,666833	0,5	2,212200
4,675167	0,5	2,247600
4,683500	0,5	2,298500
4,691833	0,5	2,368300
4,700167	0,5	2,465250
4,708500	0,5	2,572000
4,716833	0,5	2,695150
4,725167	0,5	2,831500
4,733500	0,5	2,943350
4,741833	0,5	3,044550
4,750167	0,5	3,108150
4,758500	0,5	3,136400
4,766833	0,5	3,126100
4,775167	0,5	3,045000
4,783500	0,5	2,941400
4,791833	0,5	2,806700
4,800167	0,5	2,672300
4,808500	0,5	2,534450
4,816833	0,5	2,419050
4,825167	0,5	2,313850
4,833500	0,5	2,233800
4,841833	0,5	2,174750
4,850167	0,5	2,126450
4,858500	0,5	2,098000
4,866833	0,5	2,093250
4,875167	0,5	2,086150
4,883500	0,5	2,086800
4,891833	0,5	2,106950
4,900167	0,5	2,128950
4,908500	0,5	2,166000
4,916833	0,5	2,200200
4,925167	0,5	2,230450
4,933500	0,5	2,247300
4,941833	0,5	2,257400
4,950167	0,5	2,245400
4,958500	0,5	2,228000
4,966833	0,5	2,190700
4,975167	0,5	2,146000
4,983500	0,5	2,098600
4,991833	0,5	2,049650
5,000167	0,5	1,999800
5,008500	0,5	1,961400
5,016833	0,5	1,932900
5,025167	0,5	1,897950
5,033500	0,5	1,872950
5,041833	0,5	1,856500
5,050167	0,5	1,842950
5,058500	0,5	1,845600
5,066833	0,5	1,832600
5,075167	0,5	1,820900
5,083500	0,5	1,811850
5,091833	0,5	1,799700
5,100167	0,5	1,793350
5,108500	0,5	1,784450
5,116833	0,5	1,779500
5,125167	0,5	1,767800
5,133500	0,5	1,767400
5,141833	0,5	1,768000
5,150167	0,5	1,766900
5,158500	0,5	1,772750
5,166833	0,5	1,788850
5,175167	0,5	1,788350
5,183500	0,5	1,798950
5,191833	0,5	1,815700
5,200167	0,5	1,836850
5,208500	0,5	1,860850
5,216833	0,5	1,869700
5,225167	0,5	1,879100
5,233500	0,5	1,888500
5,241833	0,5	1,893150
5,250167	0,5	1,898950
5,258500	0,5	1,903550
5,266833	0,5	1,909650
5,275167	0,5	1,927250
5,283500	0,5	1,955150
5,291833	0,5	2,000000
5,300167	0,5	2,046700
5,308500	0,5	2,120850
5,316833	0,5	2,199550
5,325167	0,5	2,288550
5,333500	0,5	2,393000
5,341833	0,5	2,519700
5,350167	0,5	2,664550
5,358500	0,5	2,811150
5,366833	0,5	2,956800
5,375167	0,5	3,109050
5,383500	0,5	3,252800
5,391833	0,5	3,390050
5,400167	0,5	3,503950
5,408500	0,5	3,598350
5,416833	0,5	3,656700
5,425167	0,5	3,675800
5,433500	0,5	3,653050
5,441833	0,5	3,582150
5,450167	0,5	3,480500
5,458500	0,5	3,345950
5,466833	0,5	3,178100
5,475167	0,5	2,989500
5,483500	0,5	2,806350
5,491833	0,5	2,632250
5,500167	0,5	2,483000
5,508500	0,5	2,352150
5,516833	0,5	2,250600
5,525167	0,5	2,181150
5,533500	0,5	2,156150
5,541833	0,5	2,159200
5,550167	0,5	2,193800
5,558500	0,5	2,244500
5,566833	0,5	2,296900
5,575167	0,5	2,342600
5,583500	0,5	2,371450
5,591833	0,5	2,374250
5,600167	0,5	2,358500
5,608500	0,5	2,328550
5,616833	0,5	2,279300
5,625167	0,5	2,234500
5,633500	0,5	2,201700
5,641833	0,5	2,195550
5,650167	0,5	2,210800
5,658500	0,5	2,237850
5,666833	0,5	2,271800
5,675167	0,5	2,318950
5,683500	0,5	2,362100
5,691833	0,5	2,398450
5,700167	0,5	2,414400
5,708500	0,5	2,416150
5,716833	0,5	2,392050
5,725167	0,5	2,351500
5,733500	0,5	2,298450
5,741833	0,5	2,231900
5,750167	0,5	2,172500
5,758500	0,5	2,109200
5,766833	0,5	2,045600
5,775167	0,5	1,996500
5,783500	0,5	1,954600
5,791833	0,5	1,926650
5,800167	0,5	1,896550
5,808500	0,5	1,854800
5,816833	0,5	1,819200
5,825167	0,5	1,779700
5,833500	0,5	1,743150
5,841833	0,5	1,699450
5,850167	0,5	1,664600
5,858500	0,5	1,625050
5,866833	0,5	1,596600
5,875167	0,5	1,570950
5,883500	0,5	1,553600
5,891833	0,5	1,533800
5,900167	0,5	1,532900
5,908500	0,5	1,525600
5,916833	0,5	1,524800
5,925167	0,5	1,524000
5,933500	0,5	1,533300
5,941833	0,5	1,546100
5,950167	0,5	1,554650
5,958500	0,5	1,555150
5,966833	0,5	1,554800
5,975167	0,5	1,553750
5,983500	0,5	1,540500
5,991833	0,5	1,528300
6,000167	0,5	1,506250
6,008500	0,5	1,490500
6,016833	0,5	1,468350
6,025167	0,5	1,454300
6,033500	0,5	1,432550
6,041833	0,5	1,423350
6,050167	0,5	1,415550
6,058500	0,5	1,407850
6,066833	0,5	1,407150
6,075167	0,5	1,415000
6,083500	0,5	1,423500
6,091833	0,5	1,443650
6,100167	0,5	1,458900
6,108500	0,5	1,472300
6,116833	0,5	1,490200
6,125167	0,5	1,516250
6,133500	0,5	1,554550
6,141833	0,5	1,611500
6,150167	0,5	1,697950
6,158500	0,5	1,809350
6,166833	0,5	1,941550
6,175167	0,5	2,070400
6,183500	0,5	2,171700
6,191833	0,5	2,222900
6,200167	0,5	2,219600
6,208500	0,5	2,156650
6,216833	0,5	2,066500
6,225167	0,5	1,970500
6,233500	0,5	1,891950
6,241833	0,5	1,832450
6,250167	0,5	1,779250
6,258500	0,5	1,739150
6,266833	0,5	1,715800
6,275167	0,5	1,708350
6,283500	0,5	1,721650
6,291833	0,5	1,767300
6,300167	0,5	1,862650
6,308500	0,5	1,998100
6,316833	0,5	2,156000
6,325167	0,5	2,313950
6,333500	0,5	2,434600
6,341833	0,5	2,506900
6,350167	0,5	2,499200
6,358500	0,5	2,435300
6,366833	0,5	2,331100
6,375167	0,5	2,215650
6,383500	0,5	2,110150
6,391833	0,5	2,026250
6,400167	0,5	1,968150
6,408500	0,5	1,960900
6,416833	0,5	2,001700
6,425167	0,5	2,098000
6,433500	0,5	2,263800
6,441833	0,5	2,412050
6,450167	0,5	2,435250
6,458500	0,5	2,366300
6,466833	0,5	2,212200
6,475167	0,5	2,032650
6,483500	0,5	1,880350
6,491833	0,5	1,773550
6,500167	0,5	1,683900
6,508500	0,5	1,622500
6,516833	0,5	1,588950
6,525167	0,5	1,570350
6,533500	0,5	1,570700
6,541833	0,5	1,558000
6,550167	0,5	1,548450
6,558500	0,5	1,542200
6,566833	0,5	1,539250
6,575167	0,5	1,531700
6,583500	0,5	1,529700
6,591833	0,5	1,525650
6,600167	0,5	1,523850
6,608500	0,5	1,524550
6,616833	0,5	1,520750
6,625167	0,5	1,518900
6,633500	0,5	1,522000
6,641833	0,5	1,526200
6,650167	0,5	1,524450
6,658500	0,5	1,525850
6,666833	0,5	1,530800
6,675167	0,5	1,538350
6,683500	0,5	1,547250
6,691833	0,5	1,556850
6,700167	0,5	1,560250
6,708500	0,5	1,562150
6,716833	0,5	1,565800
6,725167	0,5	1,570750
6,733500	0,5	1,569850
6,741833	0,5	1,574550
6,750167	0,5	1,573400
6,758500	0,5	1,577300
6,766833	0,5	1,575150
6,775167	0,5	1,578450
6,783500	0,5	1,585300
6,791833	0,5	1,583200
6,800167	0,5	1,579450
6,808500	0,5	1,581950
6,816833	0,5	1,586700
6,825167	0,5	1,598650
6,833500	0,5	1,607000
6,841833	0,5	1,611850
6,850167	0,5	1,615800
6,858500	0,5	1,625300
6,866833	0,5	1,637600
6,875167	0,5	1,645500
6,883500	0,5	1,655350
6,891833	0,5	1,662200
6,900167	0,5	1,676950
6,908500	0,5	1,687850
6,916833	0,5	1,695350
6,925167	0,5	1,700500
6,933500	0,5	1,716250
6,941833	0,5	1,721000
6,950167	0,5	1,727650
6,958500	0,5	1,730650
6,966833	0,5	1,735100
6,975167	0,5	1,743050
6,983500	0,5	1,739650
6,991833	0,5	1,736100
7,000167	0,5	1,728700
7,008500	0,5	1,718500
7,016833	0,5	1,707300
7,025167	0,5	1,691600
7,033500	0,5	1,678900
7,041833	0,5	1,658450
7,050167	0,5	1,643250
7,058500	0,5	1,628300
7,066833	0,5	1,612200
7,075167	0,5	1,595100
7,083500	0,5	1,589200
7,091833	0,5	1,575850
7,100167	0,5	1,577550
7,108500	0,5	1,572050
7,116833	0,5	1,579600
7,125167	0,5	1,590700
7,133500	0,5	1,597700
7,141833	0,5	1,608300
7,150167	0,5	1,621450
7,158500	0,5	1,638050
7,166833	0,5	1,653700
7,175167	0,5	1,675350
7,183500	0,5	1,700150
7,191833	0,5	1,727100
7,200167	0,5	1,757750
7,208500	0,5	1,792250
7,216833	0,5	1,833250
7,225167	0,5	1,885250
7,233500	0,5	1,942050
7,241833	0,5	2,005350
7,250167	0,5	2,087200
7,258500	0,5	2,181650
7,266833	0,5	2,299700
7,275167	0,5	2,443050
7,283500	0,5	2,613250
7,291833	0,5	2,812050
7,300167	0,5	3,057500
7,308500	0,5	3,349550
7,316833	0,5	3,698250
7,325167	0,5	4,097150
7,333500	0,5	4,552750
7,341833	0,5	5,051900
7,350167	0,5	5,576950
7,358500	0,5	6,102050
7,366833	0,5	6,590400
7,375167	0,5	7,011300
7,383500	0,5	7,324850
7,391833	0,5	7,494150
7,400167	0,5	7,501150
7,408500	0,5	7,351000
7,416833	0,5	7,046650
7,425167	0,5	6,615850
7,433500	0,5	6,077300
7,441833	0,5	5,491850
7,450167	0,5	4,887300
7,458500	0,5	4,311950
7,466833	0,5	3,782650
7,475167	0,5	3,327550
7,483500	0,5	2,944750
7,491833	0,5	2,639050
7,500167	0,5	2,407600
7,508500	0,5	2,234400
7,516833	0,5	2,112300
7,525167	0,5	2,037600
7,533500	0,5	1,985200
7,541833	0,5	1,959850
7,550167	0,5	1,944550
7,558500	0,5	1,949250
7,566833	0,5	1,968950
7,575167	0,5	1,991150
7,583500	0,5	2,022900
7,591833	0,5	2,068750
7,600167	0,5	2,129350
7,608500	0,5	2,198800
7,616833	0,5	2,279650
7,625167	0,5	2,361500
7,633500	0,5	2,440350
7,641833	0,5	2,504650
7,650167	0,5	2,546600
7,658500	0,5	2,552500
7,666833	0,5	2,539950
7,675167	0,5	2,495700
7,683500	0,5	2,426000
7,691833	0,5	2,343200
7,700167	0,5	2,244500
7,708500	0,5	2,151400
7,716833	0,5	2,064600
7,725167	0,5	1,978500
7,733500	0,5	1,901850
7,741833	0,5	1,835650
7,750167	0,5	1,783650
7,758500	0,5	1,738950
7,766833	0,5	1,702250
7,775167	0,5	1,677550
7,783500	0,5	1,659650
7,791833	0,5	1,649900
7,800167	0,5	1,641100
7,808500	0,5	1,637000
7,816833	0,5	1,636000
7,825167	0,5	1,640650
7,833500	0,5	1,638400
7,841833	0,5	1,638650
7,850167	0,5	1,639250
7,858500	0,5	1,640850
7,866833	0,5	1,644250
7,875167	0,5	1,643250
7,883500	0,5	1,638300
7,891833	0,5	1,635400
7,900167	0,5	1,628750
7,908500	0,5	1,623300
7,916833	0,5	1,616550
7,925167	0,5	1,605300
7,933500	0,5	1,592850
7,941833	0,5	1,587700
7,950167	0,5	1,578150
7,958500	0,5	1,570500
7,966833	0,5	1,572700
7,975167	0,5	1,575150
7,983500	0,5	1,576450
7,991833	0,5	1,585600
8,000167	0,5	1,607700
8,008500	0,5	1,640900
8,016833	0,5	1,693850
8,025167	0,5	1,771400
8,033500	0,5	1,873050
8,041833	0,5	1,990050
8,050167	0,5	2,110000
8,058500	0,5	2,217750
8,066833	0,5	2,309500
8,075167	0,5	2,375500
8,083500	0,5	2,441450
8,091833	0,5	2,515900
8,100167	0,5	2,615700
8,108500	0,5	2,754200
8,116833	0,5	2,939550
8,125167	0,5	3,155900
8,133500	0,5	3,414500
8,141833	0,5	3,708800
8,150167	0,5	4,020850
8,158500	0,5	4,340850
8,166833	0,5	4,641400
8,175167	0,5	4,917150
8,183500	0,5	5,147600
8,191833	0,5	5,329550
8,200167	0,5	5,460550
8,208500	0,5	5,544500
8,216833	0,5	5,589750
8,225167	0,5	5,595000
8,233500	0,5	5,561000
8,241833	0,5	5,484600
8,250167	0,5	5,337000
8,258500	0,5	5,115100
8,266833	0,5	4,813650
8,275167	0,5	4,433900
8,283500	0,5	4,000600
8,291833	0,5	3,561550
8,300167	0,5	3,148200
8,308500	0,5	2,789650
8,316833	0,5	2,497650
8,325167	0,5	2,272600
8,333500	0,5	2,100900
8,341833	0,5	1,982300
8,350167	0,5	1,902300
8,358500	0,5	1,850850
8,366833	0,5	1,816250
8,375167	0,5	1,803650
8,383500	0,5	1,807000
8,391833	0,5	1,830300
8,400167	0,5	1,869900
8,408500	0,5	1,927800
8,416833	0,5	1,991000
8,425167	0,5	2,059650
8,433500	0,5	2,123650
8,441833	0,5	2,177800
8,450167	0,5	2,221900
8,458500	0,5	2,250000
8,466833	0,5	2,250400
8,475167	0,5	2,227900
8,483500	0,5	2,174400
8,491833	0,5	2,094950
8,500167	0,5	1,986050
8,508500	0,5	1,873600
8,516833	0,5	1,764500
8,525167	0,5	1,671800
8,533500	0,5	1,593900
8,541833	0,5	1,536000
8,550167	0,5	1,492200
8,558500	0,5	1,467700
8,566833	0,5	1,461300
8,575167	0,5	1,470100
8,583500	0,5	1,507150
8,591833	0,5	1,575500
8,600167	0,5	1,660100
8,608500	0,5	1,745600
8,616833	0,5	1,807850
8,625167	0,5	1,837950
8,633500	0,5	1,841450
8,641833	0,5	1,830600
8,650167	0,5	1,812200
8,658500	0,5	1,790600
8,666833	0,5	1,767400
8,675167	0,5	1,728850
8,683500	0,5	1,683000
8,691833	0,5	1,624200
8,700167	0,5	1,559050
8,708500	0,5	1,504150
8,716833	0,5	1,447800
8,725167	0,5	1,400100
8,733500	0,5	1,373100
8,741833	0,5	1,357150
8,750167	0,5	1,352350
8,758500	0,5	1,350050
8,766833	0,5	1,347450
8,775167	0,5	1,340450
8,783500	0,5	1,330450
8,791833	0,5	1,316950
8,800167	0,5	1,304000
8,808500	0,5	1,296950
8,816833	0,5	1,297100
8,825167	0,5	1,314600
8,833500	0,5	1,351150
8,841833	0,5	1,404350
8,850167	0,5	1,473700
8,858500	0,5	1,556950
8,866833	0,5	1,633750
8,875167	0,5	1,688500
8,883500	0,5	1,718700
8,891833	0,5	1,719000
8,900167	0,5	1,689850
8,908500	0,5	1,641750
8,916833	0,5	1,585350
8,925167	0,5	1,522300
8,933500	0,5	1,480900
8,941833	0,5	1,442550
8,950167	0,5	1,422300
8,958500	0,5	1,415900
8,966833	0,5	1,428250
8,975167	0,5	1,454000
8,983500	0,5	1,500250
8,991833	0,5	1,577350
9,000167	0,5	1,679400
9,008500	0,5	1,795950
9,016833	0,5	1,892250
9,025167	0,5	1,954950
9,033500	0,5	1,958050
9,041833	0,5	1,906250
9,050167	0,5	1,821850
9,058500	0,5	1,720550
9,066833	0,5	1,629300
9,075167	0,5	1,561550
9,083500	0,5	1,522850
9,091833	0,5	1,516200
9,100167	0,5	1,543600
9,108500	0,5	1,593500
9,116833	0,5	1,655300
9,125167	0,5	1,708650
9,133500	0,5	1,740900
9,141833	0,5	1,730450
9,150167	0,5	1,690600
9,158500	0,5	1,624250
9,166833	0,5	1,544200
9,175167	0,5	1,468000
9,183500	0,5	1,407300
9,191833	0,5	1,364950
9,200167	0,5	1,334600
9,208500	0,5	1,312300
9,216833	0,5	1,301350
9,225167	0,5	1,290550
9,233500	0,5	1,284850
9,241833	0,5	1,277550
9,250167	0,5	1,269350
9,258500	0,5	1,265100
9,266833	0,5	1,266000
9,275167	0,5	1,269900
9,283500	0,5	1,279250
9,291833	0,5	1,295050
9,300167	0,5	1,320900
9,308500	0,5	1,353100
9,316833	0,5	1,390350
9,325167	0,5	1,441650
9,333500	0,5	1,513800
9,341833	0,5	1,623700
9,350167	0,5	1,764350
9,358500	0,5	1,927500
9,366833	0,5	2,086150
9,375167	0,5	2,203000
9,383500	0,5	2,257950
9,391833	0,5	2,242600
9,400167	0,5	2,166850
9,408500	0,5	2,057100
9,416833	0,5	1,928550
9,425167	0,5	1,804100
9,433500	0,5	1,692000
9,441833	0,5	1,608050
9,450167	0,5	1,545850
9,458500	0,5	1,514600
9,466833	0,5	1,507850
9,475167	0,5	1,542100
9,483500	0,5	1,620450
9,491833	0,5	1,770000
9,500167	0,5	2,017200
9,508500	0,5	2,374500
9,516833	0,5	2,843600
9,525167	0,5	3,382800
9,533500	0,5	3,913350
9,541833	0,5	4,335350
9,550167	0,5	4,576500
9,558500	0,5	4,596400
9,566833	0,5	4,420250
9,575167	0,5	4,099300
9,583500	0,5	3,705750
9,591833	0,5	3,300650
9,600167	0,5	2,917350
9,608500	0,5	2,574900
9,616833	0,5	2,280150
9,625167	0,5	2,042050
9,633500	0,5	1,873400
9,641833	0,5	1,765050
9,650167	0,5	1,709500
9,658500	0,5	1,705500
9,666833	0,5	1,729900
9,675167	0,5	1,772400
9,683500	0,5	1,832300
9,691833	0,5	1,909650
9,700167	0,5	2,021400
9,708500	0,5	2,183300
9,716833	0,5	2,404000
9,725167	0,5	2,680950
9,733500	0,5	2,992200
9,741833	0,5	3,314850
9,750167	0,5	3,598300
9,758500	0,5	3,801600
9,766833	0,5	3,889850
9,775167	0,5	3,855200
9,783500	0,5	3,715650
9,791833	0,5	3,492700
9,800167	0,5	3,217800
9,808500	0,5	2,921900
9,816833	0,5	2,638350
9,825167	0,5	2,378700
9,833500	0,5	2,150050
9,841833	0,5	1,960150
9,850167	0,5	1,808850
9,858500	0,5	1,696950
9,866833	0,5	1,628100
9,875167	0,5	1,575450
9,883500	0,5	1,551000
9,891833	0,5	1,541350
9,900167	0,5	1,542350
9,908500	0,5	1,548900
9,916833	0,5	1,565900
9,925167	0,5	1,592600
9,933500	0,5	1,634300
9,941833	0,5	1,679250
9,950167	0,5	1,712750
9,958500	0,5	1,731900
9,966833	0,5	1,724800
9,975167	0,5	1,693400
9,983500	0,5	1,649100
9,991833	0,5	1,593350
10,000167	0,5	1,539800
10,008500	0,5	1,508050
10,016833	0,5	1,500700
10,025167	0,5	1,523500
10,033500	0,5	1,587900
10,041833	0,5	1,698500
10,050167	0,5	1,830500
10,058500	0,5	1,970450
10,066833	0,5	2,081350
10,075167	0,5	2,141800
10,083500	0,5	2,143150
10,091833	0,5	2,084800
10,100167	0,5	1,988600
10,108500	0,5	1,883000
10,116833	0,5	1,772800
10,125167	0,5	1,688000
10,133500	0,5	1,617100
10,141833	0,5	1,572600
10,150167	0,5	1,549700
10,158500	0,5	1,546400
10,166833	0,5	1,559000
10,175167	0,5	1,580400
10,183500	0,5	1,620150
10,191833	0,5	1,673500
10,200167	0,5	1,732350
10,208500	0,5	1,796200
10,216833	0,5	1,874050
10,225167	0,5	1,958550
10,233500	0,5	2,048900
10,241833	0,5	2,152200
10,250167	0,5	2,276400
10,258500	0,5	2,416400
10,266833	0,5	2,572800
10,275167	0,5	2,711100
10,283500	0,5	2,768900
10,291833	0,5	2,723400
10,300167	0,5	2,601000
10,308500	0,5	2,448500
10,316833	0,5	2,296150
10,325167	0,5	2,192200
10,333500	0,5	2,158700
10,341833	0,5	2,212550
10,350167	0,5	2,388850
10,358500	0,5	2,791850
10,366833	0,5	3,630500
10,375167	0,5	4,948150
10,383500	0,5	5,876900
10,391833	0,5	5,869450
10,400167	0,5	5,265700
10,408500	0,5	4,272350
10,416833	0,5	3,098550
10,425167	0,5	2,106150
10,433500	0,5	1,397500
10,441833	0,5	0,962700
10,450167	0,5	0,707700
10,458500	0,5	0,555250
10,466833	0,5	0,447700
10,475167	0,5	0,381950
10,483500	0,5	0,334000
10,491833	0,5	0,297350
10,500167	0,5	0,268200
10,508500	0,5	0,244050
10,516833	0,5	0,224900
10,525167	0,5	0,216100
10,533500	0,5	0,205300
10,541833	0,5	0,202000
10,550167	0,5	0,194650
10,558500	0,5	0,192850
10,566833	0,5	0,187050
10,575167	0,5	0,187000
10,583500	0,5	0,188350
10,591833	0,5	0,184700
10,600167	0,5	0,188100
10,608500	0,5	0,183900
10,616833	0,5	0,175450
10,625167	0,5	0,174750
10,633500	0,5	0,172200
10,641833	0,5	0,166000
10,650167	0,5	0,157700
10,658500	0,5	0,148250
10,666833	0,5	0,143850
10,675167	0,5	0,139350
10,683500	0,5	0,136400
10,691833	0,5	0,126950
10,700167	0,5	0,119300
10,708500	0,5	0,114350
10,716833	0,5	0,101900
10,725167	0,5	0,092850
10,733500	0,5	0,078800
10,741833	0,5	0,065650
10,750167	0,5	0,051150
10,758500	0,5	0,037200
10,766833	0,5	0,015800
10,775167	0,5	0,006250
10,783500	0,5	-0,006350
10,791833	0,5	-0,024650
10,800167	0,5	-0,038950
10,808500	0,5	-0,055400
10,816833	0,5	-0,062950
10,825167	0,5	-0,074650
10,833500	0,5	-0,084800
10,841833	0,5	-0,092300
10,850167	0,5	-0,102700
10,858500	0,5	-0,109850
10,866833	0,5	-0,117600
10,875167	0,5	-0,122050
10,883500	0,5	-0,126800
10,891833	0,5	-0,132450
10,900167	0,5	-0,136750
10,908500	0,5	-0,143850
10,916833	0,5	-0,149950
10,925167	0,5	-0,145850
10,933500	0,5	-0,150750
10,941833	0,5	-0,153750
10,950167	0,5	-0,155000
10,958500	0,5	-0,157250
10,966833	0,5	-0,148950
10,975167	0,5	-0,140500
10,983500	0,5	-0,136250
10,991833	0,5	-0,130150
11,000167	0,5	-0,117850
11,008500	0,5	-0,110100
11,016833	0,5	-0,095000
11,025167	0,5	-0,084550
11,033500	0,5	-0,071150
11,041833	0,5	-0,057700
11,050167	0,5	-0,045500
11,058500	0,5	-0,039400
11,066833	0,5	-0,032250
11,075167	0,5	-0,027350
11,083500	0,5	-0,026550
11,091833	0,5	-0,027700
11,100167	0,5	-0,032300
11,108500	0,5	-0,041450
11,116833	0,5	-0,044000
11,125167	0,5	-0,049650
11,133500	0,5	-0,059800
11,141833	0,5	-0,065900
11,150167	0,5	-0,078600
11,158500	0,5	-0,089800
11,166833	0,5	-0,096750
11,175167	0,5	-0,107500
11,183500	0,5	-0,114600
11,191833	0,5	-0,121750
11,200167	0,5	-0,127700
11,208500	0,5	-0,137200
11,216833	0,5	-0,138850
11,225167	0,5	-0,139900
11,233500	0,5	-0,146000
11,241833	0,5	-0,152000
11,250167	0,5	-0,157650
11,258500	0,5	-0,155900
11,266833	0,5	-0,152800
11,275167	0,5	-0,150800
11,283500	0,5	-0,150250
11,291833	0,5	-0,148950
11,300167	0,5	-0,146300
11,308500	0,5	-0,145950
11,316833	0,5	-0,142200
11,325167	0,5	-0,142700
11,333500	0,5	-0,139900
11,341833	0,5	-0,135250
11,350167	0,5	-0,134850
11,358500	0,5	-0,136100
11,366833	0,5	-0,129400
11,375167	0,5	-0,126850
11,383500	0,5	-0,125000
11,391833	0,5	-0,124700
11,400167	0,5	-0,122750
11,408500	0,5	-0,115650
11,416833	0,5	-0,107950
11,425167	0,5	-0,103450
11,433500	0,5	-0,097300
11,441833	0,5	-0,092250
11,450167	0,5	-0,084850
11,458500	0,5	-0,079850
11,466833	0,5	-0,066350
11,475167	0,5	-0,059500
11,483500	0,5	-0,055350
11,491833	0,5	-0,042250
11,500167	0,5	-0,037400
11,508500	0,5	-0,030750
11,516833	0,5	-0,018650
11,525167	0,5	-0,009650
11,533500	0,5	-0,004350
11,541833	0,5	0,000800
11,550167	0,5	0,003900
11,558500	0,5	0,014200
11,566833	0,5	0,023950
11,575167	0,5	0,027250
11,583500	0,5	0,033450
11,591833	0,5	0,038700
11,600167	0,5	0,042650
11,608500	0,5	0,043300
11,616833	0,5	0,046750
11,625167	0,5	0,043750
11,633500	0,5	0,039550
11,641833	0,5	0,038850
11,650167	0,5	0,032950
11,658500	0,5	0,032150
11,666833	0,5	0,030650
11,675167	0,5	0,023750
11,683500	0,5	0,020000
11,691833	0,5	0,008550
11,700167	0,5	0,004800
11,708500	0,5	0,001850
11,716833	0,5	0,002200
11,725167	0,5	-0,003250
11,733500	0,5	-0,005900
11,741833	0,5	-0,009850
11,750167	0,5	-0,014300
11,758500	0,5	-0,015850
11,766833	0,5	-0,018500
11,775167	0,5	-0,021250
11,783500	0,5	-0,024850
11,791833	0,5	-0,025500
11,800167	0,5	-0,028650
11,808500	0,5	-0,026850
11,816833	0,5	-0,026100
11,825167	0,5	-0,025150
11,833500	0,5	-0,024750
11,841833	0,5	-0,029050
11,850167	0,5	-0,023150
11,858500	0,5	-0,016600
11,866833	0,5	-0,014700
11,875167	0,5	-0,005850
11,883500	0,5	-0,003450
11,891833	0,5	0,005900
11,900167	0,5	0,011800
11,908500	0,5	0,018350
11,916833	0,5	0,026250
11,925167	0,5	0,035200
11,933500	0,5	0,045300
11,941833	0,5	0,050200
11,950167	0,5	0,063000
11,958500	0,5	0,082600
11,966833	0,5	0,096450
11,975167	0,5	0,106150
11,983500	0,5	0,120400
11,991833	0,5	0,133350
12,000167	0,5	0,157700
12,008500	0,5	0,171700
12,016833	0,5	0,190600
12,025167	0,5	0,208800
12,033500	0,5	0,229550
12,041833	0,5	0,240350
12,050167	0,5	0,263950
12,058500	0,5	0,283200
12,066833	0,5	0,301300
12,075167	0,5	0,318450
12,083500	0,5	0,337050
12,091833	0,5	0,348600
12,100167	0,5	0,371350
12,108500	0,5	0,395700
12,116833	0,5	0,415250
12,125167	0,5	0,435050
12,133500	0,5	0,458900
12,141833	0,5	0,488050
12,150167	0,5	0,521650
12,158500	0,5	0,560300
12,166833	0,5	0,593600
12,175167	0,5	0,639750
12,183500	0,5	0,677950
12,191833	0,5	0,725850
12,200167	0,5	0,770600
12,208500	0,5	0,815850
12,216833	0,5	0,856850
12,225167	0,5	0,887450
12,233500	0,5	0,914600
12,241833	0,5	0,930450
12,250167	0,5	0,944100
12,258500	0,5	0,950250
12,266833	0,5	0,946450
12,275167	0,5	0,941150
12,283500	0,5	0,932650
12,291833	0,5	0,927100
12,300167	0,5	0,928600
12,308500	0,5	0,924600
12,316833	0,5	0,924000
12,325167	0,5	0,925000
12,333500	0,5	0,923300
12,341833	0,5	0,927700
12,350167	0,5	0,932100
12,358500	0,5	0,936050
12,366833	0,5	0,944850
12,375167	0,5	0,954450
12,383500	0,5	0,964550
12,391833	0,5	0,976500
12,400167	0,5	0,992100
12,408500	0,5	1,006000
12,416833	0,5	1,016250
12,425167	0,5	1,027950
12,433500	0,5	1,035400
12,441833	0,5	1,048450
12,450167	0,5	1,063600
12,458500	0,5	1,076600
12,466833	0,5	1,090000
12,475167	0,5	1,101550
12,483500	0,5	1,113900
12,491833	0,5	1,124600
12,500167	0,5	1,133050
12,508500	0,5	1,148250
12,516833	0,5	1,164450
12,525167	0,5	1,186000
12,533500	0,5	1,198550
12,541833	0,5	1,230300
12,550167	0,5	1,258100
12,558500	0,5	1,282350
12,566833	0,5	1,297650
12,575167	0,5	1,305400
12,583500	0,5	1,310700
12,591833	0,5	1,312700
12,600167	0,5	1,307200
12,608500	0,5	1,297500
12,616833	0,5	1,284600
12,625167	0,5	1,274850
12,633500	0,5	1,261500
12,641833	0,5	1,256450
12,650167	0,5	1,250100
12,658500	0,5	1,247400
12,666833	0,5	1,245750
12,675167	0,5	1,247250
12,683500	0,5	1,241300
12,691833	0,5	1,253600
12,700167	0,5	1,260550
12,708500	0,5	1,263500
12,716833	0,5	1,270000
12,725167	0,5	1,266200
12,733500	0,5	1,275050
12,741833	0,5	1,279200
12,750167	0,5	1,281600
12,758500	0,5	1,281150
12,766833	0,5	1,279050
12,775167	0,5	1,273850
12,783500	0,5	1,273350
12,791833	0,5	1,272650
12,800167	0,5	1,275600
12,808500	0,5	1,282950
12,816833	0,5	1,290000
12,825167	0,5	1,299650
12,833500	0,5	1,299950
12,841833	0,5	1,307700
12,850167	0,5	1,302850
12,858500	0,5	1,299200
12,866833	0,5	1,288700
12,875167	0,5	1,272000
12,883500	0,5	1,271200
12,891833	0,5	1,271650
12,900167	0,5	1,267750
12,908500	0,5	1,269100
12,916833	0,5	1,264950
12,925167	0,5	1,265600
12,933500	0,5	1,263350
12,941833	0,5	1,261550
12,950167	0,5	1,257400
12,958500	0,5	1,251900
12,966833	0,5	1,248500
12,975167	0,5	1,245000
12,983500	0,5	1,244350
12,991833	0,5	1,247700
13,000167	0,5	1,246700
13,008500	0,5	1,249350
13,016833	0,5	1,251300
13,025167	0,5	1,253600
13,033500	0,5	1,268250
13,041833	0,5	1,274400
13,050167	0,5	1,283150
13,058500	0,5	1,284300
13,066833	0,5	1,280000
13,075167	0,5	1,273500
13,083500	0,5	1,266400
13,091833	0,5	1,259500
13,100167	0,5	1,247150
13,108500	0,5	1,239700
13,116833	0,5	1,235700
13,125167	0,5	1,222000
13,133500	0,5	1,223050
13,141833	0,5	1,223950
13,150167	0,5	1,221250
13,158500	0,5	1,219100
13,166833	0,5	1,212900
13,175167	0,5	1,219000
13,183500	0,5	1,218950
13,191833	0,5	1,223700
13,200167	0,5	1,220800
13,208500	0,5	1,226850
13,216833	0,5	1,225300
13,225167	0,5	1,225550
13,233500	0,5	1,229700
13,241833	0,5	1,230150
13,250167	0,5	1,229200
13,258500	0,5	1,232550
13,266833	0,5	1,234250
13,275167	0,5	1,233650
13,283500	0,5	1,242550
13,291833	0,5	1,241800
13,300167	0,5	1,242500
13,308500	0,5	1,236350
13,316833	0,5	1,221250
13,325167	0,5	1,217550
13,333500	0,5	1,218450
13,341833	0,5	1,213200
13,350167	0,5	1,217550
13,358500	0,5	1,219950
13,366833	0,5	1,228000
13,375167	0,5	1,231400
13,383500	0,5	1,236150
13,391833	0,5	1,237950
13,400167	0,5	1,239300
13,408500	0,5	1,242700
13,416833	0,5	1,237850
13,425167	0,5	1,233350
13,433500	0,5	1,236550
13,441833	0,5	1,228550
13,450167	0,5	1,219650
13,458500	0,5	1,208800
13,466833	0,5	1,200900
13,475167	0,5	1,202450
13,483500	0,5	1,210950
13,491833	0,5	1,218200
13,500167	0,5	1,229600
13,508500	0,5	1,245250
13,516833	0,5	1,253750
13,525167	0,5	1,269700
13,533500	0,5	1,278700
13,541833	0,5	1,287950
13,550167	0,5	1,288500
13,558500	0,5	1,286000
13,566833	0,5	1,271200
13,575167	0,5	1,267800
13,583500	0,5	1,256450
13,591833	0,5	1,243900
13,600167	0,5	1,233100
13,608500	0,5	1,227300
13,616833	0,5	1,230000
13,625167	0,5	1,233800
13,633500	0,5	1,237750
13,641833	0,5	1,240650
13,650167	0,5	1,238100
13,658500	0,5	1,229350
13,666833	0,5	1,222000
13,675167	0,5	1,218550
13,683500	0,5	1,216250
13,691833	0,5	1,223750
13,700167	0,5	1,246700
13,708500	0,5	1,269300
13,716833	0,5	1,292650
13,725167	0,5	1,329950
13,733500	0,5	1,354200
13,741833	0,5	1,352150
13,750167	0,5	1,336250
13,758500	0,5	1,303100
13,766833	0,5	1,283300
13,775167	0,5	1,254550
13,783500	0,5	1,230150
13,791833	0,5	1,218200
13,800167	0,5	1,213250
13,808500	0,5	1,218900
13,816833	0,5	1,226300
13,825167	0,5	1,244300
13,833500	0,5	1,254950
13,841833	0,5	1,266300
13,850167	0,5	1,276150
13,858500	0,5	1,276000
13,866833	0,5	1,288100
13,875167	0,5	1,322650
13,883500	0,5	1,359950
13,891833	0,5	1,407300
13,900167	0,5	1,443450
13,908500	0,5	1,463100
13,916833	0,5	1,457700
13,925167	0,5	1,428700
13,933500	0,5	1,375400
13,941833	0,5	1,318000
13,950167	0,5	1,255700
13,958500	0,5	1,209900
13,966833	0,5	1,178200
13,975167	0,5	1,160600
13,983500	0,5	1,159200
13,991833	0,5	1,167800
14,000167	0,5	1,193450
14,008500	0,5	1,212100
14,016833	0,5	1,247750
14,025167	0,5	1,290350
14,033500	0,5	1,331450
14,041833	0,5	1,375450
14,050167	0,5	1,408300
14,058500	0,5	1,425450
14,066833	0,5	1,418000
14,075167	0,5	1,378450
14,083500	0,5	1,327800
14,091833	0,5	1,264800
14,100167	0,5	1,209000
14,108500	0,5	1,157300
14,116833	0,5	1,128950
14,125167	0,5	1,112550
14,133500	0,5	1,118250
14,141833	0,5	1,137500
14,150167	0,5	1,163450
14,158500	0,5	1,198800
14,166833	0,5	1,241200
14,175167	0,5	1,276950
14,183500	0,5	1,303250
14,191833	0,5	1,308650
14,200167	0,5	1,293700
14,208500	0,5	1,266050
14,216833	0,5	1,225500
14,225167	0,5	1,177600
14,233500	0,5	1,120600
14,241833	0,5	1,090400
14,250167	0,5	1,055800
14,258500	0,5	1,042050
14,266833	0,5	1,039900
14,275167	0,5	1,045200
14,283500	0,5	1,063950
14,291833	0,5	1,088950
14,300167	0,5	1,107650
14,308500	0,5	1,129900
14,316833	0,5	1,141500
14,325167	0,5	1,143500
14,333500	0,5	1,127500
14,341833	0,5	1,100550
14,350167	0,5	1,075400
14,358500	0,5	1,050600
14,366833	0,5	1,031250
14,375167	0,5	1,015400
14,383500	0,5	1,020000
14,391833	0,5	1,027550
14,400167	0,5	1,040600
14,408500	0,5	1,052800
14,416833	0,5	1,071700
14,425167	0,5	1,078250
14,433500	0,5	1,077550
14,441833	0,5	1,080500
14,450167	0,5	1,065300
14,458500	0,5	1,051550
14,466833	0,5	1,036050
14,475167	0,5	1,015500
14,483500	0,5	0,995050
14,491833	0,5	0,971350
14,500167	0,5	0,963600
14,508500	0,5	0,964700
14,516833	0,5	0,966500
14,525167	0,5	0,964150
14,533500	0,5	0,961950
14,541833	0,5	0,963500
14,550167	0,5	0,955350
14,558500	0,5	0,952600
14,566833	0,5	0,940650
14,575167	0,5	0,937400
14,583500	0,5	0,930250
14,591833	0,5	0,923250
14,600167	0,5	0,912250
14,608500	0,5	0,920450
14,616833	0,5	0,914550
14,625167	0,5	0,914950
14,633500	0,5	0,903200
14,641833	0,5	0,892650
14,650167	0,5	0,888650
14,658500	0,5	0,884850
14,666833	0,5	0,880250
14,675167	0,5	0,873250
14,683500	0,5	0,868250
14,691833	0,5	0,864050
14,700167	0,5	0,862300
14,708500	0,5	0,857800
14,716833	0,5	0,858200
14,725167	0,5	0,861350
14,733500	0,5	0,863100
14,741833	0,5	0,856050
14,750167	0,5	0,861300
14,758500	0,5	0,862250
14,766833	0,5	0,859450
14,775167	0,5	0,846100
14,783500	0,5	0,831100
14,791833	0,5	0,820900
14,800167	0,5	0,811950
14,808500	0,5	0,805650
14,816833	0,5	0,802150
14,825167	0,5	0,796300
14,833500	0,5	0,797050
14,841833	0,5	0,796700
14,850167	0,5	0,803100
14,858500	0,5	0,811300
14,866833	0,5	0,809650
14,875167	0,5	0,813350
14,883500	0,5	0,811250
14,891833	0,5	0,794050
14,900167	0,5	0,794600
14,908500	0,5	0,788450
14,916833	0,5	0,784100
14,925167	0,5	0,775450
14,933500	0,5	0,760600
14,941833	0,5	0,769400
14,950167	0,5	0,772300
14,958500	0,5	0,771200
14,966833	0,5	0,768600
14,975167	0,5	0,768300
14,983500	0,5	0,761150
14,991833	0,5	0,757050
15,000167	0,5	0,751550
15,008500	0,5	0,745300
15,016833	0,5	0,743550
15,025167	0,5	0,740200
15,033500	0,5	0,745100
15,041833	0,5	0,738550
15,050167	0,5	0,750900
15,058500	0,5	0,752900
15,066833	0,5	0,754000
15,075167	0,5	0,747500
15,083500	0,5	0,737850
15,091833	0,5	0,736900
15,100167	0,5	0,739150
15,108500	0,5	0,735550
15,116833	0,5	0,731150
15,125167	0,5	0,725150
15,133500	0,5	0,721400
15,141833	0,5	0,714100
15,150167	0,5	0,710600
15,158500	0,5	0,705450
15,166833	0,5	0,702550
15,175167	0,5	0,701550
15,183500	0,5	0,694150
15,191833	0,5	0,695500
15,200167	0,5	0,699450
15,208500	0,5	0,692650
15,216833	0,5	0,688800
15,225167	0,5	0,680550
15,233500	0,5	0,670850
15,241833	0,5	0,672050
15,250167	0,5	0,671400
15,258500	0,5	0,672300
15,266833	0,5	0,668900
15,275167	0,5	0,669650
15,283500	0,5	0,669300
15,291833	0,5	0,673200
15,300167	0,5	0,672150
15,308500	0,5	0,672150
15,316833	0,5	0,678500
15,325167	0,5	0,679050
15,333500	0,5	0,667600
15,341833	0,5	0,676600
15,350167	0,5	0,682150
15,358500	0,5	0,687400
15,366833	0,5	0,690700
15,375167	0,5	0,683800
15,383500	0,5	0,696500
15,391833	0,5	0,694150
15,400167	0,5	0,695600
15,408500	0,5	0,694900
15,416833	0,5	0,695200
15,425167	0,5	0,698300
15,433500	0,5	0,702250
15,441833	0,5	0,699750
15,450167	0,5	0,701650
15,458500	0,5	0,697150
15,466833	0,5	0,702850
15,475167	0,5	0,698700
15,483500	0,5	0,691950
15,491833	0,5	0,696800
15,500167	0,5	0,700450
15,508500	0,5	0,699700
15,516833	0,5	0,699600
15,525167	0,5	0,692450
15,533500	0,5	0,697650
15,541833	0,5	0,704350
15,550167	0,5	0,708500
15,558500	0,5	0,713250
15,566833	0,5	0,714800
15,575167	0,5	0,720650
15,583500	0,5	0,722050
15,591833	0,5	0,726650
15,600167	0,5	0,730150
15,608500	0,5	0,734450
15,616833	0,5	0,738200
15,625167	0,5	0,731100
15,633500	0,5	0,735250
15,641833	0,5	0,748300
15,650167	0,5	0,755350
15,658500	0,5	0,763950
15,666833	0,5	0,771650
15,675167	0,5	0,774100
15,683500	0,5	0,772600
15,691833	0,5	0,764150
15,700167	0,5	0,752550
15,708500	0,5	0,737550
15,716833	0,5	0,724300
15,725167	0,5	0,709700
15,733500	0,5	0,704050
15,741833	0,5	0,696900
15,750167	0,5	0,698700
15,758500	0,5	0,697300
15,766833	0,5	0,699500
15,775167	0,5	0,681950
15,783500	0,5	0,691750
15,791833	0,5	0,687300
15,800167	0,5	0,689400
15,808500	0,5	0,675250
15,816833	0,5	0,662700
15,825167	0,5	0,659650
15,833500	0,5	0,658650
15,841833	0,5	0,655700
15,850167	0,5	0,655700
15,858500	0,5	0,653250
15,866833	0,5	0,658400
15,875167	0,5	0,661300
15,883500	0,5	0,656250
15,891833	0,5	0,658250
15,900167	0,5	0,657950
15,908500	0,5	0,659500
15,916833	0,5	0,649350
15,925167	0,5	0,636700
15,933500	0,5	0,636200
15,941833	0,5	0,634850
15,950167	0,5	0,626750
15,958500	0,5	0,619800
15,966833	0,5	0,611000
15,975167	0,5	0,615300
15,983500	0,5	0,613100
15,991833	0,5	0,624000
16,000167	0,5	0,623050
16,008500	0,5	0,627950
16,016833	0,5	0,628050
16,025167	0,5	0,626950
16,033500	0,5	0,632200
16,041833	0,5	0,631900
16,050167	0,5	0,640150
16,058500	0,5	0,643600
16,066833	0,5	0,639100
16,075167	0,5	0,637350
16,083500	0,5	0,647750
16,091833	0,5	0,647650
16,100167	0,5	0,650950
16,108500	0,5	0,641550
16,116833	0,5	0,652400
16,125167	0,5	0,666100
16,133500	0,5	0,695100
16,141833	0,5	0,716000
16,150167	0,5	0,744950
16,158500	0,5	0,762350
16,166833	0,5	0,779550
16,175167	0,5	0,776650
16,183500	0,5	0,771050
16,191833	0,5	0,758400
16,200167	0,5	0,741100
16,208500	0,5	0,727600
16,216833	0,5	0,696350
16,225167	0,5	0,698750
16,233500	0,5	0,691950
16,241833	0,5	0,691600
16,250167	0,5	0,686350
16,258500	0,5	0,677050
16,266833	0,5	0,684750
16,275167	0,5	0,689500
16,283500	0,5	0,676100
16,291833	0,5	0,679850
16,300167	0,5	0,675150
16,308500	0,5	0,680150
16,316833	0,5	0,678900
16,325167	0,5	0,688050
16,333500	0,5	0,691350
16,341833	0,5	0,696300
16,350167	0,5	0,702600
16,358500	0,5	0,696650
16,366833	0,5	0,681800
16,375167	0,5	0,680550
16,383500	0,5	0,675300
16,391833	0,5	0,668200
16,400167	0,5	0,660400
16,408500	0,5	0,644600
16,416833	0,5	0,654900
16,425167	0,5	0,655800
16,433500	0,5	0,656650
16,441833	0,5	0,651550
16,450167	0,5	0,657650
16,458500	0,5	0,658100
16,466833	0,5	0,665500
16,475167	0,5	0,659850
16,483500	0,5	0,662350
16,491833	0,5	0,670150
16,500167	0,5	0,678000
16,508500	0,5	0,674900
16,516833	0,5	0,676050
16,525167	0,5	0,682100
16,533500	0,5	0,680900
16,541833	0,5	0,679800
16,550167	0,5	0,673250
16,558500	0,5	0,671300
16,566833	0,5	0,674350
16,575167	0,5	0,684850
16,583500	0,5	0,693100
16,591833	0,5	0,711250
16,600167	0,5	0,723150
16,608500	0,5	0,741950
16,616833	0,5	0,764050
16,625167	0,5	0,792000
16,633500	0,5	0,814450
16,641833	0,5	0,846800
16,650167	0,5	0,863400
16,658500	0,5	0,870800
16,666833	0,5	0,875950
16,675167	0,5	0,883600
16,683500	0,5	0,888800
16,691833	0,5	0,905900
16,700167	0,5	0,936450
16,708500	0,5	0,985600
16,716833	0,5	1,058000
16,725167	0,5	1,132300
16,733500	0,5	1,207300
16,741833	0,5	1,259600
16,750167	0,5	1,287950
16,758500	0,5	1,271000
16,766833	0,5	1,224300
16,775167	0,5	1,151450
16,783500	0,5	1,069700
16,791833	0,5	0,987800
16,800167	0,5	0,910650
16,808500	0,5	0,834750
16,816833	0,5	0,791650
16,825167	0,5	0,758550
16,833500	0,5	0,728100
16,841833	0,5	0,701700
16,850167	0,5	0,685600
16,858500	0,5	0,678600
16,866833	0,5	0,662500
16,875167	0,5	0,656850
16,883500	0,5	0,652150
16,891833	0,5	0,644250
16,900167	0,5	0,633900
16,908500	0,5	0,631800
16,916833	0,5	0,624850
16,925167	0,5	0,623200
16,933500	0,5	0,623800
16,941833	0,5	0,630250
16,950167	0,5	0,617700
16,958500	0,5	0,619200
16,966833	0,5	0,613800
16,975167	0,5	0,612050
16,983500	0,5	0,601050
16,991833	0,5	0,589700
17,000167	0,5	0,589700
17,008500	0,5	0,587900
17,016833	0,5	0,579800
17,025167	0,5	0,574250
17,033500	0,5	0,568850
17,041833	0,5	0,566050
17,050167	0,5	0,561050
17,058500	0,5	0,557100
17,066833	0,5	0,554600
17,075167	0,5	0,550250
17,083500	0,5	0,552350
17,091833	0,5	0,551800
17,100167	0,5	0,536000
17,108500	0,5	0,538100
17,116833	0,5	0,536550
17,125167	0,5	0,531300
17,133500	0,5	0,527950
17,141833	0,5	0,509550
17,150167	0,5	0,516550
17,158500	0,5	0,513600
17,166833	0,5	0,515850
17,175167	0,5	0,509400
17,183500	0,5	0,515650
17,191833	0,5	0,513850
17,200167	0,5	0,508750
17,208500	0,5	0,503350
17,216833	0,5	0,501300
17,225167	0,5	0,503750
17,233500	0,5	0,502550
17,241833	0,5	0,505100
17,250167	0,5	0,494550
17,258500	0,5	0,502600
17,266833	0,5	0,494900
17,275167	0,5	0,493450
17,283500	0,5	0,480050
17,291833	0,5	0,467850
17,300167	0,5	0,468850
17,308500	0,5	0,473700
17,316833	0,5	0,468550
17,325167	0,5	0,465700
17,333500	0,5	0,467050
17,341833	0,5	0,463150
17,350167	0,5	0,458400
17,358500	0,5	0,454550
17,366833	0,5	0,454300
17,375167	0,5	0,459050
17,383500	0,5	0,463450
17,391833	0,5	0,454350
17,400167	0,5	0,452050
17,408500	0,5	0,457000
17,416833	0,5	0,452650
17,425167	0,5	0,446700
17,433500	0,5	0,437800
17,441833	0,5	0,432600
17,450167	0,5	0,440150
17,458500	0,5	0,433800
17,466833	0,5	0,442150
17,475167	0,5	0,442750
17,483500	0,5	0,453150
17,491833	0,5	0,452850
17,500167	0,5	0,458900
17,508500	0,5	0,458650
17,516833	0,5	0,460350
17,525167	0,5	0,476300
17,533500	0,5	0,484750
17,541833	0,5	0,481950
17,550167	0,5	0,498350
17,558500	0,5	0,513200
17,566833	0,5	0,520950
17,575167	0,5	0,534350
17,583500	0,5	0,540600
17,591833	0,5	0,568700
17,600167	0,5	0,587250
17,608500	0,5	0,615150
17,616833	0,5	0,638300
17,625167	0,5	0,669100
17,633500	0,5	0,691000
17,641833	0,5	0,721650
17,650167	0,5	0,738700
17,658500	0,5	0,759750
17,666833	0,5	0,786650
17,675167	0,5	0,813550
17,683500	0,5	0,829050
17,691833	0,5	0,841450
17,700167	0,5	0,860150
17,708500	0,5	0,873250
17,716833	0,5	0,880650
17,725167	0,5	0,884700
17,733500	0,5	0,887450
17,741833	0,5	0,898800
17,750167	0,5	0,905800
17,758500	0,5	0,905900
17,766833	0,5	0,914650
17,775167	0,5	0,918450
17,783500	0,5	0,927300
17,791833	0,5	0,929350
17,800167	0,5	0,933550
17,808500	0,5	0,927000
17,816833	0,5	0,921950
17,825167	0,5	0,916900
17,833500	0,5	0,897200
17,841833	0,5	0,882100
17,850167	0,5	0,865750
17,858500	0,5	0,845850
17,866833	0,5	0,823450
17,875167	0,5	0,788550
17,883500	0,5	0,769050
17,891833	0,5	0,756450
17,900167	0,5	0,737150
17,908500	0,5	0,721150
17,916833	0,5	0,703000
17,925167	0,5	0,694000
17,933500	0,5	0,673500
17,941833	0,5	0,663300
17,950167	0,5	0,645550
17,958500	0,5	0,634450
17,966833	0,5	0,628500
17,975167	0,5	0,621700
17,983500	0,5	0,601150
17,991833	0,5	0,602400
18,000167	0,5	0,587250
18,008500	0,5	0,579850
18,016833	0,5	0,560250
18,025167	0,5	0,544050
18,033500	0,5	0,541300
18,041833	0,5	0,536550
18,050167	0,5	0,527700
18,058500	0,5	0,522650
18,066833	0,5	0,521600
18,075167	0,5	0,512250
18,083500	0,5	0,513350
18,091833	0,5	0,503250
18,100167	0,5	0,503350
18,108500	0,5	0,497800
18,116833	0,5	0,499050
18,125167	0,5	0,487300
18,133500	0,5	0,480900
18,141833	0,5	0,479250
18,150167	0,5	0,470550
18,158500	0,5	0,469050
18,166833	0,5	0,454750
18,175167	0,5	0,444850
18,183500	0,5	0,443350
18,191833	0,5	0,443300
18,200167	0,5	0,446100
18,208500	0,5	0,448300
18,216833	0,5	0,442100
18,225167	0,5	0,447350
18,233500	0,5	0,443900
18,241833	0,5	0,442950
18,250167	0,5	0,438450
18,258500	0,5	0,455550
18,266833	0,5	0,460000
18,275167	0,5	0,455450
18,283500	0,5	0,465600
18,291833	0,5	0,478700
18,300167	0,5	0,478950
18,308500	0,5	0,476900
18,316833	0,5	0,465100
18,325167	0,5	0,477350
18,333500	0,5	0,476600
18,341833	0,5	0,474800
18,350167	0,5	0,469750
18,358500	0,5	0,473400
18,366833	0,5	0,470350
18,375167	0,5	0,466700
18,383500	0,5	0,467150
18,391833	0,5	0,458400
18,400167	0,5	0,453500
18,408500	0,5	0,453600
18,416833	0,5	0,450000
18,425167	0,5	0,435500
18,433500	0,5	0,441700
18,441833	0,5	0,438600
18,450167	0,5	0,430300
18,458500	0,5	0,421000
18,466833	0,5	0,416500
18,475167	0,5	0,424650
18,483500	0,5	0,425950
18,491833	0,5	0,423450
18,500167	0,5	0,423550
18,508500	0,5	0,420600
18,516833	0,5	0,427250
18,525167	0,5	0,424550
18,533500	0,5	0,423200
18,541833	0,5	0,423350
18,550167	0,5	0,415750
18,558500	0,5	0,425450
18,566833	0,5	0,417400
18,575167	0,5	0,418300
18,583500	0,5	0,422000
18,591833	0,5	0,420600
18,600167	0,5	0,415900
18,608500	0,5	0,409500
18,616833	0,5	0,401450
18,625167	0,5	0,408400
18,633500	0,5	0,402750
18,641833	0,5	0,409050
18,650167	0,5	0,405150
18,658500	0,5	0,402400
18,666833	0,5	0,398800
18,675167	0,5	0,400400
18,683500	0,5	0,395300
18,691833	0,5	0,388550
18,700167	0,5	0,395500
18,708500	0,5	0,393100
18,716833	0,5	0,381750
18,725167	0,5	0,388000
18,733500	0,5	0,386650
18,741833	0,5	0,379400
18,750167	0,5	0,371100
18,758500	0,5	0,351950
18,766833	0,5	0,358050
18,775167	0,5	0,354050
18,783500	0,5	0,363300
18,791833	0,5	0,355250
18,800167	0,5	0,361800
18,808500	0,5	0,357350
18,816833	0,5	0,359500
18,825167	0,5	0,359850
18,833500	0,5	0,356700
18,841833	0,5	0,354100
18,850167	0,5	0,360650
18,858500	0,5	0,350850
18,866833	0,5	0,341950
18,875167	0,5	0,349750
18,883500	0,5	0,350400
18,891833	0,5	0,345850
18,900167	0,5	0,330700
18,908500	0,5	0,325150
18,916833	0,5	0,325150
18,925167	0,5	0,335600
18,933500	0,5	0,331400
18,941833	0,5	0,332300
18,950167	0,5	0,333150
18,958500	0,5	0,334450
18,966833	0,5	0,326250
18,975167	0,5	0,328600
18,983500	0,5	0,327250
18,991833	0,5	0,325250
19,000167	0,5	0,335900
19,008500	0,5	0,324700
19,016833	0,5	0,328900
19,025167	0,5	0,329500
19,033500	0,5	0,328500
19,041833	0,5	0,325500
19,050167	0,5	0,308200
19,058500	0,5	0,313550
19,066833	0,5	0,315700
19,075167	0,5	0,309750
19,083500	0,5	0,314200
19,091833	0,5	0,309750
19,100167	0,5	0,315100
19,108500	0,5	0,311700
19,116833	0,5	0,317250
19,125167	0,5	0,319350
19,133500	0,5	0,317450
19,141833	0,5	0,323900
19,150167	0,5	0,334650
19,158500	0,5	0,318750
19,166833	0,5	0,332200
19,175167	0,5	0,327750
19,183500	0,5	0,325900
19,191833	0,5	0,321350
19,200167	0,5	0,308850
19,208500	0,5	0,316650
19,216833	0,5	0,313750
19,225167	0,5	0,321950
19,233500	0,5	0,319400
19,241833	0,5	0,329450
19,250167	0,5	0,331900
19,258500	0,5	0,336050
19,266833	0,5	0,340100
19,275167	0,5	0,331750
19,283500	0,5	0,338350
19,291833	0,5	0,348400
19,300167	0,5	0,346250
19,308500	0,5	0,345100
19,316833	0,5	0,361900
19,325167	0,5	0,358350
19,333500	0,5	0,357750
19,341833	0,5	0,349150
19,350167	0,5	0,346950
19,358500	0,5	0,350150
19,366833	0,5	0,366400
19,375167	0,5	0,362050
19,383500	0,5	0,372300
19,391833	0,5	0,374800
19,400167	0,5	0,386300
19,408500	0,5	0,392650
19,416833	0,5	0,398600
19,425167	0,5	0,399100
19,433500	0,5	0,407350
19,441833	0,5	0,406150
19,450167	0,5	0,393850
19,458500	0,5	0,395250
19,466833	0,5	0,391700
19,475167	0,5	0,382950
19,483500	0,5	0,372000
19,491833	0,5	0,353750
19,500167	0,5	0,345650
19,508500	0,5	0,345300
19,516833	0,5	0,339950
19,525167	0,5	0,342150
19,533500	0,5	0,339950
19,541833	0,5	0,340950
19,550167	0,5	0,336200
19,558500	0,5	0,342300
19,566833	0,5	0,342100
19,575167	0,5	0,336300
19,583500	0,5	0,337900
19,591833	0,5	0,336700
19,600167	0,5	0,333600
19,608500	0,5	0,341200
19,616833	0,5	0,342750
19,625167	0,5	0,341400
19,633500	0,5	0,331950
19,641833	0,5	0,321950
19,650167	0,5	0,333150
19,658500	0,5	0,330650
19,666833	0,5	0,333450
19,675167	0,5	0,333000
19,683500	0,5	0,332150
19,691833	0,5	0,333300
19,700167	0,5	0,341850
19,708500	0,5	0,344050
19,716833	0,5	0,346100
19,725167	0,5	0,350500
19,733500	0,5	0,357600
19,741833	0,5	0,346900
19,750167	0,5	0,356900
19,758500	0,5	0,363350
19,766833	0,5	0,362800
19,775167	0,5	0,360350
19,783500	0,5	0,341000
19,791833	0,5	0,347800
19,800167	0,5	0,357400
19,808500	0,5	0,358250
19,816833	0,5	0,362600
19,825167	0,5	0,367750
19,833500	0,5	0,373750
19,841833	0,5	0,381800
19,850167	0,5	0,382300
19,858500	0,5	0,388700
19,866833	0,5	0,387850
19,875167	0,5	0,404300
19,883500	0,5	0,397100
19,891833	0,5	0,390050
19,900167	0,5	0,403600
19,908500	0,5	0,405500
19,916833	0,5	0,400450
19,925167	0,5	0,396200
19,933500	0,5	0,385750
19,941833	0,5	0,390250
19,950167	0,5	0,391900
19,958500	0,5	0,399800
19,966833	0,5	0,400650
19,975167	0,5	0,401050
19,983500	0,5	0,404200
19,991833	0,5	0,405450
20,000167	0,5	0,407950
20,008500	0,5	0,409900
20,016833	0,5	0,418500
20,025167	0,5	0,424550
20,033500	0,5	0,430100
20,041833	0,5	0,428150
20,050167	0,5	0,439500
20,058500	0,5	0,439000
20,066833	0,5	0,442950
20,075167	0,5	0,429550
20,083500	0,5	0,426100
20,091833	0,5	0,433950
20,100167	0,5	0,434500
20,108500	0,5	0,437200
20,116833	0,5	0,436500
20,125167	0,5	0,432650
20,133500	0,5	0,432150
20,141833	0,5	0,426550
20,150167	0,5	0,430200
20,158500	0,5	0,434550
20,166833	0,5	0,436950
20,175167	0,5	0,446550
20,183500	0,5	0,427200
20,191833	0,5	0,436500
20,200167	0,5	0,441650
20,208500	0,5	0,440750
20,216833	0,5	0,436900
20,225167	0,5	0,426650
20,233500	0,5	0,428950
20,241833	0,5	0,433850
20,250167	0,5	0,434650
20,258500	0,5	0,438400
20,266833	0,5	0,441000
20,275167	0,5	0,443650
20,283500	0,5	0,448500
20,291833	0,5	0,450650
20,300167	0,5	0,454000
20,308500	0,5	0,451650
20,316833	0,5	0,466850
20,325167	0,5	0,463450
20,333500	0,5	0,458450
20,341833	0,5	0,467750
20,350167	0,5	0,471500
20,358500	0,5	0,464350
20,366833	0,5	0,458100
20,375167	0,5	0,448500
20,383500	0,5	0,463600
20,391833	0,5	0,455600
20,400167	0,5	0,464200
20,408500	0,5	0,467300
20,416833	0,5	0,473550
20,425167	0,5	0,473900
20,433500	0,5	0,474400
20,441833	0,5	0,484150
20,450167	0,5	0,485400
20,458500	0,5	0,496800
20,466833	0,5	0,505800
20,475167	0,5	0,501700
20,483500	0,5	0,505000
20,491833	0,5	0,508350
20,500167	0,5	0,504050
20,508500	0,5	0,505000
20,516833	0,5	0,492500
20,525167	0,5	0,498950
20,533500	0,5	0,502200
20,541833	0,5	0,510500
20,550167	0,5	0,509800
20,558500	0,5	0,518600
20,566833	0,5	0,523150
20,575167	0,5	0,527850
20,583500	0,5	0,532900
20,591833	0,5	0,529850
20,600167	0,5	0,540400
20,608500	0,5	0,556250
20,616833	0,5	0,566300
20,625167	0,5	0,564700
20,633500	0,5	0,568300
20,641833	0,5	0,574700
20,650167	0,5	0,580150
20,658500	0,5	0,571300
20,666833	0,5	0,566150
20,675167	0,5	0,569800
20,683500	0,5	0,582600
20,691833	0,5	0,583700
20,700167	0,5	0,593500
20,708500	0,5	0,602000
20,716833	0,5	0,610450
20,725167	0,5	0,615750
20,733500	0,5	0,625350
20,741833	0,5	0,635500
20,750167	0,5	0,641050
20,758500	0,5	0,666550
20,766833	0,5	0,673100
20,775167	0,5	0,673700
20,783500	0,5	0,681250
20,791833	0,5	0,678450
20,800167	0,5	0,672750
20,808500	0,5	0,669550
20,816833	0,5	0,661800
20,825167	0,5	0,676450
20,833500	0,5	0,679700
20,841833	0,5	0,692850
20,850167	0,5	0,698050
20,858500	0,5	0,708850
20,866833	0,5	0,721450
20,875167	0,5	0,733250
20,883500	0,5	0,747700
20,891833	0,5	0,758250
20,900167	0,5	0,789650
20,908500	0,5	0,819750
20,916833	0,5	0,827450
20,925167	0,5	0,840750
20,933500	0,5	0,849550
20,941833	0,5	0,847900
20,950167	0,5	0,850850
20,958500	0,5	0,839250
20,966833	0,5	0,853400
20,975167	0,5	0,849850
20,983500	0,5	0,867650
20,991833	0,5	0,869550
21,000167	0,5	0,882250
21,008500	0,5	0,893200
21,016833	0,5	0,908750
21,025167	0,5	0,917100
21,033500	0,5	0,929050
21,041833	0,5	0,940850
21,050167	0,5	0,963100
21,058500	0,5	0,975300
21,066833	0,5	0,971150
21,075167	0,5	0,976450
21,083500	0,5	0,978400
21,091833	0,5	0,978900
21,100167	0,5	0,963000
21,108500	0,5	0,977950
21,116833	0,5	0,991150
21,125167	0,5	1,005750
21,133500	0,5	1,012350
21,141833	0,5	1,030400
21,150167	0,5	1,040950
21,158500	0,5	1,063400
21,166833	0,5	1,088500
21,175167	0,5	1,114250
21,183500	0,5	1,148950
21,191833	0,5	1,195650
21,200167	0,5	1,237300
21,208500	0,5	1,260250
21,216833	0,5	1,271300
21,225167	0,5	1,272850
21,233500	0,5	1,261450
21,241833	0,5	1,242150
21,250167	0,5	1,224200
21,258500	0,5	1,217650
21,266833	0,5	1,221350
21,275167	0,5	1,219150
21,283500	0,5	1,229250
21,291833	0,5	1,234600
21,300167	0,5	1,248900
21,308500	0,5	1,253600
21,316833	0,5	1,264300
21,325167	0,5	1,273650
21,333500	0,5	1,281650
21,341833	0,5	1,303650
21,350167	0,5	1,321650
21,358500	0,5	1,319550
21,366833	0,5	1,319700
21,375167	0,5	1,322850
21,383500	0,5	1,323250
21,391833	0,5	1,328150
21,400167	0,5	1,328150
21,408500	0,5	1,348950
21,416833	0,5	1,367400
21,425167	0,5	1,389150
21,433500	0,5	1,403350
21,441833	0,5	1,424400
21,450167	0,5	1,435300
21,458500	0,5	1,451550
21,466833	0,5	1,469400
21,475167	0,5	1,484650
21,483500	0,5	1,519200
21,491833	0,5	1,546600
21,500167	0,5	1,559650
21,508500	0,5	1,572300
21,516833	0,5	1,588400
21,525167	0,5	1,592600
21,533500	0,5	1,605250
21,541833	0,5	1,608150
21,550167	0,5	1,627300
21,558500	0,5	1,640100
21,566833	0,5	1,661350
21,575167	0,5	1,672250
21,583500	0,5	1,690450
21,591833	0,5	1,701550
21,600167	0,5	1,710200
21,608500	0,5	1,728700
21,616833	0,5	1,740850
21,625167	0,5	1,752450
21,633500	0,5	1,785650
21,641833	0,5	1,802500
21,650167	0,5	1,807250
21,658500	0,5	1,823600
21,666833	0,5	1,836300
21,675167	0,5	1,848350
21,683500	0,5	1,851700
21,691833	0,5	1,870000
21,700167	0,5	1,883950
21,708500	0,5	1,910850
21,716833	0,5	1,932800
21,725167	0,5	1,957500
21,733500	0,5	1,980500
21,741833	0,5	2,004500
21,750167	0,5	2,031450
21,758500	0,5	2,057950
21,766833	0,5	2,091050
21,775167	0,5	2,123700
21,783500	0,5	2,161600
21,791833	0,5	2,177650
21,800167	0,5	2,199450
21,808500	0,5	2,220600
21,816833	0,5	2,246250
21,825167	0,5	2,256650
21,833500	0,5	2,271600
21,841833	0,5	2,297350
21,850167	0,5	2,318850
21,858500	0,5	2,332500
21,866833	0,5	2,343900
21,875167	0,5	2,357500
21,883500	0,5	2,386950
21,891833	0,5	2,404400
21,900167	0,5	2,426450
21,908500	0,5	2,457350
21,916833	0,5	2,485450
21,925167	0,5	2,521000
21,933500	0,5	2,542500
21,941833	0,5	2,561150
21,950167	0,5	2,592500
21,958500	0,5	2,620550
21,966833	0,5	2,642050
21,975167	0,5	2,661600
21,983500	0,5	2,686400
21,991833	0,5	2,720600
22,000167	0,5	2,758700
22,008500	0,5	2,805950
22,016833	0,5	2,851500
22,025167	0,5	2,901650
22,033500	0,5	2,944550
22,041833	0,5	2,977950
22,050167	0,5	3,001950
22,058500	0,5	3,004450
22,066833	0,5	3,018950
22,075167	0,5	3,031750
22,083500	0,5	3,052550
22,091833	0,5	3,079750
22,100167	0,5	3,105050
22,108500	0,5	3,129350
22,116833	0,5	3,151600
22,125167	0,5	3,166500
22,133500	0,5	3,193550
22,141833	0,5	3,228650
22,150167	0,5	3,261900
22,158500	0,5	3,288350
22,166833	0,5	3,327900
22,175167	0,5	3,352600
22,183500	0,5	3,391250
22,191833	0,5	3,428500
22,200167	0,5	3,466150
22,208500	0,5	3,511900
22,216833	0,5	3,534900
22,225167	0,5	3,574050
22,233500	0,5	3,618150
22,241833	0,5	3,667650
22,250167	0,5	3,708450
22,258500	0,5	3,751200
22,266833	0,5	3,777250
22,275167	0,5	3,823300
22,283500	0,5	3,874550
22,291833	0,5	3,925400
22,300167	0,5	3,981550
22,308500	0,5	4,051300
22,316833	0,5	4,127900
22,325167	0,5	4,203050
22,333500	0,5	4,278300
22,341833	0,5	4,345050
22,350167	0,5	4,410400
22,358500	0,5	4,444000
22,366833	0,5	4,486100
22,375167	0,5	4,516050
22,383500	0,5	4,583700
22,391833	0,5	4,619050
22,400167	0,5	4,656900
22,408500	0,5	4,697100
22,416833	0,5	4,728150
22,425167	0,5	4,785950
22,433500	0,5	4,846450
22,441833	0,5	4,900100
22,450167	0,5	4,962350
22,458500	0,5	5,023850
22,466833	0,5	5,088500
22,475167	0,5	5,153050
22,483500	0,5	5,216350
22,491833	0,5	5,283700
22,500167	0,5	5,344400
22,508500	0,5	5,376150
22,516833	0,5	5,446500
22,525167	0,5	5,525950
22,533500	0,5	5,597600
22,541833	0,5	5,649400
22,550167	0,5	5,694550
22,558500	0,5	5,728350
22,566833	0,5	5,749850
22,575167	0,5	5,785450
22,583500	0,5	5,803050
22,591833	0,5	5,824250
22,600167	0,5	5,840000
22,608500	0,5	5,856000
22,616833	0,5	5,854200
22,625167	0,5	5,854750
22,633500	0,5	5,849100
22,641833	0,5	5,836950
22,650167	0,5	5,795750
22,658500	0,5	5,740550
22,666833	0,5	5,729800
22,675167	0,5	5,700750
22,683500	0,5	5,649650
22,691833	0,5	5,581450
22,700167	0,5	5,508850
22,708500	0,5	5,417250
22,716833	0,5	5,322500
22,725167	0,5	5,233550
22,733500	0,5	5,134800
22,741833	0,5	5,023100
22,750167	0,5	4,917000
22,758500	0,5	4,805350
22,766833	0,5	4,686850
22,775167	0,5	4,562300
22,783500	0,5	4,435050
22,791833	0,5	4,298400
22,800167	0,5	4,113500
22,808500	0,5	3,984050
22,816833	0,5	3,848950
22,825167	0,5	3,701200
22,833500	0,5	3,535100
22,841833	0,5	3,366050
22,850167	0,5	3,198800
22,858500	0,5	3,025750
22,866833	0,5	2,854800
22,875167	0,5	2,686150
22,883500	0,5	2,523150
22,891833	0,5	2,360600
22,900167	0,5	2,204650
22,908500	0,5	2,046200
22,916833	0,5	1,896800
22,925167	0,5	1,747300
22,933500	0,5	1,601900
22,941833	0,5	1,478000
22,950167	0,5	1,328800
22,958500	0,5	1,201350
22,966833	0,5	1,049750
22,975167	0,5	0,914250
22,983500	0,5	0,783350
22,991833	0,5	0,672350
23,000167	0,5	0,560350
23,008500	0,5	0,450150
23,016833	0,5	0,336700
23,025167	0,5	0,242100
23,033500	0,5	0,141600
23,041833	0,5	0,057450
23,050167	0,5	-0,037450
23,058500	0,5	-0,117550
23,066833	0,5	-0,199650
23,075167	0,5	-0,276400
23,083500	0,5	-0,351200
23,091833	0,5	-0,398050
23,100167	0,5	-0,474800
23,108500	0,5	-0,533050
23,116833	0,5	-0,636050
23,125167	0,5	-0,704700
23,133500	0,5	-0,757000
23,141833	0,5	-0,803750
23,150167	0,5	-0,844350
23,158500	0,5	-0,901600
23,166833	0,5	-0,938750
23,175167	0,5	-0,987500
23,183500	0,5	-1,023050
23,191833	0,5	-1,065400
23,200167	0,5	-1,090650
23,208500	0,5	-1,130650
23,216833	0,5	-1,157600
23,225167	0,5	-1,185800
23,233500	0,5	-1,207950
23,241833	0,5	-1,257500
23,250167	0,5	-1,256550
23,258500	0,5	-1,268050
23,266833	0,5	-1,321250
23,275167	0,5	-1,350950
23,283500	0,5	-1,376600
23,291833	0,5	-1,379400
23,300167	0,5	-1,403300
23,308500	0,5	-1,417150
23,316833	0,5	-1,435750
23,325167	0,5	-1,436350
23,333500	0,5	-1,450900
23,341833	0,5	-1,452400
23,350167	0,5	-1,464400
23,358500	0,5	-1,466250
23,366833	0,5	-1,470400
23,375167	0,5	-1,478300
23,383500	0,5	-1,491500
23,391833	0,5	-1,525950
23,400167	0,5	-1,501450
23,408500	0,5	-1,475500
23,416833	0,5	-1,494800
23,425167	0,5	-1,509050
23,433500	0,5	-1,511700
23,441833	0,5	-1,514400
23,450167	0,5	-1,516050
23,458500	0,5	-1,521850
23,466833	0,5	-1,519300
23,475167	0,5	-1,519850
23,483500	0,5	-1,518300
23,491833	0,5	-1,519950
23,500167	0,5	-1,509250
23,508500	0,5	-1,509150
23,516833	0,5	-1,503000
23,525167	0,5	-1,500000
23,533500	0,5	-1,591800
23,541833	0,5	-1,543850
23,550167	0,5	-1,515650
23,558500	0,5	-1,474350
23,566833	0,5	-1,472850
23,575167	0,5	-1,472850
23,583500	0,5	-1,470950
23,591833	0,5	-1,468450
23,600167	0,5	-1,459350
23,608500	0,5	-1,454050
23,616833	0,5	-1,454050
23,625167	0,5	-1,444000
23,633500	0,5	-1,439200
23,641833	0,5	-1,432150
23,650167	0,5	-1,422850
23,658500	0,5	-1,416400
23,666833	0,5	-1,408600
23,675167	0,5	-1,424800
23,683500	0,5	-1,516000
23,691833	0,5	-1,467600
23,700167	0,5	-1,416300
23,708500	0,5	-1,377050
23,716833	0,5	-1,364750
23,725167	0,5	-1,360050
23,733500	0,5	-1,350000
23,741833	0,5	-1,343450
23,750167	0,5	-1,336600
23,758500	0,5	-1,324550
23,766833	0,5	-1,312900
23,775167	0,5	-1,297800
23,783500	0,5	-1,287250
23,791833	0,5	-1,273200
23,800167	0,5	-1,264700
23,808500	0,5	-1,247900
23,816833	0,5	-1,242550
23,825167	0,5	-1,321900
23,833500	0,5	-1,336800
23,841833	0,5	-1,287950
23,850167	0,5	-1,234300
23,858500	0,5	-1,202400
23,866833	0,5	-1,193100
23,875167	0,5	-1,183400
23,883500	0,5	-1,185750
23,891833	0,5	-1,172800
23,900167	0,5	-1,164050
23,908500	0,5	-1,149100
23,916833	0,5	-1,138700
23,925167	0,5	-1,122850
23,933500	0,5	-1,106700
23,941833	0,5	-1,095150
23,950167	0,5	-1,081800
23,958500	0,5	-1,072800
23,966833	0,5	-1,058200
23,975167	0,5	-1,172950
23,983500	0,5	-1,125600
23,991833	0,5	-1,093800
24,000167	0,5	-1,038050
24,008500	0,5	-1,007950
24,016833	0,5	-0,998300
24,025167	0,5	-0,989400
24,033500	0,5	-0,984750
24,041833	0,5	-0,970800
24,050167	0,5	-0,955150
24,058500	0,5	-0,950350
24,066833	0,5	-0,936450
24,075167	0,5	-0,924050
24,083500	0,5	-0,912550
24,091833	0,5	-0,900300
24,100167	0,5	-0,887200
24,108500	0,5	-0,877450
24,116833	0,5	-0,908950
24,125167	0,5	-0,955250
24,133500	0,5	-0,926750
24,141833	0,5	-0,879000
24,150167	0,5	-0,845650
24,158500	0,5	-0,824550
24,166833	0,5	-0,815600
24,175167	0,5	-0,807200
24,183500	0,5	-0,805250
24,191833	0,5	-0,781750
24,200167	0,5	-0,774800
24,208500	0,5	-0,758550
24,216833	0,5	-0,750150
24,225167	0,5	-0,736850
24,233500	0,5	-0,728450
24,241833	0,5	-0,712800
24,250167	0,5	-0,709250
24,258500	0,5	-0,704350
24,266833	0,5	-0,772950
24,275167	0,5	-0,754200
24,283500	0,5	-0,732450
24,291833	0,5	-0,694200
24,300167	0,5	-0,668700
24,308500	0,5	-0,656300
24,316833	0,5	-0,650650
24,325167	0,5	-0,654550
24,333500	0,5	-0,639200
24,341833	0,5	-0,626950
24,350167	0,5	-0,616750
24,358500	0,5	-0,613600
24,366833	0,5	-0,596950
24,375167	0,5	-0,587550
24,383500	0,5	-0,577450
24,391833	0,5	-0,568900
24,400167	0,5	-0,558900
24,408500	0,5	-0,552550
24,416833	0,5	-0,625050
24,425167	0,5	-0,586300
24,433500	0,5	-0,570750
24,441833	0,5	-0,540950
24,450167	0,5	-0,530600
24,458500	0,5	-0,515100
24,466833	0,5	-0,515300
24,475167	0,5	-0,515300
24,483500	0,5	-0,511300
24,491833	0,5	-0,497400
24,500167	0,5	-0,494600
24,508500	0,5	-0,484750
24,516833	0,5	-0,476100
24,525167	0,5	-0,467700
24,533500	0,5	-0,461500
24,541833	0,5	-0,453500
24,550167	0,5	-0,449950
24,558500	0,5	-0,467000
24,566833	0,5	-0,488400
24,575167	0,5	-0,462400
24,583500	0,5	-0,445250
24,591833	0,5	-0,422050
24,600167	0,5	-0,418500
24,608500	0,5	-0,411550
24,616833	0,5	-0,413100
24,625167	0,5	-0,416850
24,633500	0,5	-0,406500
24,641833	0,5	-0,408400
24,650167	0,5	-0,398650
24,658500	0,5	-0,393600
24,666833	0,5	-0,389550
24,675167	0,5	-0,385350
24,683500	0,5	-0,376200
24,691833	0,5	-0,374550
24,700167	0,5	-0,368600
24,708500	0,5	-0,400550
24,716833	0,5	-0,389100
24,725167	0,5	-0,380950
24,733500	0,5	-0,361150
24,741833	0,5	-0,350550
24,750167	0,5	-0,344500
24,758500	0,5	-0,341350
24,766833	0,5	-0,342900
24,775167	0,5	-0,341350
24,783500	0,5	-0,336500
24,791833	0,5	-0,331100
24,800167	0,5	-0,330200
24,808500	0,5	-0,325050
24,816833	0,5	-0,318650
24,825167	0,5	-0,315400
24,833500	0,5	-0,314300
24,841833	0,5	-0,311350
24,850167	0,5	-0,311800
24,858500	0,5	-0,333050
24,866833	0,5	-0,321250
24,875167	0,5	-0,310350
24,883500	0,5	-0,301250
24,891833	0,5	-0,293000
24,900167	0,5	-0,293450
24,908500	0,5	-0,289150
24,916833	0,5	-0,293950
24,925167	0,5	-0,288400
24,933500	0,5	-0,286850
24,941833	0,5	-0,283350
24,950167	0,5	-0,278750
24,958500	0,5	-0,277450
24,966833	0,5	-0,271150
24,975167	0,5	-0,270350
24,983500	0,5	-0,267400
24,991833	0,5	-0,264100
25,000167	0,5	-0,270650
25,008500	0,5	-0,274400
25,016833	0,5	-0,268350
25,025167	0,5	-0,260350
25,033500	0,5	-0,254400
25,041833	0,5	-0,252550
25,050167	0,5	-0,252200
25,058500	0,5	-0,250950
25,066833	0,5	-0,250700
25,075167	0,5	-0,251450
25,083500	0,5	-0,245300
25,091833	0,5	-0,245600
25,100167	0,5	-0,244550
25,108500	0,5	-0,240650
25,116833	0,5	-0,237050
25,125167	0,5	-0,235650
25,133500	0,5	-0,236050
25,141833	0,5	-0,233900
25,150167	0,5	-0,245050
25,158500	0,5	-0,232300
25,166833	0,5	-0,229850
25,175167	0,5	-0,225450
25,183500	0,5	-0,223000
25,191833	0,5	-0,221800
25,200167	0,5	-0,222100
25,208500	0,5	-0,221150
25,216833	0,5	-0,223450
25,225167	0,5	-0,220250
25,233500	0,5	-0,221650
25,241833	0,5	-0,221450
25,250167	0,5	-0,219550
25,258500	0,5	-0,221550
25,266833	0,5	-0,219150
25,275167	0,5	-0,216750
25,283500	0,5	-0,214050
25,291833	0,5	-0,214350
25,300167	0,5	-0,214000
25,308500	0,5	-0,210900
25,316833	0,5	-0,205150
25,325167	0,5	-0,205250
25,333500	0,5	-0,203900
25,341833	0,5	-0,207150
25,350167	0,5	-0,206300
25,358500	0,5	-0,205250
25,366833	0,5	-0,203750
25,375167	0,5	-0,203600
25,383500	0,5	-0,201900
25,391833	0,5	-0,202000
25,400167	0,5	-0,201750
25,408500	0,5	-0,202600
25,416833	0,5	-0,200200
25,425167	0,5	-0,200700
25,433500	0,5	-0,202900
25,441833	0,5	-0,197200
25,450167	0,5	-0,193350
25,458500	0,5	-0,192950
25,466833	0,5	-0,191750
25,475167	0,5	-0,195900
25,483500	0,5	-0,190100
25,491833	0,5	-0,192900
25,500167	0,5	-0,189550
25,508500	0,5	-0,191050
25,516833	0,5	-0,188550
25,525167	0,5	-0,187850
25,533500	0,5	-0,189450
25,541833	0,5	-0,189700
25,550167	0,5	-0,187850
25,558500	0,5	-0,188400
25,566833	0,5	-0,189850
25,575167	0,5	-0,186500
25,583500	0,5	-0,187400
25,591833	0,5	-0,184250
25,600167	0,5	-0,182600
25,608500	0,5	-0,178500
25,616833	0,5	-0,184050
25,625167	0,5	-0,184800
25,633500	0,5	-0,184300
25,641833	0,5	-0,180550
25,650167	0,5	-0,178300
25,658500	0,5	-0,178150
25,666833	0,5	-0,178100
25,675167	0,5	-0,177400
25,683500	0,5	-0,178700
25,691833	0,5	-0,176800
25,700167	0,5	-0,176050
25,708500	0,5	-0,174050
25,716833	0,5	-0,175150
25,725167	0,5	-0,172850
25,733500	0,5	-0,175500
25,741833	0,5	-0,167350
25,750167	0,5	-0,167300
25,758500	0,5	-0,161400
25,766833	0,5	-0,169750
25,775167	0,5	-0,168550
25,783500	0,5	-0,165250
25,791833	0,5	-0,166500
25,800167	0,5	-0,159950
25,808500	0,5	-0,163350
25,816833	0,5	-0,162150
25,825167	0,5	-0,162150
25,833500	0,5	-0,159400
25,841833	0,5	-0,160050
25,850167	0,5	-0,160400
25,858500	0,5	-0,161700
25,866833	0,5	-0,158550
25,875167	0,5	-0,157900
25,883500	0,5	-0,153850
25,891833	0,5	-0,149800
25,900167	0,5	-0,150400
25,908500	0,5	-0,147200
25,916833	0,5	-0,155250
25,925167	0,5	-0,158100
25,933500	0,5	-0,151150
25,941833	0,5	-0,151400
25,950167	0,5	-0,145400
25,958500	0,5	-0,146250
25,966833	0,5	-0,148700
25,975167	0,5	-0,144600
25,983500	0,5	-0,141450
25,991833	0,5	-0,142850
26,000167	0,5	-0,142850
