File Path	chrom://chromeleon01/ikbm_chromeleon/2022/ICS-5000/ED1/Esteban/20220612_Cell_7_4_eg.seq/373.smp/ED_1.channel/ED_1.chm
Channel	ED_1

Injection Information:
Data Vault	ikbm_chromeleon
Injection	7_24h-EGS-pH6_NA
Injection Number	14
Position	RB1
Comment	
Processing Method	Stop sequence after Cell Death
Instrument Method	ICS5000_PA200_FullNative_Ox_26min_ED1
Type	Unknown
Status	Finished
Injection Date	12.06.2022
Injection Time	22:12:53
Injection Volume (µl)	5,0
Dilution Factor	1,0000
Weight	1,0000

Chromatogram Data Information:
Time Min. (min)	0,000333
Time Max. (min)	26,000333
Data Points	3121
Detector	EDet1
Generating Data System	Chromeleon 7.2.9.11323
Exporting Data System	Chromeleon 7.2.9.0
Operator	Instrument Controller
Signal Quantity	
Signal Unit	nC
Signal Min.	-1,532550
Signal Max.	1 246,693519
Channel	ED_1
Driver Name	DC-5000
Channel Type	Evaluation
Min. Step (s)	0,5
Max. Step (s)	0,5
Average Step (s)	0,5

Signal Parameter Information:
Signal Info	

Chromatogram Data:
Time (min)	Step (s)	Value (nC)
0,000333	n.a.	-0,058600
0,008667	0,5	-0,045950
0,017000	0,5	-0,038550
0,025333	0,5	-0,034300
0,033667	0,5	-0,022950
0,042000	0,5	-0,024550
0,050333	0,5	-0,004050
0,058667	0,5	-0,004600
0,067000	0,5	-0,023500
0,075333	0,5	-0,025150
0,083667	0,5	-0,018450
0,092000	0,5	-0,002000
0,100333	0,5	0,009450
0,108667	0,5	-0,001050
0,117000	0,5	0,006500
0,125333	0,5	0,002900
0,133667	0,5	0,002950
0,142000	0,5	0,003200
0,150333	0,5	0,008750
0,158667	0,5	0,001350
0,167000	0,5	0,005200
0,175333	0,5	0,005350
0,183667	0,5	0,003900
0,192000	0,5	-0,011850
0,200333	0,5	0,011600
0,208667	0,5	-0,008100
0,217000	0,5	-0,010200
0,225333	0,5	-0,011050
0,233667	0,5	-0,001400
0,242000	0,5	0,019550
0,250333	0,5	0,018550
0,258667	0,5	0,013000
0,267000	0,5	0,010400
0,275333	0,5	0,011200
0,283667	0,5	0,015400
0,292000	0,5	0,035300
0,300333	0,5	0,051100
0,308667	0,5	0,035500
0,317000	0,5	0,010650
0,325333	0,5	-0,000300
0,333667	0,5	-0,008150
0,342000	0,5	-0,007300
0,350333	0,5	-0,000650
0,358667	0,5	-0,005950
0,367000	0,5	-0,006650
0,375333	0,5	-0,005600
0,383667	0,5	0,001450
0,392000	0,5	0,024700
0,400333	0,5	0,019350
0,408667	0,5	0,014900
0,417000	0,5	0,015600
0,425333	0,5	0,024250
0,433667	0,5	0,021600
0,442000	0,5	0,019500
0,450333	0,5	0,015750
0,458667	0,5	0,014050
0,467000	0,5	0,020500
0,475333	0,5	0,012800
0,483667	0,5	0,011700
0,492000	0,5	0,006800
0,500333	0,5	0,016350
0,508667	0,5	0,000850
0,517000	0,5	0,006500
0,525333	0,5	0,010550
0,533667	0,5	0,028400
0,542000	0,5	0,040300
0,550333	0,5	0,041650
0,558667	0,5	0,037200
0,567000	0,5	0,041800
0,575333	0,5	0,036400
0,583667	0,5	0,040950
0,592000	0,5	0,039850
0,600333	0,5	0,039350
0,608667	0,5	0,038650
0,617000	0,5	0,040950
0,625333	0,5	0,035400
0,633667	0,5	0,024950
0,642000	0,5	0,037350
0,650333	0,5	0,037850
0,658667	0,5	0,030650
0,667000	0,5	0,034800
0,675333	0,5	0,041350
0,683667	0,5	0,053400
0,692000	0,5	0,067350
0,700333	0,5	0,063250
0,708667	0,5	0,070250
0,717000	0,5	0,069600
0,725333	0,5	0,073250
0,733667	0,5	0,066450
0,742000	0,5	0,068500
0,750333	0,5	0,066700
0,758667	0,5	0,065550
0,767000	0,5	0,070800
0,775333	0,5	0,057750
0,783667	0,5	0,058550
0,792000	0,5	0,081500
0,800333	0,5	0,069250
0,808667	0,5	0,066750
0,817000	0,5	0,071600
0,825333	0,5	0,070750
0,833667	0,5	0,097400
0,842000	0,5	0,092800
0,850333	0,5	0,097800
0,858667	0,5	0,091500
0,867000	0,5	0,099050
0,875333	0,5	0,095700
0,883667	0,5	0,097300
0,892000	0,5	0,098500
0,900333	0,5	0,101750
0,908667	0,5	0,104250
0,917000	0,5	0,104750
0,925333	0,5	0,097050
0,933667	0,5	0,102700
0,942000	0,5	0,113700
0,950333	0,5	0,100000
0,958667	0,5	0,102350
0,967000	0,5	0,106600
0,975333	0,5	0,111150
0,983667	0,5	0,132900
0,992000	0,5	0,128000
1,000333	0,5	0,127750
1,008667	0,5	0,128600
1,017000	0,5	0,126150
1,025333	0,5	0,133050
1,033667	0,5	0,126800
1,042000	0,5	0,131150
1,050333	0,5	0,122100
1,058667	0,5	0,127250
1,067000	0,5	0,131500
1,075333	0,5	0,132050
1,083667	0,5	0,134600
1,092000	0,5	0,142550
1,100333	0,5	0,125600
1,108667	0,5	0,125100
1,117000	0,5	0,126400
1,125333	0,5	0,136600
1,133667	0,5	0,152200
1,142000	0,5	0,141250
1,150333	0,5	0,144300
1,158667	0,5	0,142200
1,167000	0,5	0,139600
1,175333	0,5	0,139050
1,183667	0,5	0,139950
1,192000	0,5	0,138600
1,200333	0,5	0,139150
1,208667	0,5	0,132500
1,217000	0,5	0,138700
1,225333	0,5	0,127200
1,233667	0,5	0,138000
1,242000	0,5	0,128250
1,250333	0,5	0,120450
1,258667	0,5	0,117100
1,267000	0,5	0,122850
1,275333	0,5	0,134250
1,283667	0,5	0,144400
1,292000	0,5	0,133950
1,300333	0,5	0,131750
1,308667	0,5	0,125350
1,317000	0,5	0,123850
1,325333	0,5	0,119150
1,333667	0,5	0,113650
1,342000	0,5	0,112650
1,350333	0,5	0,104500
1,358667	0,5	0,102800
1,367000	0,5	0,090850
1,375333	0,5	0,091300
1,383667	0,5	0,098750
1,392000	0,5	0,084500
1,400333	0,5	0,076200
1,408667	0,5	0,075100
1,417000	0,5	0,078700
1,425333	0,5	0,089750
1,433667	0,5	0,086800
1,442000	0,5	0,088050
1,450333	0,5	0,075550
1,458667	0,5	0,080900
1,467000	0,5	0,079200
1,475333	0,5	0,081350
1,483667	0,5	0,073750
1,492000	0,5	0,065900
1,500333	0,5	0,066050
1,508667	0,5	0,058050
1,517000	0,5	0,049900
1,525333	0,5	0,054200
1,533667	0,5	0,049600
1,542000	0,5	0,030650
1,550333	0,5	0,033550
1,558667	0,5	0,042700
1,567000	0,5	0,075800
1,575333	0,5	0,219250
1,583667	0,5	1,927350
1,592000	0,5	11,285100
1,600333	0,5	47,091451
1,608667	0,5	158,851052
1,617000	0,5	417,855456
1,625333	0,5	801,711962
1,633667	0,5	1 137,694017
1,642000	0,5	1 246,693519
1,650333	0,5	1 102,590966
1,658667	0,5	830,837812
1,667000	0,5	577,809709
1,675333	0,5	396,676206
1,683667	0,5	277,921954
1,692000	0,5	201,412903
1,700333	0,5	151,572852
1,708667	0,5	118,127102
1,717000	0,5	94,747401
1,725333	0,5	77,787151
1,733667	0,5	65,208701
1,742000	0,5	55,766701
1,750333	0,5	48,480751
1,758667	0,5	42,757851
1,767000	0,5	38,212101
1,775333	0,5	34,633201
1,783667	0,5	31,838500
1,792000	0,5	29,695750
1,800333	0,5	28,031950
1,808667	0,5	26,677100
1,817000	0,5	25,378000
1,825333	0,5	24,021100
1,833667	0,5	22,514000
1,842000	0,5	21,075900
1,850333	0,5	19,803150
1,858667	0,5	18,730600
1,867000	0,5	17,892500
1,875333	0,5	17,340900
1,883667	0,5	17,348300
1,892000	0,5	18,403200
1,900333	0,5	21,042500
1,908667	0,5	24,573800
1,917000	0,5	26,611800
1,925333	0,5	25,450450
1,933667	0,5	22,073850
1,942000	0,5	18,461050
1,950333	0,5	15,701600
1,958667	0,5	13,884400
1,967000	0,5	12,807600
1,975333	0,5	12,178400
1,983667	0,5	11,758050
1,992000	0,5	11,481750
2,000333	0,5	11,314400
2,008667	0,5	11,240650
2,017000	0,5	11,202100
2,025333	0,5	11,054300
2,033667	0,5	10,796050
2,042000	0,5	10,514200
2,050333	0,5	10,311550
2,058667	0,5	10,213900
2,067000	0,5	10,168500
2,075333	0,5	10,142000
2,083667	0,5	10,144150
2,092000	0,5	10,150800
2,100333	0,5	10,056650
2,108667	0,5	9,839350
2,117000	0,5	9,550000
2,125333	0,5	9,302400
2,133667	0,5	9,132350
2,142000	0,5	9,116500
2,150333	0,5	9,247550
2,158667	0,5	9,556950
2,167000	0,5	10,002150
2,175333	0,5	10,776150
2,183667	0,5	12,572750
2,192000	0,5	16,136100
2,200333	0,5	17,711600
2,208667	0,5	15,090600
2,217000	0,5	11,994300
2,225333	0,5	10,461000
2,233667	0,5	9,856700
2,242000	0,5	9,593200
2,250333	0,5	9,469350
2,258667	0,5	9,395850
2,267000	0,5	9,364200
2,275333	0,5	9,364150
2,283667	0,5	9,327900
2,292000	0,5	9,357250
2,300333	0,5	9,417100
2,308667	0,5	9,510450
2,317000	0,5	9,619500
2,325333	0,5	9,767100
2,333667	0,5	10,004900
2,342000	0,5	10,386600
2,350333	0,5	11,037800
2,358667	0,5	12,107300
2,367000	0,5	14,025650
2,375333	0,5	17,643850
2,383667	0,5	24,112350
2,392000	0,5	33,569051
2,400333	0,5	43,352551
2,408667	0,5	48,926551
2,417000	0,5	47,734951
2,425333	0,5	41,455001
2,433667	0,5	33,848601
2,442000	0,5	27,477250
2,450333	0,5	22,939750
2,458667	0,5	19,863050
2,467000	0,5	17,705500
2,475333	0,5	16,155600
2,483667	0,5	15,007900
2,492000	0,5	14,181500
2,500333	0,5	13,573350
2,508667	0,5	13,123100
2,517000	0,5	12,752300
2,525333	0,5	12,438900
2,533667	0,5	12,184700
2,542000	0,5	12,002800
2,550333	0,5	11,912700
2,558667	0,5	11,956800
2,567000	0,5	12,174200
2,575333	0,5	12,760150
2,583667	0,5	13,981550
2,592000	0,5	15,935150
2,600333	0,5	18,218200
2,608667	0,5	19,906100
2,617000	0,5	20,171850
2,625333	0,5	18,948000
2,633667	0,5	16,910850
2,642000	0,5	14,835250
2,650333	0,5	13,209450
2,658667	0,5	12,097500
2,667000	0,5	11,400950
2,675333	0,5	10,972900
2,683667	0,5	10,703750
2,692000	0,5	10,514850
2,700333	0,5	10,336600
2,708667	0,5	10,181250
2,717000	0,5	9,998500
2,725333	0,5	9,828350
2,733667	0,5	9,692150
2,742000	0,5	9,576600
2,750333	0,5	9,474100
2,758667	0,5	9,349750
2,767000	0,5	9,188650
2,775333	0,5	9,016850
2,783667	0,5	8,819350
2,792000	0,5	8,623800
2,800333	0,5	8,420750
2,808667	0,5	8,235650
2,817000	0,5	8,047450
2,825333	0,5	7,883550
2,833667	0,5	7,731200
2,842000	0,5	7,589850
2,850333	0,5	7,446500
2,858667	0,5	7,329650
2,867000	0,5	7,182050
2,875333	0,5	7,046000
2,883667	0,5	6,905200
2,892000	0,5	6,778050
2,900333	0,5	6,662800
2,908667	0,5	6,534750
2,917000	0,5	6,415550
2,925333	0,5	6,310750
2,933667	0,5	6,206600
2,942000	0,5	6,106600
2,950333	0,5	6,004650
2,958667	0,5	5,896500
2,967000	0,5	5,789300
2,975333	0,5	5,679300
2,983667	0,5	5,574350
2,992000	0,5	5,466350
3,000333	0,5	5,385800
3,008667	0,5	5,305250
3,017000	0,5	5,217050
3,025333	0,5	5,145650
3,033667	0,5	5,073550
3,042000	0,5	5,001300
3,050333	0,5	4,920350
3,058667	0,5	4,822050
3,067000	0,5	4,722250
3,075333	0,5	4,622300
3,083667	0,5	4,530450
3,092000	0,5	4,440800
3,100333	0,5	4,358150
3,108667	0,5	4,275550
3,117000	0,5	4,197700
3,125333	0,5	4,128050
3,133667	0,5	4,051550
3,142000	0,5	3,987350
3,150333	0,5	3,935650
3,158667	0,5	3,875100
3,167000	0,5	3,806600
3,175333	0,5	3,750900
3,183667	0,5	3,692200
3,192000	0,5	3,648950
3,200333	0,5	3,589650
3,208667	0,5	3,535350
3,217000	0,5	3,474550
3,225333	0,5	3,426850
3,233667	0,5	3,373550
3,242000	0,5	3,337300
3,250333	0,5	3,296800
3,258667	0,5	3,266500
3,267000	0,5	3,246350
3,275333	0,5	3,234700
3,283667	0,5	3,241650
3,292000	0,5	3,248650
3,300333	0,5	3,296500
3,308667	0,5	3,344150
3,317000	0,5	3,452200
3,325333	0,5	3,648650
3,333667	0,5	3,975200
3,342000	0,5	4,492100
3,350333	0,5	5,209200
3,358667	0,5	6,109750
3,367000	0,5	7,122500
3,375333	0,5	8,066500
3,383667	0,5	8,773000
3,392000	0,5	9,065150
3,400333	0,5	8,903100
3,408667	0,5	8,334000
3,417000	0,5	7,508000
3,425333	0,5	6,590600
3,433667	0,5	5,720550
3,442000	0,5	4,992100
3,450333	0,5	4,437750
3,458667	0,5	3,998300
3,467000	0,5	3,688750
3,475333	0,5	3,462650
3,483667	0,5	3,294900
3,492000	0,5	3,170800
3,500333	0,5	3,048100
3,508667	0,5	2,959550
3,517000	0,5	2,881350
3,525333	0,5	2,825400
3,533667	0,5	2,769700
3,542000	0,5	2,723900
3,550333	0,5	2,675000
3,558667	0,5	2,626050
3,567000	0,5	2,581550
3,575333	0,5	2,539250
3,583667	0,5	2,494200
3,592000	0,5	2,476350
3,600333	0,5	2,461500
3,608667	0,5	2,451650
3,617000	0,5	2,460050
3,625333	0,5	2,479250
3,633667	0,5	2,503000
3,642000	0,5	2,530350
3,650333	0,5	2,539300
3,658667	0,5	2,546750
3,667000	0,5	2,548750
3,675333	0,5	2,527650
3,683667	0,5	2,504900
3,692000	0,5	2,470850
3,700333	0,5	2,432200
3,708667	0,5	2,384750
3,717000	0,5	2,340500
3,725333	0,5	2,289800
3,733667	0,5	2,244200
3,742000	0,5	2,203550
3,750333	0,5	2,161000
3,758667	0,5	2,119300
3,767000	0,5	2,092850
3,775333	0,5	2,066500
3,783667	0,5	2,052950
3,792000	0,5	2,038550
3,800333	0,5	2,013100
3,808667	0,5	1,989600
3,817000	0,5	1,961800
3,825333	0,5	1,932100
3,833667	0,5	1,899750
3,842000	0,5	1,862050
3,850333	0,5	1,828150
3,858667	0,5	1,800200
3,867000	0,5	1,767850
3,875333	0,5	1,738100
3,883667	0,5	1,714700
3,892000	0,5	1,699950
3,900333	0,5	1,664400
3,908667	0,5	1,640950
3,917000	0,5	1,615300
3,925333	0,5	1,605450
3,933667	0,5	1,591750
3,942000	0,5	1,581350
3,950333	0,5	1,557450
3,958667	0,5	1,551050
3,967000	0,5	1,539100
3,975333	0,5	1,531500
3,983667	0,5	1,522250
3,992000	0,5	1,514250
4,000333	0,5	1,509500
4,008667	0,5	1,502400
4,017000	0,5	1,500000
4,025333	0,5	1,483500
4,033667	0,5	1,491300
4,042000	0,5	1,490350
4,050333	0,5	1,489350
4,058667	0,5	1,496650
4,067000	0,5	1,522950
4,075333	0,5	1,563100
4,083667	0,5	1,627700
4,092000	0,5	1,704850
4,100333	0,5	1,817600
4,108667	0,5	1,945350
4,117000	0,5	2,083900
4,125333	0,5	2,206200
4,133667	0,5	2,292450
4,142000	0,5	2,320100
4,150333	0,5	2,294050
4,158667	0,5	2,217000
4,167000	0,5	2,092600
4,175333	0,5	1,955550
4,183667	0,5	1,839100
4,192000	0,5	1,723500
4,200333	0,5	1,627250
4,208667	0,5	1,553600
4,217000	0,5	1,502400
4,225333	0,5	1,474700
4,233667	0,5	1,442050
4,242000	0,5	1,418050
4,250333	0,5	1,400100
4,258667	0,5	1,385350
4,267000	0,5	1,361750
4,275333	0,5	1,348600
4,283667	0,5	1,332450
4,292000	0,5	1,323100
4,300333	0,5	1,313750
4,308667	0,5	1,308200
4,317000	0,5	1,296350
4,325333	0,5	1,284600
4,333667	0,5	1,285800
4,342000	0,5	1,263650
4,350333	0,5	1,253200
4,358667	0,5	1,240000
4,367000	0,5	1,240250
4,375333	0,5	1,240350
4,383667	0,5	1,234900
4,392000	0,5	1,226200
4,400333	0,5	1,231850
4,408667	0,5	1,238300
4,417000	0,5	1,250500
4,425333	0,5	1,264150
4,433667	0,5	1,285750
4,442000	0,5	1,299550
4,450333	0,5	1,320250
4,458667	0,5	1,332350
4,467000	0,5	1,340650
4,475333	0,5	1,341650
4,483667	0,5	1,346750
4,492000	0,5	1,327750
4,500333	0,5	1,315250
4,508667	0,5	1,299200
4,517000	0,5	1,288450
4,525333	0,5	1,278600
4,533667	0,5	1,257150
4,542000	0,5	1,245800
4,550333	0,5	1,230600
4,558667	0,5	1,216150
4,567000	0,5	1,201600
4,575333	0,5	1,189600
4,583667	0,5	1,175050
4,592000	0,5	1,166850
4,600333	0,5	1,160450
4,608667	0,5	1,155700
4,617000	0,5	1,145250
4,625333	0,5	1,155900
4,633667	0,5	1,153850
4,642000	0,5	1,154550
4,650333	0,5	1,162100
4,658667	0,5	1,178900
4,667000	0,5	1,210650
4,675333	0,5	1,252300
4,683667	0,5	1,307950
4,692000	0,5	1,387300
4,700333	0,5	1,489900
4,708667	0,5	1,621000
4,717000	0,5	1,770650
4,725333	0,5	1,935250
4,733667	0,5	2,092900
4,742000	0,5	2,232200
4,750333	0,5	2,334050
4,758667	0,5	2,379800
4,767000	0,5	2,363900
4,775333	0,5	2,310000
4,783667	0,5	2,180600
4,792000	0,5	2,028450
4,800333	0,5	1,863650
4,808667	0,5	1,701650
4,817000	0,5	1,563900
4,825333	0,5	1,427450
4,833667	0,5	1,327400
4,842000	0,5	1,242300
4,850333	0,5	1,191700
4,858667	0,5	1,145300
4,867000	0,5	1,119700
4,875333	0,5	1,098500
4,883667	0,5	1,081350
4,892000	0,5	1,072200
4,900333	0,5	1,059300
4,908667	0,5	1,051750
4,917000	0,5	1,035000
4,925333	0,5	1,025950
4,933667	0,5	1,005300
4,942000	0,5	0,988400
4,950333	0,5	0,973650
4,958667	0,5	0,968700
4,967000	0,5	0,963250
4,975333	0,5	0,961550
4,983667	0,5	0,947800
4,992000	0,5	0,948900
5,000333	0,5	0,942850
5,008667	0,5	0,940250
5,017000	0,5	0,935900
5,025333	0,5	0,934250
5,033667	0,5	0,932050
5,042000	0,5	0,928750
5,050333	0,5	0,928250
5,058667	0,5	0,925450
5,067000	0,5	0,922600
5,075333	0,5	0,921900
5,083667	0,5	0,907350
5,092000	0,5	0,903150
5,100333	0,5	0,904150
5,108667	0,5	0,908650
5,117000	0,5	0,914800
5,125333	0,5	0,914400
5,133667	0,5	0,914350
5,142000	0,5	0,915900
5,150333	0,5	0,922200
5,158667	0,5	0,921600
5,167000	0,5	0,932050
5,175333	0,5	0,941350
5,183667	0,5	0,958150
5,192000	0,5	0,975900
5,200333	0,5	0,986150
5,208667	0,5	1,001600
5,217000	0,5	1,025850
5,225333	0,5	1,033200
5,233667	0,5	1,032150
5,242000	0,5	1,027600
5,250333	0,5	1,018800
5,258667	0,5	1,017550
5,267000	0,5	1,003350
5,275333	0,5	0,990200
5,283667	0,5	0,976600
5,292000	0,5	0,973400
5,300333	0,5	0,967500
5,308667	0,5	0,959850
5,317000	0,5	0,954450
5,325333	0,5	0,955250
5,333667	0,5	0,948150
5,342000	0,5	0,945700
5,350333	0,5	0,934700
5,358667	0,5	0,925000
5,367000	0,5	0,924600
5,375333	0,5	0,908250
5,383667	0,5	0,897100
5,392000	0,5	0,888900
5,400333	0,5	0,881450
5,408667	0,5	0,884250
5,417000	0,5	0,873750
5,425333	0,5	0,867750
5,433667	0,5	0,861800
5,442000	0,5	0,853300
5,450333	0,5	0,846050
5,458667	0,5	0,836000
5,467000	0,5	0,828750
5,475333	0,5	0,816900
5,483667	0,5	0,813100
5,492000	0,5	0,804150
5,500333	0,5	0,799350
5,508667	0,5	0,789900
5,517000	0,5	0,793050
5,525333	0,5	0,778600
5,533667	0,5	0,775900
5,542000	0,5	0,772550
5,550333	0,5	0,779050
5,558667	0,5	0,786950
5,567000	0,5	0,782550
5,575333	0,5	0,782550
5,583667	0,5	0,780850
5,592000	0,5	0,781800
5,600333	0,5	0,779750
5,608667	0,5	0,775150
5,617000	0,5	0,770950
5,625333	0,5	0,766550
5,633667	0,5	0,760850
5,642000	0,5	0,758200
5,650333	0,5	0,747350
5,658667	0,5	0,745150
5,667000	0,5	0,740600
5,675333	0,5	0,732100
5,683667	0,5	0,729450
5,692000	0,5	0,724450
5,700333	0,5	0,727600
5,708667	0,5	0,732200
5,717000	0,5	0,728600
5,725333	0,5	0,725950
5,733667	0,5	0,718050
5,742000	0,5	0,715900
5,750333	0,5	0,712000
5,758667	0,5	0,709750
5,767000	0,5	0,710000
5,775333	0,5	0,706400
5,783667	0,5	0,706650
5,792000	0,5	0,702050
5,800333	0,5	0,698200
5,808667	0,5	0,701900
5,817000	0,5	0,695750
5,825333	0,5	0,685850
5,833667	0,5	0,678950
5,842000	0,5	0,677550
5,850333	0,5	0,680150
5,858667	0,5	0,674100
5,867000	0,5	0,673950
5,875333	0,5	0,664050
5,883667	0,5	0,666300
5,892000	0,5	0,661950
5,900333	0,5	0,659050
5,908667	0,5	0,661400
5,917000	0,5	0,661550
5,925333	0,5	0,661300
5,933667	0,5	0,660200
5,942000	0,5	0,660950
5,950333	0,5	0,659750
5,958667	0,5	0,660350
5,967000	0,5	0,651000
5,975333	0,5	0,644550
5,983667	0,5	0,641800
5,992000	0,5	0,640050
6,000333	0,5	0,640300
6,008667	0,5	0,642850
6,017000	0,5	0,637800
6,025333	0,5	0,642250
6,033667	0,5	0,640650
6,042000	0,5	0,650300
6,050333	0,5	0,652050
6,058667	0,5	0,661950
6,067000	0,5	0,665350
6,075333	0,5	0,678150
6,083667	0,5	0,687000
6,092000	0,5	0,692650
6,100333	0,5	0,710400
6,108667	0,5	0,724300
6,117000	0,5	0,735450
6,125333	0,5	0,756500
6,133667	0,5	0,804750
6,142000	0,5	0,878500
6,150333	0,5	0,985200
6,158667	0,5	1,120950
6,167000	0,5	1,291150
6,175333	0,5	1,459250
6,183667	0,5	1,592400
6,192000	0,5	1,662200
6,200333	0,5	1,654750
6,208667	0,5	1,570000
6,217000	0,5	1,444000
6,225333	0,5	1,301950
6,233667	0,5	1,178800
6,242000	0,5	1,068700
6,250333	0,5	1,003600
6,258667	0,5	0,950150
6,267000	0,5	0,920600
6,275333	0,5	0,908800
6,283667	0,5	0,926500
6,292000	0,5	0,975700
6,300333	0,5	1,055100
6,308667	0,5	1,172850
6,317000	0,5	1,316150
6,325333	0,5	1,462000
6,333667	0,5	1,580350
6,342000	0,5	1,651850
6,350333	0,5	1,659000
6,358667	0,5	1,609250
6,367000	0,5	1,508000
6,375333	0,5	1,386150
6,383667	0,5	1,256200
6,392000	0,5	1,147450
6,400333	0,5	1,061500
6,408667	0,5	1,000600
6,417000	0,5	0,977450
6,425333	0,5	0,981200
6,433667	0,5	1,024700
6,442000	0,5	1,097450
6,450333	0,5	1,128400
6,458667	0,5	1,108550
6,467000	0,5	1,054200
6,475333	0,5	0,967350
6,483667	0,5	0,886500
6,492000	0,5	0,824550
6,500333	0,5	0,781500
6,508667	0,5	0,745700
6,517000	0,5	0,725850
6,525333	0,5	0,707600
6,533667	0,5	0,700650
6,542000	0,5	0,694400
6,550333	0,5	0,695400
6,558667	0,5	0,686200
6,567000	0,5	0,686750
6,575333	0,5	0,685650
6,583667	0,5	0,691700
6,592000	0,5	0,698350
6,600333	0,5	0,704400
6,608667	0,5	0,705750
6,617000	0,5	0,709900
6,625333	0,5	0,715950
6,633667	0,5	0,719800
6,642000	0,5	0,722800
6,650333	0,5	0,724150
6,658667	0,5	0,728200
6,667000	0,5	0,733650
6,675333	0,5	0,738450
6,683667	0,5	0,741400
6,692000	0,5	0,753050
6,700333	0,5	0,755600
6,708667	0,5	0,754000
6,717000	0,5	0,758500
6,725333	0,5	0,765950
6,733667	0,5	0,776400
6,742000	0,5	0,781400
6,750333	0,5	0,785800
6,758667	0,5	0,793050
6,767000	0,5	0,799600
6,775333	0,5	0,807650
6,783667	0,5	0,810150
6,792000	0,5	0,818200
6,800333	0,5	0,822450
6,808667	0,5	0,830850
6,817000	0,5	0,839500
6,825333	0,5	0,841550
6,833667	0,5	0,850250
6,842000	0,5	0,865650
6,850333	0,5	0,873050
6,858667	0,5	0,885700
6,867000	0,5	0,904000
6,875333	0,5	0,921200
6,883667	0,5	0,946700
6,892000	0,5	0,964050
6,900333	0,5	0,985150
6,908667	0,5	1,006000
6,917000	0,5	1,031400
6,925333	0,5	1,051150
6,933667	0,5	1,073450
6,942000	0,5	1,095400
6,950333	0,5	1,120000
6,958667	0,5	1,135950
6,967000	0,5	1,151450
6,975333	0,5	1,161450
6,983667	0,5	1,173800
6,992000	0,5	1,188200
7,000333	0,5	1,186200
7,008667	0,5	1,187000
7,017000	0,5	1,185000
7,025333	0,5	1,174900
7,033667	0,5	1,169650
7,042000	0,5	1,153700
7,050333	0,5	1,132000
7,058667	0,5	1,111700
7,067000	0,5	1,088600
7,075333	0,5	1,069650
7,083667	0,5	1,046250
7,092000	0,5	1,026850
7,100333	0,5	1,004100
7,108667	0,5	0,990050
7,117000	0,5	0,973800
7,125333	0,5	0,963000
7,133667	0,5	0,952700
7,142000	0,5	0,944650
7,150333	0,5	0,934500
7,158667	0,5	0,929650
7,167000	0,5	0,927500
7,175333	0,5	0,930250
7,183667	0,5	0,930200
7,192000	0,5	0,929500
7,200333	0,5	0,930450
7,208667	0,5	0,925550
7,217000	0,5	0,930400
7,225333	0,5	0,924600
7,233667	0,5	0,928450
7,242000	0,5	0,927550
7,250333	0,5	0,926750
7,258667	0,5	0,928750
7,267000	0,5	0,926200
7,275333	0,5	0,925650
7,283667	0,5	0,931050
7,292000	0,5	0,930250
7,300333	0,5	0,929450
7,308667	0,5	0,926950
7,317000	0,5	0,931200
7,325333	0,5	0,937200
7,333667	0,5	0,939150
7,342000	0,5	0,941200
7,350333	0,5	0,942350
7,358667	0,5	0,946350
7,367000	0,5	0,948800
7,375333	0,5	0,954050
7,383667	0,5	0,957400
7,392000	0,5	0,957300
7,400333	0,5	0,959700
7,408667	0,5	0,964050
7,417000	0,5	0,963200
7,425333	0,5	0,968150
7,433667	0,5	0,979100
7,442000	0,5	0,980950
7,450333	0,5	0,986250
7,458667	0,5	0,995150
7,467000	0,5	1,005850
7,475333	0,5	1,025600
7,483667	0,5	1,037050
7,492000	0,5	1,052650
7,500333	0,5	1,066250
7,508667	0,5	1,084400
7,517000	0,5	1,102050
7,525333	0,5	1,123350
7,533667	0,5	1,141500
7,542000	0,5	1,159600
7,550333	0,5	1,175800
7,558667	0,5	1,183700
7,567000	0,5	1,186900
7,575333	0,5	1,183850
7,583667	0,5	1,173200
7,592000	0,5	1,146700
7,600333	0,5	1,122650
7,608667	0,5	1,099200
7,617000	0,5	1,075850
7,625333	0,5	1,056150
7,633667	0,5	1,038850
7,642000	0,5	1,018550
7,650333	0,5	1,011550
7,658667	0,5	1,002500
7,667000	0,5	1,000300
7,675333	0,5	0,998050
7,683667	0,5	0,996050
7,692000	0,5	0,995300
7,700333	0,5	0,993150
7,708667	0,5	0,994950
7,717000	0,5	0,993100
7,725333	0,5	0,992900
7,733667	0,5	0,986000
7,742000	0,5	0,982650
7,750333	0,5	0,975550
7,758667	0,5	0,970250
7,767000	0,5	0,969250
7,775333	0,5	0,969500
7,783667	0,5	0,964550
7,792000	0,5	0,963500
7,800333	0,5	0,962900
7,808667	0,5	0,964000
7,817000	0,5	0,960600
7,825333	0,5	0,962400
7,833667	0,5	0,960150
7,842000	0,5	0,960100
7,850333	0,5	0,961950
7,858667	0,5	0,964000
7,867000	0,5	0,963500
7,875333	0,5	0,968300
7,883667	0,5	0,968300
7,892000	0,5	0,977400
7,900333	0,5	0,981950
7,908667	0,5	0,991650
7,917000	0,5	1,000200
7,925333	0,5	1,003850
7,933667	0,5	1,005000
7,942000	0,5	0,995050
7,950333	0,5	0,985950
7,958667	0,5	0,974400
7,967000	0,5	0,965250
7,975333	0,5	0,960850
7,983667	0,5	0,956350
7,992000	0,5	0,955500
8,000333	0,5	0,959800
8,008667	0,5	0,975800
8,017000	0,5	1,005200
8,025333	0,5	1,060400
8,033667	0,5	1,129500
8,042000	0,5	1,216050
8,050333	0,5	1,302650
8,058667	0,5	1,369600
8,067000	0,5	1,398000
8,075333	0,5	1,376850
8,083667	0,5	1,323150
8,092000	0,5	1,250400
8,100333	0,5	1,184900
8,108667	0,5	1,136650
8,117000	0,5	1,115350
8,125333	0,5	1,123500
8,133667	0,5	1,157500
8,142000	0,5	1,203900
8,150333	0,5	1,253850
8,158667	0,5	1,298050
8,167000	0,5	1,324300
8,175333	0,5	1,328750
8,183667	0,5	1,304250
8,192000	0,5	1,269600
8,200333	0,5	1,226800
8,208667	0,5	1,186000
8,217000	0,5	1,156500
8,225333	0,5	1,143650
8,233667	0,5	1,150000
8,242000	0,5	1,158500
8,250333	0,5	1,176750
8,258667	0,5	1,195650
8,267000	0,5	1,206800
8,275333	0,5	1,213900
8,283667	0,5	1,215250
8,292000	0,5	1,211100
8,300333	0,5	1,198850
8,308667	0,5	1,178900
8,317000	0,5	1,157400
8,325333	0,5	1,131500
8,333667	0,5	1,099600
8,342000	0,5	1,068600
8,350333	0,5	1,043200
8,358667	0,5	1,026300
8,367000	0,5	1,017900
8,375333	0,5	1,018200
8,383667	0,5	1,021100
8,392000	0,5	1,032550
8,400333	0,5	1,050850
8,408667	0,5	1,069100
8,417000	0,5	1,089500
8,425333	0,5	1,116800
8,433667	0,5	1,151350
8,442000	0,5	1,206050
8,450333	0,5	1,275850
8,458667	0,5	1,353500
8,467000	0,5	1,435200
8,475333	0,5	1,489150
8,483667	0,5	1,508450
8,492000	0,5	1,488700
8,500333	0,5	1,437550
8,508667	0,5	1,359850
8,517000	0,5	1,276850
8,525333	0,5	1,201500
8,533667	0,5	1,134000
8,542000	0,5	1,090750
8,550333	0,5	1,059150
8,558667	0,5	1,041600
8,567000	0,5	1,039200
8,575333	0,5	1,051550
8,583667	0,5	1,087700
8,592000	0,5	1,152150
8,600333	0,5	1,239800
8,608667	0,5	1,344300
8,617000	0,5	1,447700
8,625333	0,5	1,510000
8,633667	0,5	1,543550
8,642000	0,5	1,533050
8,650333	0,5	1,491450
8,658667	0,5	1,435800
8,667000	0,5	1,368500
8,675333	0,5	1,301550
8,683667	0,5	1,233000
8,692000	0,5	1,167350
8,700333	0,5	1,106300
8,708667	0,5	1,052650
8,717000	0,5	1,009600
8,725333	0,5	0,969950
8,733667	0,5	0,942050
8,742000	0,5	0,921050
8,750333	0,5	0,902650
8,758667	0,5	0,895100
8,767000	0,5	0,887450
8,775333	0,5	0,886200
8,783667	0,5	0,888100
8,792000	0,5	0,891650
8,800333	0,5	0,905600
8,808667	0,5	0,922450
8,817000	0,5	0,950050
8,825333	0,5	0,983200
8,833667	0,5	1,035450
8,842000	0,5	1,109450
8,850333	0,5	1,205400
8,858667	0,5	1,308400
8,867000	0,5	1,416200
8,875333	0,5	1,507600
8,883667	0,5	1,566750
8,892000	0,5	1,587650
8,900333	0,5	1,567850
8,908667	0,5	1,513200
8,917000	0,5	1,437700
8,925333	0,5	1,346500
8,933667	0,5	1,262400
8,942000	0,5	1,189800
8,950333	0,5	1,136350
8,958667	0,5	1,098600
8,967000	0,5	1,074950
8,975333	0,5	1,065350
8,983667	0,5	1,075850
8,992000	0,5	1,110000
9,000333	0,5	1,168100
9,008667	0,5	1,252850
9,017000	0,5	1,357650
9,025333	0,5	1,459050
9,033667	0,5	1,531050
9,042000	0,5	1,558300
9,050333	0,5	1,533300
9,058667	0,5	1,472450
9,067000	0,5	1,395000
9,075333	0,5	1,321250
9,083667	0,5	1,266350
9,092000	0,5	1,250250
9,100333	0,5	1,273800
9,108667	0,5	1,333150
9,117000	0,5	1,417350
9,125333	0,5	1,503850
9,133667	0,5	1,570550
9,142000	0,5	1,598750
9,150333	0,5	1,580200
9,158667	0,5	1,513050
9,167000	0,5	1,418600
9,175333	0,5	1,322600
9,183667	0,5	1,233600
9,192000	0,5	1,163000
9,200333	0,5	1,105200
9,208667	0,5	1,074400
9,217000	0,5	1,050450
9,225333	0,5	1,037600
9,233667	0,5	1,030800
9,242000	0,5	1,024700
9,250333	0,5	1,019400
9,258667	0,5	1,021600
9,267000	0,5	1,017700
9,275333	0,5	1,019550
9,283667	0,5	1,022350
9,292000	0,5	1,030350
9,300333	0,5	1,041300
9,308667	0,5	1,060550
9,317000	0,5	1,080700
9,325333	0,5	1,112050
9,333667	0,5	1,165300
9,342000	0,5	1,245300
9,350333	0,5	1,370950
9,358667	0,5	1,541200
9,367000	0,5	1,740000
9,375333	0,5	1,927400
9,383667	0,5	2,063300
9,392000	0,5	2,121250
9,400333	0,5	2,090700
9,408667	0,5	1,984500
9,417000	0,5	1,829150
9,425333	0,5	1,664300
9,433667	0,5	1,494900
9,442000	0,5	1,351200
9,450333	0,5	1,238450
9,458667	0,5	1,152350
9,467000	0,5	1,095550
9,475333	0,5	1,058100
9,483667	0,5	1,036550
9,492000	0,5	1,028750
9,500333	0,5	1,037100
9,508667	0,5	1,051500
9,517000	0,5	1,064850
9,525333	0,5	1,086800
9,533667	0,5	1,104350
9,542000	0,5	1,129850
9,550333	0,5	1,159350
9,558667	0,5	1,216100
9,567000	0,5	1,299600
9,575333	0,5	1,402250
9,583667	0,5	1,519150
9,592000	0,5	1,613250
9,600333	0,5	1,666600
9,608667	0,5	1,659500
9,617000	0,5	1,595100
9,625333	0,5	1,488250
9,633667	0,5	1,366850
9,642000	0,5	1,254850
9,650333	0,5	1,168300
9,658667	0,5	1,113400
9,667000	0,5	1,088150
9,675333	0,5	1,088150
9,683667	0,5	1,096000
9,692000	0,5	1,107250
9,700333	0,5	1,115250
9,708667	0,5	1,120950
9,717000	0,5	1,139500
9,725333	0,5	1,194500
9,733667	0,5	1,294800
9,742000	0,5	1,448100
9,750333	0,5	1,636150
9,758667	0,5	1,833650
9,767000	0,5	1,988500
9,775333	0,5	2,067050
9,783667	0,5	2,053500
9,792000	0,5	1,963800
9,800333	0,5	1,826600
9,808667	0,5	1,669800
9,817000	0,5	1,520200
9,825333	0,5	1,385100
9,833667	0,5	1,278400
9,842000	0,5	1,194950
9,850333	0,5	1,137800
9,858667	0,5	1,097900
9,867000	0,5	1,083000
9,875333	0,5	1,078350
9,883667	0,5	1,091200
9,892000	0,5	1,100350
9,900333	0,5	1,114900
9,908667	0,5	1,133500
9,917000	0,5	1,156600
9,925333	0,5	1,184300
9,933667	0,5	1,229150
9,942000	0,5	1,286800
9,950333	0,5	1,352250
9,958667	0,5	1,400750
9,967000	0,5	1,425100
9,975333	0,5	1,409400
9,983667	0,5	1,376400
9,992000	0,5	1,315050
10,000333	0,5	1,245450
10,008667	0,5	1,181200
10,017000	0,5	1,141450
10,025333	0,5	1,134400
10,033667	0,5	1,172400
10,042000	0,5	1,267800
10,050333	0,5	1,414350
10,058667	0,5	1,602400
10,067000	0,5	1,796300
10,075333	0,5	1,938200
10,083667	0,5	2,004600
10,092000	0,5	1,989100
10,100333	0,5	1,897800
10,108667	0,5	1,758950
10,117000	0,5	1,604600
10,125333	0,5	1,455250
10,133667	0,5	1,328500
10,142000	0,5	1,230000
10,150333	0,5	1,158300
10,158667	0,5	1,118400
10,167000	0,5	1,111400
10,175333	0,5	1,125450
10,183667	0,5	1,161900
10,192000	0,5	1,212150
10,200333	0,5	1,278700
10,208667	0,5	1,345050
10,217000	0,5	1,406850
10,225333	0,5	1,448550
10,233667	0,5	1,480600
10,242000	0,5	1,518450
10,250333	0,5	1,589200
10,258667	0,5	1,727300
10,267000	0,5	1,916600
10,275333	0,5	2,108650
10,283667	0,5	2,255650
10,292000	0,5	2,310000
10,300333	0,5	2,266000
10,308667	0,5	2,129950
10,317000	0,5	1,962500
10,325333	0,5	1,813650
10,333667	0,5	1,746950
10,342000	0,5	1,815750
10,350333	0,5	2,130000
10,358667	0,5	2,899150
10,367000	0,5	3,897300
10,375333	0,5	4,343100
10,383667	0,5	4,151350
10,392000	0,5	3,508350
10,400333	0,5	2,604500
10,408667	0,5	1,743450
10,417000	0,5	1,108550
10,425333	0,5	0,717800
10,433667	0,5	0,488550
10,442000	0,5	0,355100
10,450333	0,5	0,263700
10,458667	0,5	0,202050
10,467000	0,5	0,157750
10,475333	0,5	0,125100
10,483667	0,5	0,100600
10,492000	0,5	0,077900
10,500333	0,5	0,062200
10,508667	0,5	0,048050
10,517000	0,5	0,038550
10,525333	0,5	0,022650
10,533667	0,5	0,021950
10,542000	0,5	0,018600
10,550333	0,5	0,018450
10,558667	0,5	0,016250
10,567000	0,5	0,020500
10,575333	0,5	0,024300
10,583667	0,5	0,028450
10,592000	0,5	0,035100
10,600333	0,5	0,042750
10,608667	0,5	0,044050
10,617000	0,5	0,054700
10,625333	0,5	0,055200
10,633667	0,5	0,059750
10,642000	0,5	0,067700
10,650333	0,5	0,071700
10,658667	0,5	0,077250
10,667000	0,5	0,082250
10,675333	0,5	0,080850
10,683667	0,5	0,087200
10,692000	0,5	0,088150
10,700333	0,5	0,079300
10,708667	0,5	0,073050
10,717000	0,5	0,062200
10,725333	0,5	0,058200
10,733667	0,5	0,048200
10,742000	0,5	0,031250
10,750333	0,5	0,017150
10,758667	0,5	0,002200
10,767000	0,5	-0,017050
10,775333	0,5	-0,034350
10,783667	0,5	-0,054150
10,792000	0,5	-0,067500
10,800333	0,5	-0,085450
10,808667	0,5	-0,100100
10,817000	0,5	-0,116550
10,825333	0,5	-0,134750
10,833667	0,5	-0,143250
10,842000	0,5	-0,156250
10,850333	0,5	-0,167650
10,858667	0,5	-0,180000
10,867000	0,5	-0,189800
10,875333	0,5	-0,195600
10,883667	0,5	-0,200500
10,892000	0,5	-0,207450
10,900333	0,5	-0,212700
10,908667	0,5	-0,219750
10,917000	0,5	-0,219550
10,925333	0,5	-0,225950
10,933667	0,5	-0,230200
10,942000	0,5	-0,235000
10,950333	0,5	-0,235100
10,958667	0,5	-0,234950
10,967000	0,5	-0,239100
10,975333	0,5	-0,235800
10,983667	0,5	-0,233600
10,992000	0,5	-0,233600
11,000333	0,5	-0,230450
11,008667	0,5	-0,225500
11,017000	0,5	-0,217300
11,025333	0,5	-0,204350
11,033667	0,5	-0,195950
11,042000	0,5	-0,184950
11,050333	0,5	-0,174950
11,058667	0,5	-0,163350
11,067000	0,5	-0,152300
11,075333	0,5	-0,140150
11,083667	0,5	-0,135450
11,092000	0,5	-0,126300
11,100333	0,5	-0,121700
11,108667	0,5	-0,115850
11,117000	0,5	-0,118150
11,125333	0,5	-0,113650
11,133667	0,5	-0,115350
11,142000	0,5	-0,116250
11,150333	0,5	-0,123700
11,158667	0,5	-0,131100
11,167000	0,5	-0,138200
11,175333	0,5	-0,139450
11,183667	0,5	-0,147400
11,192000	0,5	-0,155150
11,200333	0,5	-0,161900
11,208667	0,5	-0,169700
11,217000	0,5	-0,173000
11,225333	0,5	-0,178200
11,233667	0,5	-0,186150
11,242000	0,5	-0,189800
11,250333	0,5	-0,191600
11,258667	0,5	-0,195900
11,267000	0,5	-0,198400
11,275333	0,5	-0,197600
11,283667	0,5	-0,198250
11,292000	0,5	-0,200150
11,300333	0,5	-0,202250
11,308667	0,5	-0,202850
11,317000	0,5	-0,196550
11,325333	0,5	-0,199050
11,333667	0,5	-0,193800
11,342000	0,5	-0,192350
11,350333	0,5	-0,181950
11,358667	0,5	-0,184650
11,367000	0,5	-0,182000
11,375333	0,5	-0,179900
11,383667	0,5	-0,179200
11,392000	0,5	-0,174950
11,400333	0,5	-0,168200
11,408667	0,5	-0,172350
11,417000	0,5	-0,167850
11,425333	0,5	-0,163250
11,433667	0,5	-0,161650
11,442000	0,5	-0,160600
11,450333	0,5	-0,160150
11,458667	0,5	-0,150900
11,467000	0,5	-0,144450
11,475333	0,5	-0,139800
11,483667	0,5	-0,135750
11,492000	0,5	-0,127550
11,500333	0,5	-0,124700
11,508667	0,5	-0,119050
11,517000	0,5	-0,112700
11,525333	0,5	-0,106050
11,533667	0,5	-0,096200
11,542000	0,5	-0,088300
11,550333	0,5	-0,080750
11,558667	0,5	-0,076250
11,567000	0,5	-0,068050
11,575333	0,5	-0,055550
11,583667	0,5	-0,048950
11,592000	0,5	-0,042050
11,600333	0,5	-0,034550
11,608667	0,5	-0,026750
11,617000	0,5	-0,015500
11,625333	0,5	-0,010650
11,633667	0,5	0,001300
11,642000	0,5	0,007950
11,650333	0,5	0,016300
11,658667	0,5	0,019550
11,667000	0,5	0,026150
11,675333	0,5	0,027350
11,683667	0,5	0,028450
11,692000	0,5	0,025100
11,700333	0,5	0,024700
11,708667	0,5	0,016500
11,717000	0,5	0,016650
11,725333	0,5	0,008800
11,733667	0,5	0,003650
11,742000	0,5	-0,005300
11,750333	0,5	-0,012600
11,758667	0,5	-0,015000
11,767000	0,5	-0,019300
11,775333	0,5	-0,023350
11,783667	0,5	-0,025650
11,792000	0,5	-0,028800
11,800333	0,5	-0,031950
11,808667	0,5	-0,037650
11,817000	0,5	-0,035400
11,825333	0,5	-0,041300
11,833667	0,5	-0,040000
11,842000	0,5	-0,037850
11,850333	0,5	-0,046800
11,858667	0,5	-0,040100
11,867000	0,5	-0,043900
11,875333	0,5	-0,040200
11,883667	0,5	-0,042900
11,892000	0,5	-0,043950
11,900333	0,5	-0,042000
11,908667	0,5	-0,036050
11,917000	0,5	-0,034600
11,925333	0,5	-0,034850
11,933667	0,5	-0,025350
11,942000	0,5	-0,024200
11,950333	0,5	-0,017950
11,958667	0,5	-0,014400
11,967000	0,5	-0,009350
11,975333	0,5	-0,003350
11,983667	0,5	0,002050
11,992000	0,5	0,012400
12,000333	0,5	0,010400
12,008667	0,5	0,024350
12,017000	0,5	0,032750
12,025333	0,5	0,035650
12,033667	0,5	0,044450
12,042000	0,5	0,048450
12,050333	0,5	0,065750
12,058667	0,5	0,077250
12,067000	0,5	0,087950
12,075333	0,5	0,099800
12,083667	0,5	0,111850
12,092000	0,5	0,122700
12,100333	0,5	0,129100
12,108667	0,5	0,137100
12,117000	0,5	0,139100
12,125333	0,5	0,141900
12,133667	0,5	0,143900
12,142000	0,5	0,147750
12,150333	0,5	0,140850
12,158667	0,5	0,143800
12,167000	0,5	0,137800
12,175333	0,5	0,136150
12,183667	0,5	0,130700
12,192000	0,5	0,131450
12,200333	0,5	0,141350
12,208667	0,5	0,148300
12,217000	0,5	0,157900
12,225333	0,5	0,173450
12,233667	0,5	0,189950
12,242000	0,5	0,214650
12,250333	0,5	0,238750
12,258667	0,5	0,266200
12,267000	0,5	0,287350
12,275333	0,5	0,307850
12,283667	0,5	0,326800
12,292000	0,5	0,327900
12,300333	0,5	0,337200
12,308667	0,5	0,337700
12,317000	0,5	0,325200
12,325333	0,5	0,312100
12,333667	0,5	0,297500
12,342000	0,5	0,283300
12,350333	0,5	0,278500
12,358667	0,5	0,267100
12,367000	0,5	0,263000
12,375333	0,5	0,259400
12,383667	0,5	0,254100
12,392000	0,5	0,254950
12,400333	0,5	0,255600
12,408667	0,5	0,258250
12,417000	0,5	0,257050
12,425333	0,5	0,268100
12,433667	0,5	0,275600
12,442000	0,5	0,276750
12,450333	0,5	0,285650
12,458667	0,5	0,294100
12,467000	0,5	0,305050
12,475333	0,5	0,308100
12,483667	0,5	0,308000
12,492000	0,5	0,321200
12,500333	0,5	0,323550
12,508667	0,5	0,333500
12,517000	0,5	0,331350
12,525333	0,5	0,339100
12,533667	0,5	0,345650
12,542000	0,5	0,347350
12,550333	0,5	0,350900
12,558667	0,5	0,356600
12,567000	0,5	0,367300
12,575333	0,5	0,384950
12,583667	0,5	0,402600
12,592000	0,5	0,421650
12,600333	0,5	0,444150
12,608667	0,5	0,458150
12,617000	0,5	0,463650
12,625333	0,5	0,462200
12,633667	0,5	0,456100
12,642000	0,5	0,447750
12,650333	0,5	0,441150
12,658667	0,5	0,424650
12,667000	0,5	0,409050
12,675333	0,5	0,398300
12,683667	0,5	0,390100
12,692000	0,5	0,383800
12,700333	0,5	0,376900
12,708667	0,5	0,373650
12,717000	0,5	0,368450
12,725333	0,5	0,369700
12,733667	0,5	0,373300
12,742000	0,5	0,378600
12,750333	0,5	0,391050
12,758667	0,5	0,392400
12,767000	0,5	0,397050
12,775333	0,5	0,392600
12,783667	0,5	0,388100
12,792000	0,5	0,391250
12,800333	0,5	0,389650
12,808667	0,5	0,388800
12,817000	0,5	0,382900
12,825333	0,5	0,389250
12,833667	0,5	0,394000
12,842000	0,5	0,398050
12,850333	0,5	0,400750
12,858667	0,5	0,410200
12,867000	0,5	0,414000
12,875333	0,5	0,414750
12,883667	0,5	0,406350
12,892000	0,5	0,414000
12,900333	0,5	0,404400
12,908667	0,5	0,399800
12,917000	0,5	0,390800
12,925333	0,5	0,382850
12,933667	0,5	0,385950
12,942000	0,5	0,384850
12,950333	0,5	0,381800
12,958667	0,5	0,377200
12,967000	0,5	0,374900
12,975333	0,5	0,372850
12,983667	0,5	0,375300
12,992000	0,5	0,374600
13,000333	0,5	0,377500
13,008667	0,5	0,377150
13,017000	0,5	0,384450
13,025333	0,5	0,386100
13,033667	0,5	0,383500
13,042000	0,5	0,397300
13,050333	0,5	0,401750
13,058667	0,5	0,406350
13,067000	0,5	0,409900
13,075333	0,5	0,404550
13,083667	0,5	0,414550
13,092000	0,5	0,412050
13,100333	0,5	0,410150
13,108667	0,5	0,401950
13,117000	0,5	0,397450
13,125333	0,5	0,392900
13,133667	0,5	0,384750
13,142000	0,5	0,380150
13,150333	0,5	0,371700
13,158667	0,5	0,370200
13,167000	0,5	0,372650
13,175333	0,5	0,370250
13,183667	0,5	0,367350
13,192000	0,5	0,374400
13,200333	0,5	0,371450
13,208667	0,5	0,371350
13,217000	0,5	0,369250
13,225333	0,5	0,374500
13,233667	0,5	0,382850
13,242000	0,5	0,392250
13,250333	0,5	0,392250
13,258667	0,5	0,397650
13,267000	0,5	0,398800
13,275333	0,5	0,403000
13,283667	0,5	0,408900
13,292000	0,5	0,411150
13,300333	0,5	0,414350
13,308667	0,5	0,414250
13,317000	0,5	0,420150
13,325333	0,5	0,415700
13,333667	0,5	0,416900
13,342000	0,5	0,413850
13,350333	0,5	0,412800
13,358667	0,5	0,404650
13,367000	0,5	0,405100
13,375333	0,5	0,409500
13,383667	0,5	0,424900
13,392000	0,5	0,428900
13,400333	0,5	0,442300
13,408667	0,5	0,445350
13,417000	0,5	0,447600
13,425333	0,5	0,449050
13,433667	0,5	0,444300
13,442000	0,5	0,440650
13,450333	0,5	0,437800
13,458667	0,5	0,434000
13,467000	0,5	0,426000
13,475333	0,5	0,417500
13,483667	0,5	0,417800
13,492000	0,5	0,419350
13,500333	0,5	0,418650
13,508667	0,5	0,421400
13,517000	0,5	0,436050
13,525333	0,5	0,462700
13,533667	0,5	0,482550
13,542000	0,5	0,504500
13,550333	0,5	0,518200
13,558667	0,5	0,530050
13,567000	0,5	0,529350
13,575333	0,5	0,526400
13,583667	0,5	0,513250
13,592000	0,5	0,500400
13,600333	0,5	0,486300
13,608667	0,5	0,469000
13,617000	0,5	0,447400
13,625333	0,5	0,448300
13,633667	0,5	0,452300
13,642000	0,5	0,458200
13,650333	0,5	0,463450
13,658667	0,5	0,463900
13,667000	0,5	0,468200
13,675333	0,5	0,464800
13,683667	0,5	0,461900
13,692000	0,5	0,456150
13,700333	0,5	0,458600
13,708667	0,5	0,462200
13,717000	0,5	0,488450
13,725333	0,5	0,521300
13,733667	0,5	0,564300
13,742000	0,5	0,601700
13,750333	0,5	0,632800
13,758667	0,5	0,655200
13,767000	0,5	0,642550
13,775333	0,5	0,630650
13,783667	0,5	0,595400
13,792000	0,5	0,555000
13,800333	0,5	0,513700
13,808667	0,5	0,477600
13,817000	0,5	0,460750
13,825333	0,5	0,459950
13,833667	0,5	0,461300
13,842000	0,5	0,479150
13,850333	0,5	0,494050
13,858667	0,5	0,512750
13,867000	0,5	0,523800
13,875333	0,5	0,537050
13,883667	0,5	0,542950
13,892000	0,5	0,566500
13,900333	0,5	0,602700
13,908667	0,5	0,659000
13,917000	0,5	0,708350
13,925333	0,5	0,766800
13,933667	0,5	0,795100
13,942000	0,5	0,792950
13,950333	0,5	0,752550
13,958667	0,5	0,694050
13,967000	0,5	0,639250
13,975333	0,5	0,582100
13,983667	0,5	0,531450
13,992000	0,5	0,499400
14,000333	0,5	0,476200
14,008667	0,5	0,473950
14,017000	0,5	0,484050
14,025333	0,5	0,502250
14,033667	0,5	0,525100
14,042000	0,5	0,548850
14,050333	0,5	0,587500
14,058667	0,5	0,626650
14,067000	0,5	0,674800
14,075333	0,5	0,728800
14,083667	0,5	0,758350
14,092000	0,5	0,762350
14,100333	0,5	0,727650
14,108667	0,5	0,677800
14,117000	0,5	0,620400
14,125333	0,5	0,563300
14,133667	0,5	0,516650
14,142000	0,5	0,473100
14,150333	0,5	0,456850
14,158667	0,5	0,448100
14,167000	0,5	0,453900
14,175333	0,5	0,473800
14,183667	0,5	0,498450
14,192000	0,5	0,537300
14,200333	0,5	0,569250
14,208667	0,5	0,596250
14,217000	0,5	0,632350
14,225333	0,5	0,643850
14,233667	0,5	0,632350
14,242000	0,5	0,604300
14,250333	0,5	0,557800
14,258667	0,5	0,514800
14,267000	0,5	0,472500
14,275333	0,5	0,446100
14,283667	0,5	0,418700
14,292000	0,5	0,406450
14,300333	0,5	0,398600
14,308667	0,5	0,410550
14,317000	0,5	0,429200
14,325333	0,5	0,454050
14,333667	0,5	0,478650
14,342000	0,5	0,494850
14,350333	0,5	0,515650
14,358667	0,5	0,510300
14,367000	0,5	0,511550
14,375333	0,5	0,492000
14,383667	0,5	0,466450
14,392000	0,5	0,435700
14,400333	0,5	0,404100
14,408667	0,5	0,388750
14,417000	0,5	0,392600
14,425333	0,5	0,388450
14,433667	0,5	0,407000
14,442000	0,5	0,416900
14,450333	0,5	0,434600
14,458667	0,5	0,442450
14,467000	0,5	0,447600
14,475333	0,5	0,445400
14,483667	0,5	0,437400
14,492000	0,5	0,430900
14,500333	0,5	0,410450
14,508667	0,5	0,390900
14,517000	0,5	0,382200
14,525333	0,5	0,361850
14,533667	0,5	0,349700
14,542000	0,5	0,334950
14,550333	0,5	0,324050
14,558667	0,5	0,335900
14,567000	0,5	0,335100
14,575333	0,5	0,341050
14,583667	0,5	0,343100
14,592000	0,5	0,345700
14,600333	0,5	0,341000
14,608667	0,5	0,343950
14,617000	0,5	0,343100
14,625333	0,5	0,343850
14,633667	0,5	0,351100
14,642000	0,5	0,353750
14,650333	0,5	0,344350
14,658667	0,5	0,346350
14,667000	0,5	0,346450
14,675333	0,5	0,335750
14,683667	0,5	0,328550
14,692000	0,5	0,310500
14,700333	0,5	0,310900
14,708667	0,5	0,305900
14,717000	0,5	0,308800
14,725333	0,5	0,307700
14,733667	0,5	0,308350
14,742000	0,5	0,309800
14,750333	0,5	0,314600
14,758667	0,5	0,315100
14,767000	0,5	0,317600
14,775333	0,5	0,321350
14,783667	0,5	0,319350
14,792000	0,5	0,314900
14,800333	0,5	0,295650
14,808667	0,5	0,299800
14,817000	0,5	0,296050
14,825333	0,5	0,286100
14,833667	0,5	0,278300
14,842000	0,5	0,268950
14,850333	0,5	0,276550
14,858667	0,5	0,282750
14,867000	0,5	0,286600
14,875333	0,5	0,294350
14,883667	0,5	0,299550
14,892000	0,5	0,304950
14,900333	0,5	0,302500
14,908667	0,5	0,306600
14,917000	0,5	0,295250
14,925333	0,5	0,293050
14,933667	0,5	0,286050
14,942000	0,5	0,282450
14,950333	0,5	0,273350
14,958667	0,5	0,278100
14,967000	0,5	0,277150
14,975333	0,5	0,270650
14,983667	0,5	0,270850
14,992000	0,5	0,262000
15,000333	0,5	0,274200
15,008667	0,5	0,277700
15,017000	0,5	0,275300
15,025333	0,5	0,272400
15,033667	0,5	0,272650
15,042000	0,5	0,268050
15,050333	0,5	0,268200
15,058667	0,5	0,270250
15,067000	0,5	0,274550
15,075333	0,5	0,279150
15,083667	0,5	0,282500
15,092000	0,5	0,273300
15,100333	0,5	0,280100
15,108667	0,5	0,285000
15,117000	0,5	0,284550
15,125333	0,5	0,278750
15,133667	0,5	0,269500
15,142000	0,5	0,264550
15,150333	0,5	0,265800
15,158667	0,5	0,265700
15,167000	0,5	0,263400
15,175333	0,5	0,260650
15,183667	0,5	0,263450
15,192000	0,5	0,263500
15,200333	0,5	0,261600
15,208667	0,5	0,268250
15,217000	0,5	0,266500
15,225333	0,5	0,276700
15,233667	0,5	0,268700
15,242000	0,5	0,266950
15,250333	0,5	0,270200
15,258667	0,5	0,270050
15,267000	0,5	0,260650
15,275333	0,5	0,255700
15,283667	0,5	0,250000
15,292000	0,5	0,249650
15,300333	0,5	0,254450
15,308667	0,5	0,264850
15,317000	0,5	0,262500
15,325333	0,5	0,265250
15,333667	0,5	0,267050
15,342000	0,5	0,267150
15,350333	0,5	0,267750
15,358667	0,5	0,269000
15,367000	0,5	0,270800
15,375333	0,5	0,273000
15,383667	0,5	0,268700
15,392000	0,5	0,275300
15,400333	0,5	0,285200
15,408667	0,5	0,290050
15,417000	0,5	0,288600
15,425333	0,5	0,277500
15,433667	0,5	0,281350
15,442000	0,5	0,286650
15,450333	0,5	0,295300
15,458667	0,5	0,297050
15,467000	0,5	0,305600
15,475333	0,5	0,307800
15,483667	0,5	0,310800
15,492000	0,5	0,307050
15,500333	0,5	0,308800
15,508667	0,5	0,312700
15,517000	0,5	0,312050
15,525333	0,5	0,315650
15,533667	0,5	0,306850
15,542000	0,5	0,318000
15,550333	0,5	0,315950
15,558667	0,5	0,314900
15,567000	0,5	0,307350
15,575333	0,5	0,300400
15,583667	0,5	0,305650
15,592000	0,5	0,312250
15,600333	0,5	0,315450
15,608667	0,5	0,319300
15,617000	0,5	0,323100
15,625333	0,5	0,328450
15,633667	0,5	0,333850
15,642000	0,5	0,337750
15,650333	0,5	0,337100
15,658667	0,5	0,342350
15,667000	0,5	0,350850
15,675333	0,5	0,363450
15,683667	0,5	0,362550
15,692000	0,5	0,389250
15,700333	0,5	0,394650
15,708667	0,5	0,399550
15,717000	0,5	0,388450
15,725333	0,5	0,369500
15,733667	0,5	0,362550
15,742000	0,5	0,349250
15,750333	0,5	0,344050
15,758667	0,5	0,330700
15,767000	0,5	0,328350
15,775333	0,5	0,323750
15,783667	0,5	0,322900
15,792000	0,5	0,322800
15,800333	0,5	0,327350
15,808667	0,5	0,323350
15,817000	0,5	0,326300
15,825333	0,5	0,316900
15,833667	0,5	0,318250
15,842000	0,5	0,323850
15,850333	0,5	0,317950
15,858667	0,5	0,316150
15,867000	0,5	0,300250
15,875333	0,5	0,303600
15,883667	0,5	0,295850
15,892000	0,5	0,304150
15,900333	0,5	0,304700
15,908667	0,5	0,314600
15,917000	0,5	0,308950
15,925333	0,5	0,313900
15,933667	0,5	0,312600
15,942000	0,5	0,312750
15,950333	0,5	0,307900
15,958667	0,5	0,313800
15,967000	0,5	0,313850
15,975333	0,5	0,307050
15,983667	0,5	0,315250
15,992000	0,5	0,323450
16,000333	0,5	0,323850
16,008667	0,5	0,326800
16,017000	0,5	0,323750
16,025333	0,5	0,332250
16,033667	0,5	0,335100
16,042000	0,5	0,338200
16,050333	0,5	0,339700
16,058667	0,5	0,340750
16,067000	0,5	0,344400
16,075333	0,5	0,344800
16,083667	0,5	0,344500
16,092000	0,5	0,342950
16,100333	0,5	0,344550
16,108667	0,5	0,345150
16,117000	0,5	0,352150
16,125333	0,5	0,340000
16,133667	0,5	0,349000
16,142000	0,5	0,347400
16,150333	0,5	0,346850
16,158667	0,5	0,342700
16,167000	0,5	0,329850
16,175333	0,5	0,344400
16,183667	0,5	0,342000
16,192000	0,5	0,346050
16,200333	0,5	0,348900
16,208667	0,5	0,350450
16,217000	0,5	0,353850
16,225333	0,5	0,358800
16,233667	0,5	0,356550
16,242000	0,5	0,366900
16,250333	0,5	0,367600
16,258667	0,5	0,378550
16,267000	0,5	0,380750
16,275333	0,5	0,391750
16,283667	0,5	0,401100
16,292000	0,5	0,404600
16,300333	0,5	0,405400
16,308667	0,5	0,400300
16,317000	0,5	0,392000
16,325333	0,5	0,398550
16,333667	0,5	0,404800
16,342000	0,5	0,413300
16,350333	0,5	0,417750
16,358667	0,5	0,428600
16,367000	0,5	0,439150
16,375333	0,5	0,447400
16,383667	0,5	0,450350
16,392000	0,5	0,447900
16,400333	0,5	0,453400
16,408667	0,5	0,452350
16,417000	0,5	0,435850
16,425333	0,5	0,440650
16,433667	0,5	0,443750
16,442000	0,5	0,438800
16,450333	0,5	0,433300
16,458667	0,5	0,421450
16,467000	0,5	0,429550
16,475333	0,5	0,426400
16,483667	0,5	0,427950
16,492000	0,5	0,429750
16,500333	0,5	0,435950
16,508667	0,5	0,435000
16,517000	0,5	0,439450
16,525333	0,5	0,442350
16,533667	0,5	0,435850
16,542000	0,5	0,443000
16,550333	0,5	0,449300
16,558667	0,5	0,447500
16,567000	0,5	0,442800
16,575333	0,5	0,446750
16,583667	0,5	0,446500
16,592000	0,5	0,441100
16,600333	0,5	0,433750
16,608667	0,5	0,430000
16,617000	0,5	0,433400
16,625333	0,5	0,441700
16,633667	0,5	0,433450
16,642000	0,5	0,443950
16,650333	0,5	0,439250
16,658667	0,5	0,441200
16,667000	0,5	0,442800
16,675333	0,5	0,441400
16,683667	0,5	0,441100
16,692000	0,5	0,441900
16,700333	0,5	0,450900
16,708667	0,5	0,446500
16,717000	0,5	0,445800
16,725333	0,5	0,448150
16,733667	0,5	0,452150
16,742000	0,5	0,446650
16,750333	0,5	0,444500
16,758667	0,5	0,443600
16,767000	0,5	0,456500
16,775333	0,5	0,452200
16,783667	0,5	0,457850
16,792000	0,5	0,461350
16,800333	0,5	0,468250
16,808667	0,5	0,467850
16,817000	0,5	0,467700
16,825333	0,5	0,464050
16,833667	0,5	0,463300
16,842000	0,5	0,469850
16,850333	0,5	0,470350
16,858667	0,5	0,459700
16,867000	0,5	0,463950
16,875333	0,5	0,461550
16,883667	0,5	0,463750
16,892000	0,5	0,453800
16,900333	0,5	0,439250
16,908667	0,5	0,439950
16,917000	0,5	0,437850
16,925333	0,5	0,438850
16,933667	0,5	0,432700
16,942000	0,5	0,437550
16,950333	0,5	0,430450
16,958667	0,5	0,434550
16,967000	0,5	0,431650
16,975333	0,5	0,425500
16,983667	0,5	0,430100
16,992000	0,5	0,438550
17,000333	0,5	0,429700
17,008667	0,5	0,428100
17,017000	0,5	0,426750
17,025333	0,5	0,425350
17,033667	0,5	0,419450
17,042000	0,5	0,404050
17,050333	0,5	0,403500
17,058667	0,5	0,396050
17,067000	0,5	0,401050
17,075333	0,5	0,392550
17,083667	0,5	0,400350
17,092000	0,5	0,400250
17,100333	0,5	0,405050
17,108667	0,5	0,402650
17,117000	0,5	0,404700
17,125333	0,5	0,403550
17,133667	0,5	0,406400
17,142000	0,5	0,409800
17,150333	0,5	0,395900
17,158667	0,5	0,398700
17,167000	0,5	0,401500
17,175333	0,5	0,394900
17,183667	0,5	0,395200
17,192000	0,5	0,381900
17,200333	0,5	0,385150
17,208667	0,5	0,390000
17,217000	0,5	0,387050
17,225333	0,5	0,382900
17,233667	0,5	0,382750
17,242000	0,5	0,384800
17,250333	0,5	0,383750
17,258667	0,5	0,382850
17,267000	0,5	0,377400
17,275333	0,5	0,375850
17,283667	0,5	0,378800
17,292000	0,5	0,388250
17,300333	0,5	0,363900
17,308667	0,5	0,378550
17,317000	0,5	0,376550
17,325333	0,5	0,376900
17,333667	0,5	0,367000
17,342000	0,5	0,349550
17,350333	0,5	0,359800
17,358667	0,5	0,359350
17,367000	0,5	0,354500
17,375333	0,5	0,349450
17,383667	0,5	0,349800
17,392000	0,5	0,347650
17,400333	0,5	0,349600
17,408667	0,5	0,346850
17,417000	0,5	0,345850
17,425333	0,5	0,343900
17,433667	0,5	0,352800
17,442000	0,5	0,348550
17,450333	0,5	0,343600
17,458667	0,5	0,348800
17,467000	0,5	0,341600
17,475333	0,5	0,338850
17,483667	0,5	0,331450
17,492000	0,5	0,322650
17,500333	0,5	0,325150
17,508667	0,5	0,329300
17,517000	0,5	0,333600
17,525333	0,5	0,334450
17,533667	0,5	0,337650
17,542000	0,5	0,338500
17,550333	0,5	0,339900
17,558667	0,5	0,345950
17,567000	0,5	0,340500
17,575333	0,5	0,353350
17,583667	0,5	0,354550
17,592000	0,5	0,344100
17,600333	0,5	0,348600
17,608667	0,5	0,358300
17,617000	0,5	0,354700
17,625333	0,5	0,350400
17,633667	0,5	0,334700
17,642000	0,5	0,339300
17,650333	0,5	0,337850
17,658667	0,5	0,343500
17,667000	0,5	0,337500
17,675333	0,5	0,343900
17,683667	0,5	0,343950
17,692000	0,5	0,338750
17,700333	0,5	0,341100
17,708667	0,5	0,339200
17,717000	0,5	0,337300
17,725333	0,5	0,339500
17,733667	0,5	0,342650
17,742000	0,5	0,327600
17,750333	0,5	0,338200
17,758667	0,5	0,337900
17,767000	0,5	0,330750
17,775333	0,5	0,323650
17,783667	0,5	0,313550
17,792000	0,5	0,318700
17,800333	0,5	0,327250
17,808667	0,5	0,318000
17,817000	0,5	0,318650
17,825333	0,5	0,314850
17,833667	0,5	0,315450
17,842000	0,5	0,318300
17,850333	0,5	0,315500
17,858667	0,5	0,313200
17,867000	0,5	0,309900
17,875333	0,5	0,317400
17,883667	0,5	0,312900
17,892000	0,5	0,304250
17,900333	0,5	0,310200
17,908667	0,5	0,305900
17,917000	0,5	0,299750
17,925333	0,5	0,293750
17,933667	0,5	0,283750
17,942000	0,5	0,290250
17,950333	0,5	0,287950
17,958667	0,5	0,291600
17,967000	0,5	0,285900
17,975333	0,5	0,291000
17,983667	0,5	0,288700
17,992000	0,5	0,290800
18,000333	0,5	0,293100
18,008667	0,5	0,290300
18,017000	0,5	0,296700
18,025333	0,5	0,296150
18,033667	0,5	0,291800
18,042000	0,5	0,295150
18,050333	0,5	0,295250
18,058667	0,5	0,291250
18,067000	0,5	0,285650
18,075333	0,5	0,273050
18,083667	0,5	0,283250
18,092000	0,5	0,283400
18,100333	0,5	0,290350
18,108667	0,5	0,287400
18,117000	0,5	0,290700
18,125333	0,5	0,291150
18,133667	0,5	0,294900
18,142000	0,5	0,294950
18,150333	0,5	0,298950
18,158667	0,5	0,298550
18,167000	0,5	0,306300
18,175333	0,5	0,308900
18,183667	0,5	0,304150
18,192000	0,5	0,312500
18,200333	0,5	0,313650
18,208667	0,5	0,313900
18,217000	0,5	0,305250
18,225333	0,5	0,298950
18,233667	0,5	0,299250
18,242000	0,5	0,310850
18,250333	0,5	0,313400
18,258667	0,5	0,316800
18,267000	0,5	0,318750
18,275333	0,5	0,328100
18,283667	0,5	0,335200
18,292000	0,5	0,343450
18,300333	0,5	0,343400
18,308667	0,5	0,351700
18,317000	0,5	0,360950
18,325333	0,5	0,358450
18,333667	0,5	0,357100
18,342000	0,5	0,363650
18,350333	0,5	0,362700
18,358667	0,5	0,362050
18,367000	0,5	0,347600
18,375333	0,5	0,351050
18,383667	0,5	0,360300
18,392000	0,5	0,359050
18,400333	0,5	0,364800
18,408667	0,5	0,361600
18,417000	0,5	0,367800
18,425333	0,5	0,362850
18,433667	0,5	0,373650
18,442000	0,5	0,372700
18,450333	0,5	0,377900
18,458667	0,5	0,383350
18,467000	0,5	0,387700
18,475333	0,5	0,373700
18,483667	0,5	0,384000
18,492000	0,5	0,387000
18,500333	0,5	0,386350
18,508667	0,5	0,382750
18,517000	0,5	0,368650
18,525333	0,5	0,381000
18,533667	0,5	0,385800
18,542000	0,5	0,382950
18,550333	0,5	0,381550
18,558667	0,5	0,383650
18,567000	0,5	0,385700
18,575333	0,5	0,396700
18,583667	0,5	0,391850
18,592000	0,5	0,398900
18,600333	0,5	0,395700
18,608667	0,5	0,406600
18,617000	0,5	0,410100
18,625333	0,5	0,399150
18,633667	0,5	0,412300
18,642000	0,5	0,412650
18,650333	0,5	0,407650
18,658667	0,5	0,399600
18,667000	0,5	0,393400
18,675333	0,5	0,401700
18,683667	0,5	0,408150
18,692000	0,5	0,410350
18,700333	0,5	0,411950
18,708667	0,5	0,412500
18,717000	0,5	0,415400
18,725333	0,5	0,413500
18,733667	0,5	0,421200
18,742000	0,5	0,415950
18,750333	0,5	0,418050
18,758667	0,5	0,419300
18,767000	0,5	0,421050
18,775333	0,5	0,419050
18,783667	0,5	0,428550
18,792000	0,5	0,419600
18,800333	0,5	0,417600
18,808667	0,5	0,405500
18,817000	0,5	0,401050
18,825333	0,5	0,408900
18,833667	0,5	0,412250
18,842000	0,5	0,415950
18,850333	0,5	0,416550
18,858667	0,5	0,416050
18,867000	0,5	0,414700
18,875333	0,5	0,423350
18,883667	0,5	0,420050
18,892000	0,5	0,428100
18,900333	0,5	0,431900
18,908667	0,5	0,430450
18,917000	0,5	0,424600
18,925333	0,5	0,424700
18,933667	0,5	0,431600
18,942000	0,5	0,433900
18,950333	0,5	0,418150
18,958667	0,5	0,412000
18,967000	0,5	0,416600
18,975333	0,5	0,422050
18,983667	0,5	0,424500
18,992000	0,5	0,426400
19,000333	0,5	0,426750
19,008667	0,5	0,425700
19,017000	0,5	0,430150
19,025333	0,5	0,428850
19,033667	0,5	0,427800
19,042000	0,5	0,432150
19,050333	0,5	0,443650
19,058667	0,5	0,438200
19,067000	0,5	0,434150
19,075333	0,5	0,437250
19,083667	0,5	0,444500
19,092000	0,5	0,435700
19,100333	0,5	0,430750
19,108667	0,5	0,422850
19,117000	0,5	0,430700
19,125333	0,5	0,432100
19,133667	0,5	0,435300
19,142000	0,5	0,433900
19,150333	0,5	0,433650
19,158667	0,5	0,433650
19,167000	0,5	0,439850
19,175333	0,5	0,446250
19,183667	0,5	0,442000
19,192000	0,5	0,454600
19,200333	0,5	0,459950
19,208667	0,5	0,449800
19,217000	0,5	0,454600
19,225333	0,5	0,455950
19,233667	0,5	0,455450
19,242000	0,5	0,451750
19,250333	0,5	0,433100
19,258667	0,5	0,436400
19,267000	0,5	0,440200
19,275333	0,5	0,448850
19,283667	0,5	0,443600
19,292000	0,5	0,454050
19,300333	0,5	0,453850
19,308667	0,5	0,457950
19,317000	0,5	0,458450
19,325333	0,5	0,461450
19,333667	0,5	0,465850
19,342000	0,5	0,469350
19,350333	0,5	0,466950
19,358667	0,5	0,462150
19,367000	0,5	0,473000
19,375333	0,5	0,472900
19,383667	0,5	0,473700
19,392000	0,5	0,462300
19,400333	0,5	0,458000
19,408667	0,5	0,452550
19,417000	0,5	0,464450
19,425333	0,5	0,464800
19,433667	0,5	0,471150
19,442000	0,5	0,465150
19,450333	0,5	0,466150
19,458667	0,5	0,473050
19,467000	0,5	0,478400
19,475333	0,5	0,479700
19,483667	0,5	0,483850
19,492000	0,5	0,494550
19,500333	0,5	0,494250
19,508667	0,5	0,492350
19,517000	0,5	0,499300
19,525333	0,5	0,500550
19,533667	0,5	0,493150
19,542000	0,5	0,484800
19,550333	0,5	0,479950
19,558667	0,5	0,493550
19,567000	0,5	0,489050
19,575333	0,5	0,497100
19,583667	0,5	0,496750
19,592000	0,5	0,503000
19,600333	0,5	0,501300
19,608667	0,5	0,505250
19,617000	0,5	0,508950
19,625333	0,5	0,510050
19,633667	0,5	0,518600
19,642000	0,5	0,522850
19,650333	0,5	0,505750
19,658667	0,5	0,521450
19,667000	0,5	0,522350
19,675333	0,5	0,523850
19,683667	0,5	0,522700
19,692000	0,5	0,506450
19,700333	0,5	0,517150
19,708667	0,5	0,516600
19,717000	0,5	0,528800
19,725333	0,5	0,525250
19,733667	0,5	0,533900
19,742000	0,5	0,530500
19,750333	0,5	0,534350
19,758667	0,5	0,536250
19,767000	0,5	0,539150
19,775333	0,5	0,543400
19,783667	0,5	0,555750
19,792000	0,5	0,560350
19,800333	0,5	0,556800
19,808667	0,5	0,565900
19,817000	0,5	0,567550
19,825333	0,5	0,566900
19,833667	0,5	0,561050
19,842000	0,5	0,550150
19,850333	0,5	0,560150
19,858667	0,5	0,574450
19,867000	0,5	0,569550
19,875333	0,5	0,574500
19,883667	0,5	0,570600
19,892000	0,5	0,577150
19,900333	0,5	0,576900
19,908667	0,5	0,583400
19,917000	0,5	0,583500
19,925333	0,5	0,589550
19,933667	0,5	0,596800
19,942000	0,5	0,595850
19,950333	0,5	0,589650
19,958667	0,5	0,601850
19,967000	0,5	0,599550
19,975333	0,5	0,596900
19,983667	0,5	0,590400
19,992000	0,5	0,582100
20,000333	0,5	0,593600
20,008667	0,5	0,592950
20,017000	0,5	0,602100
20,025333	0,5	0,602450
20,033667	0,5	0,613900
20,042000	0,5	0,609550
20,050333	0,5	0,616350
20,058667	0,5	0,624300
20,067000	0,5	0,627300
20,075333	0,5	0,643850
20,083667	0,5	0,650350
20,092000	0,5	0,638800
20,100333	0,5	0,645500
20,108667	0,5	0,643700
20,117000	0,5	0,637000
20,125333	0,5	0,626500
20,133667	0,5	0,618100
20,142000	0,5	0,620650
20,150333	0,5	0,621850
20,158667	0,5	0,628850
20,167000	0,5	0,631900
20,175333	0,5	0,637450
20,183667	0,5	0,636650
20,192000	0,5	0,643200
20,200333	0,5	0,643350
20,208667	0,5	0,652000
20,217000	0,5	0,655200
20,225333	0,5	0,675750
20,233667	0,5	0,666900
20,242000	0,5	0,667700
20,250333	0,5	0,673450
20,258667	0,5	0,683950
20,267000	0,5	0,678800
20,275333	0,5	0,673450
20,283667	0,5	0,677400
20,292000	0,5	0,681550
20,300333	0,5	0,687450
20,308667	0,5	0,686100
20,317000	0,5	0,695200
20,325333	0,5	0,694600
20,333667	0,5	0,705800
20,342000	0,5	0,704850
20,350333	0,5	0,710300
20,358667	0,5	0,710350
20,367000	0,5	0,726150
20,375333	0,5	0,735350
20,383667	0,5	0,728650
20,392000	0,5	0,734150
20,400333	0,5	0,739150
20,408667	0,5	0,740650
20,417000	0,5	0,740200
20,425333	0,5	0,728550
20,433667	0,5	0,737500
20,442000	0,5	0,740650
20,450333	0,5	0,743400
20,458667	0,5	0,748300
20,467000	0,5	0,753850
20,475333	0,5	0,758150
20,483667	0,5	0,756000
20,492000	0,5	0,766200
20,500333	0,5	0,770400
20,508667	0,5	0,777650
20,517000	0,5	0,792350
20,525333	0,5	0,800550
20,533667	0,5	0,793150
20,542000	0,5	0,799400
20,550333	0,5	0,801300
20,558667	0,5	0,803700
20,567000	0,5	0,795600
20,575333	0,5	0,789600
20,583667	0,5	0,806650
20,592000	0,5	0,807200
20,600333	0,5	0,812900
20,608667	0,5	0,818700
20,617000	0,5	0,829250
20,625333	0,5	0,833100
20,633667	0,5	0,841650
20,642000	0,5	0,844350
20,650333	0,5	0,857100
20,658667	0,5	0,870650
20,667000	0,5	0,888600
20,675333	0,5	0,896300
20,683667	0,5	0,894950
20,692000	0,5	0,903450
20,700333	0,5	0,904450
20,708667	0,5	0,904850
20,717000	0,5	0,901250
20,725333	0,5	0,909700
20,733667	0,5	0,912400
20,742000	0,5	0,927600
20,750333	0,5	0,932450
20,758667	0,5	0,944500
20,767000	0,5	0,950350
20,775333	0,5	0,956800
20,783667	0,5	0,965250
20,792000	0,5	0,968850
20,800333	0,5	0,971500
20,808667	0,5	0,994950
20,817000	0,5	1,006850
20,825333	0,5	1,006450
20,833667	0,5	1,012050
20,842000	0,5	1,019550
20,850333	0,5	1,021950
20,858667	0,5	1,023750
20,867000	0,5	1,028650
20,875333	0,5	1,049150
20,883667	0,5	1,075700
20,892000	0,5	1,097050
20,900333	0,5	1,119350
20,908667	0,5	1,134400
20,917000	0,5	1,142450
20,925333	0,5	1,146350
20,933667	0,5	1,152650
20,942000	0,5	1,148900
20,950333	0,5	1,166400
20,958667	0,5	1,183900
20,967000	0,5	1,194900
20,975333	0,5	1,194600
20,983667	0,5	1,201100
20,992000	0,5	1,202400
21,000333	0,5	1,204400
21,008667	0,5	1,196550
21,017000	0,5	1,210600
21,025333	0,5	1,225950
21,033667	0,5	1,231750
21,042000	0,5	1,242450
21,050333	0,5	1,252700
21,058667	0,5	1,266600
21,067000	0,5	1,277750
21,075333	0,5	1,292400
21,083667	0,5	1,301500
21,092000	0,5	1,315750
21,100333	0,5	1,344850
21,108667	0,5	1,368700
21,117000	0,5	1,376750
21,125333	0,5	1,389600
21,133667	0,5	1,396000
21,142000	0,5	1,404750
21,150333	0,5	1,414750
21,158667	0,5	1,424800
21,167000	0,5	1,460050
21,175333	0,5	1,487450
21,183667	0,5	1,516100
21,192000	0,5	1,539750
21,200333	0,5	1,558550
21,208667	0,5	1,565000
21,217000	0,5	1,575900
21,225333	0,5	1,573350
21,233667	0,5	1,568300
21,242000	0,5	1,576550
21,250333	0,5	1,597600
21,258667	0,5	1,609800
21,267000	0,5	1,604850
21,275333	0,5	1,607350
21,283667	0,5	1,601650
21,292000	0,5	1,597200
21,300333	0,5	1,599150
21,308667	0,5	1,603350
21,317000	0,5	1,619400
21,325333	0,5	1,636350
21,333667	0,5	1,639700
21,342000	0,5	1,653050
21,350333	0,5	1,663650
21,358667	0,5	1,676500
21,367000	0,5	1,690250
21,375333	0,5	1,705700
21,383667	0,5	1,713950
21,392000	0,5	1,747700
21,400333	0,5	1,779200
21,408667	0,5	1,791250
21,417000	0,5	1,803350
21,425333	0,5	1,816950
21,433667	0,5	1,817650
21,442000	0,5	1,821700
21,450333	0,5	1,826250
21,458667	0,5	1,839400
21,467000	0,5	1,857700
21,475333	0,5	1,877800
21,483667	0,5	1,900450
21,492000	0,5	1,920900
21,500333	0,5	1,950500
21,508667	0,5	1,974300
21,517000	0,5	2,003900
21,525333	0,5	2,022250
21,533667	0,5	2,046750
21,542000	0,5	2,071150
21,550333	0,5	2,093750
21,558667	0,5	2,097300
21,567000	0,5	2,104350
21,575333	0,5	2,105600
21,583667	0,5	2,110650
21,592000	0,5	2,106750
21,600333	0,5	2,127550
21,608667	0,5	2,147650
21,617000	0,5	2,169550
21,625333	0,5	2,178750
21,633667	0,5	2,193650
21,642000	0,5	2,212350
21,650333	0,5	2,232100
21,658667	0,5	2,254450
21,667000	0,5	2,261550
21,675333	0,5	2,281700
21,683667	0,5	2,311750
21,692000	0,5	2,338250
21,700333	0,5	2,350200
21,708667	0,5	2,366950
21,717000	0,5	2,382050
21,725333	0,5	2,391400
21,733667	0,5	2,411150
21,742000	0,5	2,420600
21,750333	0,5	2,455850
21,758667	0,5	2,486900
21,767000	0,5	2,515100
21,775333	0,5	2,541550
21,783667	0,5	2,570900
21,792000	0,5	2,593800
21,800333	0,5	2,620600
21,808667	0,5	2,638100
21,817000	0,5	2,657500
21,825333	0,5	2,674800
21,833667	0,5	2,712400
21,842000	0,5	2,732250
21,850333	0,5	2,744950
21,858667	0,5	2,759100
21,867000	0,5	2,777450
21,875333	0,5	2,792450
21,883667	0,5	2,804700
21,892000	0,5	2,835550
21,900333	0,5	2,865350
21,908667	0,5	2,901950
21,917000	0,5	2,934650
21,925333	0,5	2,964000
21,933667	0,5	2,997950
21,942000	0,5	3,035000
21,950333	0,5	3,066950
21,958667	0,5	3,101250
21,967000	0,5	3,134900
21,975333	0,5	3,183500
21,983667	0,5	3,221100
21,992000	0,5	3,243750
22,000333	0,5	3,283900
22,008667	0,5	3,314400
22,017000	0,5	3,340950
22,025333	0,5	3,355850
22,033667	0,5	3,364500
22,042000	0,5	3,389800
22,050333	0,5	3,415750
22,058667	0,5	3,440300
22,067000	0,5	3,468400
22,075333	0,5	3,499000
22,083667	0,5	3,532850
22,092000	0,5	3,565750
22,100333	0,5	3,599400
22,108667	0,5	3,632450
22,117000	0,5	3,670200
22,125333	0,5	3,702550
22,133667	0,5	3,730550
22,142000	0,5	3,761850
22,150333	0,5	3,800900
22,158667	0,5	3,828950
22,167000	0,5	3,862800
22,175333	0,5	3,887750
22,183667	0,5	3,919000
22,192000	0,5	3,972450
22,200333	0,5	4,019050
22,208667	0,5	4,064650
22,217000	0,5	4,104500
22,225333	0,5	4,139500
22,233667	0,5	4,178300
22,242000	0,5	4,224200
22,250333	0,5	4,266750
22,258667	0,5	4,309350
22,267000	0,5	4,351300
22,275333	0,5	4,398850
22,283667	0,5	4,434000
22,292000	0,5	4,499750
22,300333	0,5	4,549200
22,308667	0,5	4,597450
22,317000	0,5	4,644200
22,325333	0,5	4,699200
22,333667	0,5	4,781700
22,342000	0,5	4,864400
22,350333	0,5	4,949150
22,358667	0,5	5,033200
22,367000	0,5	5,109700
22,375333	0,5	5,171850
22,383667	0,5	5,231700
22,392000	0,5	5,278000
22,400333	0,5	5,314850
22,408667	0,5	5,351750
22,417000	0,5	5,372600
22,425333	0,5	5,404850
22,433667	0,5	5,480550
22,442000	0,5	5,530300
22,450333	0,5	5,587450
22,458667	0,5	5,640500
22,467000	0,5	5,692300
22,475333	0,5	5,750650
22,483667	0,5	5,821200
22,492000	0,5	5,893200
22,500333	0,5	5,961250
22,508667	0,5	6,036800
22,517000	0,5	6,104350
22,525333	0,5	6,184350
22,533667	0,5	6,259450
22,542000	0,5	6,332800
22,550333	0,5	6,403200
22,558667	0,5	6,453750
22,567000	0,5	6,517450
22,575333	0,5	6,589600
22,583667	0,5	6,664100
22,592000	0,5	6,718200
22,600333	0,5	6,757850
22,608667	0,5	6,791000
22,617000	0,5	6,823700
22,625333	0,5	6,865400
22,633667	0,5	6,901450
22,642000	0,5	6,923600
22,650333	0,5	6,941450
22,658667	0,5	6,959500
22,667000	0,5	6,972200
22,675333	0,5	6,973950
22,683667	0,5	6,975000
22,692000	0,5	6,961050
22,700333	0,5	6,939650
22,708667	0,5	6,859000
22,717000	0,5	6,855000
22,725333	0,5	6,825600
22,733667	0,5	6,796300
22,742000	0,5	6,731450
22,750333	0,5	6,657300
22,758667	0,5	6,572500
22,767000	0,5	6,471150
22,775333	0,5	6,378150
22,783667	0,5	6,268200
22,792000	0,5	6,148450
22,800333	0,5	6,019200
22,808667	0,5	5,882450
22,817000	0,5	5,733050
22,825333	0,5	5,580750
22,833667	0,5	5,424250
22,842000	0,5	5,256150
22,850333	0,5	5,066650
22,858667	0,5	4,874350
22,867000	0,5	4,713150
22,875333	0,5	4,557700
22,883667	0,5	4,367900
22,892000	0,5	4,181650
22,900333	0,5	3,997350
22,908667	0,5	3,812750
22,917000	0,5	3,634550
22,925333	0,5	3,447300
22,933667	0,5	3,263800
22,942000	0,5	3,091800
22,950333	0,5	2,918750
22,958667	0,5	2,751450
22,967000	0,5	2,581650
22,975333	0,5	2,420850
22,983667	0,5	2,255950
22,992000	0,5	2,102850
23,000333	0,5	1,962100
23,008667	0,5	1,806750
23,017000	0,5	1,661300
23,025333	0,5	1,493400
23,033667	0,5	1,349500
23,042000	0,5	1,225050
23,050333	0,5	1,107400
23,058667	0,5	0,978500
23,067000	0,5	0,855900
23,075333	0,5	0,741350
23,083667	0,5	0,635200
23,092000	0,5	0,537550
23,100333	0,5	0,437000
23,108667	0,5	0,338500
23,117000	0,5	0,247150
23,125333	0,5	0,151950
23,133667	0,5	0,071300
23,142000	0,5	0,012200
23,150333	0,5	-0,080300
23,158667	0,5	-0,139000
23,167000	0,5	-0,240350
23,175333	0,5	-0,331400
23,183667	0,5	-0,397050
23,192000	0,5	-0,454700
23,200333	0,5	-0,505900
23,208667	0,5	-0,569900
23,217000	0,5	-0,626500
23,225333	0,5	-0,670400
23,233667	0,5	-0,716800
23,242000	0,5	-0,760550
23,250333	0,5	-0,798950
23,258667	0,5	-0,837050
23,267000	0,5	-0,880900
23,275333	0,5	-0,917000
23,283667	0,5	-0,955600
23,292000	0,5	-0,997950
23,300333	0,5	-1,012250
23,308667	0,5	-1,037100
23,317000	0,5	-1,086100
23,325333	0,5	-1,129250
23,333667	0,5	-1,161000
23,342000	0,5	-1,183100
23,350333	0,5	-1,196200
23,358667	0,5	-1,229550
23,367000	0,5	-1,247600
23,375333	0,5	-1,262700
23,383667	0,5	-1,272200
23,392000	0,5	-1,285800
23,400333	0,5	-1,297700
23,408667	0,5	-1,313650
23,417000	0,5	-1,321150
23,425333	0,5	-1,332950
23,433667	0,5	-1,337400
23,442000	0,5	-1,408000
23,450333	0,5	-1,378200
23,458667	0,5	-1,357050
23,467000	0,5	-1,374800
23,475333	0,5	-1,397350
23,483667	0,5	-1,407150
23,492000	0,5	-1,415250
23,500333	0,5	-1,419350
23,508667	0,5	-1,432550
23,517000	0,5	-1,437950
23,525333	0,5	-1,437700
23,533667	0,5	-1,442300
23,542000	0,5	-1,447350
23,550333	0,5	-1,444100
23,558667	0,5	-1,447500
23,567000	0,5	-1,443850
23,575333	0,5	-1,441000
23,583667	0,5	-1,490450
23,592000	0,5	-1,532550
23,600333	0,5	-1,482750
23,608667	0,5	-1,444800
23,617000	0,5	-1,435650
23,625333	0,5	-1,436900
23,633667	0,5	-1,439200
23,642000	0,5	-1,439700
23,650333	0,5	-1,440850
23,658667	0,5	-1,439200
23,667000	0,5	-1,437650
23,675333	0,5	-1,433750
23,683667	0,5	-1,430250
23,692000	0,5	-1,427550
23,700333	0,5	-1,420700
23,708667	0,5	-1,415250
23,717000	0,5	-1,411350
23,725333	0,5	-1,409400
23,733667	0,5	-1,517350
23,742000	0,5	-1,484100
23,750333	0,5	-1,443000
23,758667	0,5	-1,395350
23,767000	0,5	-1,377600
23,775333	0,5	-1,373550
23,783667	0,5	-1,370450
23,792000	0,5	-1,368500
23,800333	0,5	-1,359500
23,808667	0,5	-1,348100
23,817000	0,5	-1,339600
23,825333	0,5	-1,328150
23,833667	0,5	-1,320200
23,842000	0,5	-1,308450
23,850333	0,5	-1,297900
23,858667	0,5	-1,287100
23,867000	0,5	-1,284450
23,875333	0,5	-1,310000
23,883667	0,5	-1,392200
23,892000	0,5	-1,346750
23,900333	0,5	-1,301800
23,908667	0,5	-1,255800
23,917000	0,5	-1,243050
23,925333	0,5	-1,234200
23,933667	0,5	-1,229250
23,942000	0,5	-1,229850
23,950333	0,5	-1,209800
23,958667	0,5	-1,201750
23,967000	0,5	-1,192450
23,975333	0,5	-1,183700
23,983667	0,5	-1,166000
23,992000	0,5	-1,157200
24,000333	0,5	-1,139600
24,008667	0,5	-1,129600
24,017000	0,5	-1,118400
24,025333	0,5	-1,207350
24,033667	0,5	-1,200250
24,042000	0,5	-1,164500
24,050333	0,5	-1,111850
24,058667	0,5	-1,079700
24,067000	0,5	-1,068000
24,075333	0,5	-1,061200
24,083667	0,5	-1,057800
24,092000	0,5	-1,050400
24,100333	0,5	-1,034450
24,108667	0,5	-1,022500
24,117000	0,5	-1,013950
24,125333	0,5	-1,002350
24,133667	0,5	-0,991450
24,142000	0,5	-0,977000
24,150333	0,5	-0,966650
24,158667	0,5	-0,952100
24,167000	0,5	-0,952700
24,175333	0,5	-1,044750
24,183667	0,5	-1,011200
24,192000	0,5	-0,966300
24,200333	0,5	-0,925000
24,208667	0,5	-0,895900
24,217000	0,5	-0,884550
24,225333	0,5	-0,877650
24,233667	0,5	-0,876750
24,242000	0,5	-0,867550
24,250333	0,5	-0,854250
24,258667	0,5	-0,838850
24,267000	0,5	-0,835850
24,275333	0,5	-0,819100
24,283667	0,5	-0,807700
24,292000	0,5	-0,798000
24,300333	0,5	-0,783750
24,308667	0,5	-0,776400
24,317000	0,5	-0,790900
24,325333	0,5	-0,846500
24,333667	0,5	-0,816550
24,342000	0,5	-0,782150
24,350333	0,5	-0,750500
24,358667	0,5	-0,737800
24,367000	0,5	-0,728200
24,375333	0,5	-0,729250
24,383667	0,5	-0,719700
24,392000	0,5	-0,707100
24,400333	0,5	-0,695400
24,408667	0,5	-0,687850
24,417000	0,5	-0,675100
24,425333	0,5	-0,669850
24,433667	0,5	-0,657800
24,442000	0,5	-0,645800
24,450333	0,5	-0,639200
24,458667	0,5	-0,632600
24,467000	0,5	-0,695850
24,475333	0,5	-0,671000
24,483667	0,5	-0,660200
24,492000	0,5	-0,626650
24,500333	0,5	-0,609700
24,508667	0,5	-0,598000
24,517000	0,5	-0,596300
24,525333	0,5	-0,595200
24,533667	0,5	-0,590400
24,542000	0,5	-0,577850
24,550333	0,5	-0,571150
24,558667	0,5	-0,568650
24,567000	0,5	-0,565150
24,575333	0,5	-0,553850
24,583667	0,5	-0,545950
24,592000	0,5	-0,535200
24,600333	0,5	-0,528650
24,608667	0,5	-0,530450
24,617000	0,5	-0,578150
24,625333	0,5	-0,548250
24,633667	0,5	-0,534200
24,642000	0,5	-0,511900
24,650333	0,5	-0,501100
24,658667	0,5	-0,498450
24,667000	0,5	-0,495500
24,675333	0,5	-0,503550
24,683667	0,5	-0,490550
24,692000	0,5	-0,484300
24,700333	0,5	-0,478500
24,708667	0,5	-0,476400
24,717000	0,5	-0,470700
24,725333	0,5	-0,469950
24,733667	0,5	-0,458800
24,742000	0,5	-0,455500
24,750333	0,5	-0,452950
24,758667	0,5	-0,466200
24,767000	0,5	-0,484950
24,775333	0,5	-0,463900
24,783667	0,5	-0,451650
24,792000	0,5	-0,437150
24,800333	0,5	-0,429400
24,808667	0,5	-0,421750
24,817000	0,5	-0,427000
24,825333	0,5	-0,424350
24,833667	0,5	-0,420100
24,842000	0,5	-0,412300
24,850333	0,5	-0,415600
24,858667	0,5	-0,408400
24,867000	0,5	-0,403950
24,875333	0,5	-0,398000
24,883667	0,5	-0,398350
24,892000	0,5	-0,392750
24,900333	0,5	-0,391200
24,908667	0,5	-0,416000
24,917000	0,5	-0,405250
24,925333	0,5	-0,397250
24,933667	0,5	-0,387100
24,942000	0,5	-0,375700
24,950333	0,5	-0,375250
24,958667	0,5	-0,373100
24,967000	0,5	-0,371700
24,975333	0,5	-0,372300
24,983667	0,5	-0,367600
24,992000	0,5	-0,360650
25,000333	0,5	-0,359850
25,008667	0,5	-0,356900
25,017000	0,5	-0,351800
25,025333	0,5	-0,350750
25,033667	0,5	-0,344500
25,042000	0,5	-0,344850
25,050333	0,5	-0,344700
25,058667	0,5	-0,358000
25,067000	0,5	-0,350450
25,075333	0,5	-0,340800
25,083667	0,5	-0,336050
25,092000	0,5	-0,332100
25,100333	0,5	-0,333250
25,108667	0,5	-0,327450
25,117000	0,5	-0,329400
25,125333	0,5	-0,330650
25,133667	0,5	-0,323950
25,142000	0,5	-0,321100
25,150333	0,5	-0,318900
25,158667	0,5	-0,320050
25,167000	0,5	-0,315550
25,175333	0,5	-0,313350
25,183667	0,5	-0,311100
25,192000	0,5	-0,307150
25,200333	0,5	-0,310750
25,208667	0,5	-0,313200
25,217000	0,5	-0,309050
25,225333	0,5	-0,300650
25,233667	0,5	-0,298200
25,242000	0,5	-0,298150
25,250333	0,5	-0,296350
25,258667	0,5	-0,297400
25,267000	0,5	-0,294850
25,275333	0,5	-0,294900
25,283667	0,5	-0,295700
25,292000	0,5	-0,293600
25,300333	0,5	-0,293350
25,308667	0,5	-0,292450
25,317000	0,5	-0,284150
25,325333	0,5	-0,287450
25,333667	0,5	-0,286400
25,342000	0,5	-0,285850
25,350333	0,5	-0,286450
25,358667	0,5	-0,283800
25,367000	0,5	-0,277850
25,375333	0,5	-0,279300
25,383667	0,5	-0,275950
25,392000	0,5	-0,277750
25,400333	0,5	-0,277700
25,408667	0,5	-0,278250
25,417000	0,5	-0,277950
25,425333	0,5	-0,275750
25,433667	0,5	-0,273300
25,442000	0,5	-0,272350
25,450333	0,5	-0,272650
25,458667	0,5	-0,269850
25,467000	0,5	-0,272800
25,475333	0,5	-0,269250
25,483667	0,5	-0,266950
25,492000	0,5	-0,269450
25,500333	0,5	-0,265750
25,508667	0,5	-0,264900
25,517000	0,5	-0,260350
25,525333	0,5	-0,262450
25,533667	0,5	-0,261600
25,542000	0,5	-0,258900
25,550333	0,5	-0,259800
25,558667	0,5	-0,255750
25,567000	0,5	-0,256750
25,575333	0,5	-0,256250
25,583667	0,5	-0,254000
25,592000	0,5	-0,252050
25,600333	0,5	-0,255500
25,608667	0,5	-0,256900
25,617000	0,5	-0,255700
25,625333	0,5	-0,251200
25,633667	0,5	-0,252750
25,642000	0,5	-0,251950
25,650333	0,5	-0,247650
25,658667	0,5	-0,245700
25,667000	0,5	-0,243700
25,675333	0,5	-0,248650
25,683667	0,5	-0,247600
25,692000	0,5	-0,243950
25,700333	0,5	-0,245500
25,708667	0,5	-0,241100
25,717000	0,5	-0,242950
25,725333	0,5	-0,239800
25,733667	0,5	-0,238550
25,742000	0,5	-0,240300
25,750333	0,5	-0,239800
25,758667	0,5	-0,238350
25,767000	0,5	-0,239150
25,775333	0,5	-0,239700
25,783667	0,5	-0,241250
25,792000	0,5	-0,232550
25,800333	0,5	-0,230300
25,808667	0,5	-0,225750
25,817000	0,5	-0,229350
25,825333	0,5	-0,232200
25,833667	0,5	-0,234200
25,842000	0,5	-0,231250
25,850333	0,5	-0,227550
25,858667	0,5	-0,227350
25,867000	0,5	-0,225800
25,875333	0,5	-0,225950
25,883667	0,5	-0,223650
25,892000	0,5	-0,226150
25,900333	0,5	-0,221250
25,908667	0,5	-0,222000
25,917000	0,5	-0,221400
25,925333	0,5	-0,219800
25,933667	0,5	-0,216650
25,942000	0,5	-0,207450
25,950333	0,5	-0,213750
25,958667	0,5	-0,208000
25,967000	0,5	-0,216850
25,975333	0,5	-0,216150
25,983667	0,5	-0,214450
25,992000	0,5	-0,210800
26,000333	0,5	-0,203900
