File Path	chrom://chromeleon01/ikbm_chromeleon/2022/ICS-5000/ED1/Esteban/20220612_Cell_7_4_eg.seq/909.smp/ED_1.channel/ED_1.chm
Channel	ED_1

Injection Information:
Data Vault	ikbm_chromeleon
Injection	7_24h-EGS-pH6_2
Injection Number	12
Position	RA7
Comment	
Processing Method	Stop sequence after Cell Death
Instrument Method	ICS5000_PA200_FullNative_Ox_26min_ED1
Type	Unknown
Status	Finished
Injection Date	12.06.2022
Injection Time	21:15:15
Injection Volume (µl)	5,0
Dilution Factor	1,0000
Weight	1,0000

Chromatogram Data Information:
Time Min. (min)	0,000333
Time Max. (min)	26,000333
Data Points	3121
Detector	EDet1
Generating Data System	Chromeleon 7.2.9.11323
Exporting Data System	Chromeleon 7.2.9.0
Operator	Instrument Controller
Signal Quantity	
Signal Unit	nC
Signal Min.	-1,483950
Signal Max.	592,587509
Channel	ED_1
Driver Name	DC-5000
Channel Type	Evaluation
Min. Step (s)	0,5
Max. Step (s)	0,5
Average Step (s)	0,5

Signal Parameter Information:
Signal Info	

Chromatogram Data:
Time (min)	Step (s)	Value (nC)
0,000333	n.a.	-0,050850
0,008667	0,5	-0,036850
0,017000	0,5	-0,034200
0,025333	0,5	-0,008500
0,033667	0,5	-0,005550
0,042000	0,5	0,000250
0,050333	0,5	-0,003700
0,058667	0,5	0,003550
0,067000	0,5	-0,001800
0,075333	0,5	0,002250
0,083667	0,5	-0,006800
0,092000	0,5	-0,003550
0,100333	0,5	0,002950
0,108667	0,5	-0,010100
0,117000	0,5	-0,012250
0,125333	0,5	0,008350
0,133667	0,5	-0,009000
0,142000	0,5	-0,013400
0,150333	0,5	-0,010050
0,158667	0,5	-0,002350
0,167000	0,5	0,018850
0,175333	0,5	0,019650
0,183667	0,5	0,020750
0,192000	0,5	0,026050
0,200333	0,5	0,023950
0,208667	0,5	0,016300
0,217000	0,5	0,018100
0,225333	0,5	0,015900
0,233667	0,5	0,017550
0,242000	0,5	0,014750
0,250333	0,5	0,016300
0,258667	0,5	0,001000
0,267000	0,5	0,010700
0,275333	0,5	0,020550
0,283667	0,5	0,017450
0,292000	0,5	0,032900
0,300333	0,5	0,058800
0,308667	0,5	0,048350
0,317000	0,5	0,039350
0,325333	0,5	0,014950
0,333667	0,5	0,014150
0,342000	0,5	0,014100
0,350333	0,5	0,019200
0,358667	0,5	0,018350
0,367000	0,5	0,024050
0,375333	0,5	0,021250
0,383667	0,5	0,025550
0,392000	0,5	0,029650
0,400333	0,5	0,027300
0,408667	0,5	0,024300
0,417000	0,5	0,029550
0,425333	0,5	0,029950
0,433667	0,5	0,020650
0,442000	0,5	0,019400
0,450333	0,5	0,021400
0,458667	0,5	0,036600
0,467000	0,5	0,043200
0,475333	0,5	0,043850
0,483667	0,5	0,044700
0,492000	0,5	0,051200
0,500333	0,5	0,044650
0,508667	0,5	0,049750
0,517000	0,5	0,048950
0,525333	0,5	0,046250
0,533667	0,5	0,048900
0,542000	0,5	0,050150
0,550333	0,5	0,056150
0,558667	0,5	0,041500
0,567000	0,5	0,063750
0,575333	0,5	0,053650
0,583667	0,5	0,053500
0,592000	0,5	0,050050
0,600333	0,5	0,067500
0,608667	0,5	0,083500
0,617000	0,5	0,086200
0,625333	0,5	0,074450
0,633667	0,5	0,084750
0,642000	0,5	0,081500
0,650333	0,5	0,094200
0,658667	0,5	0,085350
0,667000	0,5	0,091450
0,675333	0,5	0,090350
0,683667	0,5	0,089150
0,692000	0,5	0,093400
0,700333	0,5	0,082250
0,708667	0,5	0,082900
0,717000	0,5	0,101800
0,725333	0,5	0,087700
0,733667	0,5	0,088700
0,742000	0,5	0,092300
0,750333	0,5	0,103900
0,758667	0,5	0,125400
0,767000	0,5	0,127100
0,775333	0,5	0,129100
0,783667	0,5	0,123700
0,792000	0,5	0,129050
0,800333	0,5	0,125450
0,808667	0,5	0,130550
0,817000	0,5	0,124500
0,825333	0,5	0,126750
0,833667	0,5	0,131650
0,842000	0,5	0,128500
0,850333	0,5	0,123850
0,858667	0,5	0,136400
0,867000	0,5	0,139050
0,875333	0,5	0,127050
0,883667	0,5	0,127300
0,892000	0,5	0,134750
0,900333	0,5	0,146200
0,908667	0,5	0,163100
0,917000	0,5	0,166050
0,925333	0,5	0,159650
0,933667	0,5	0,165600
0,942000	0,5	0,158800
0,950333	0,5	0,164950
0,958667	0,5	0,163200
0,967000	0,5	0,164350
0,975333	0,5	0,159850
0,983667	0,5	0,161200
0,992000	0,5	0,156900
1,000333	0,5	0,154350
1,008667	0,5	0,168800
1,017000	0,5	0,162250
1,025333	0,5	0,153500
1,033667	0,5	0,159400
1,042000	0,5	0,157350
1,050333	0,5	0,181500
1,058667	0,5	0,183050
1,067000	0,5	0,179500
1,075333	0,5	0,180600
1,083667	0,5	0,177050
1,092000	0,5	0,176400
1,100333	0,5	0,174200
1,108667	0,5	0,175200
1,117000	0,5	0,166450
1,125333	0,5	0,170950
1,133667	0,5	0,167100
1,142000	0,5	0,174500
1,150333	0,5	0,168600
1,158667	0,5	0,186850
1,167000	0,5	0,161400
1,175333	0,5	0,157600
1,183667	0,5	0,156300
1,192000	0,5	0,161350
1,200333	0,5	0,175400
1,208667	0,5	0,166550
1,217000	0,5	0,162000
1,225333	0,5	0,164500
1,233667	0,5	0,160550
1,242000	0,5	0,163150
1,250333	0,5	0,154350
1,258667	0,5	0,148550
1,267000	0,5	0,145800
1,275333	0,5	0,143250
1,283667	0,5	0,145950
1,292000	0,5	0,131650
1,300333	0,5	0,129800
1,308667	0,5	0,136050
1,317000	0,5	0,122250
1,325333	0,5	0,113350
1,333667	0,5	0,118600
1,342000	0,5	0,122350
1,350333	0,5	0,133300
1,358667	0,5	0,116900
1,367000	0,5	0,115700
1,375333	0,5	0,112500
1,383667	0,5	0,112100
1,392000	0,5	0,103300
1,400333	0,5	0,100850
1,408667	0,5	0,094100
1,417000	0,5	0,088800
1,425333	0,5	0,087950
1,433667	0,5	0,084450
1,442000	0,5	0,076100
1,450333	0,5	0,080100
1,458667	0,5	0,082750
1,467000	0,5	0,072000
1,475333	0,5	0,074250
1,483667	0,5	0,071250
1,492000	0,5	0,076650
1,500333	0,5	0,082550
1,508667	0,5	0,075550
1,517000	0,5	0,064950
1,525333	0,5	0,069200
1,533667	0,5	0,056150
1,542000	0,5	0,051000
1,550333	0,5	0,049150
1,558667	0,5	0,062350
1,567000	0,5	0,068950
1,575333	0,5	0,115700
1,583667	0,5	1,152900
1,592000	0,5	6,854600
1,600333	0,5	27,671600
1,608667	0,5	89,553101
1,617000	0,5	225,470603
1,625333	0,5	414,274806
1,633667	0,5	562,156558
1,642000	0,5	592,587509
1,650333	0,5	513,198758
1,658667	0,5	389,795656
1,667000	0,5	277,985104
1,675333	0,5	196,146453
1,683667	0,5	141,521052
1,692000	0,5	106,389852
1,700333	0,5	84,037401
1,708667	0,5	69,345501
1,717000	0,5	58,997251
1,725333	0,5	51,359501
1,733667	0,5	45,896051
1,742000	0,5	42,542901
1,750333	0,5	41,506251
1,758667	0,5	42,588601
1,767000	0,5	44,563701
1,775333	0,5	45,557301
1,783667	0,5	44,454051
1,792000	0,5	41,486301
1,800333	0,5	37,705551
1,808667	0,5	34,170201
1,817000	0,5	31,343900
1,825333	0,5	29,447950
1,833667	0,5	28,686300
1,842000	0,5	29,041650
1,850333	0,5	29,600350
1,858667	0,5	29,192100
1,867000	0,5	27,828250
1,875333	0,5	26,765700
1,883667	0,5	27,306000
1,892000	0,5	30,723700
1,900333	0,5	37,679451
1,908667	0,5	46,262451
1,917000	0,5	52,020201
1,925333	0,5	52,321401
1,933667	0,5	48,232051
1,942000	0,5	42,296301
1,950333	0,5	36,709501
1,958667	0,5	32,786600
1,967000	0,5	30,592500
1,975333	0,5	29,576500
1,983667	0,5	29,757800
1,992000	0,5	31,234100
2,000333	0,5	32,437000
2,008667	0,5	31,392000
2,017000	0,5	28,586800
2,025333	0,5	25,709800
2,033667	0,5	23,786050
2,042000	0,5	23,518500
2,050333	0,5	25,839700
2,058667	0,5	30,408100
2,067000	0,5	33,932701
2,075333	0,5	33,319400
2,083667	0,5	29,632500
2,092000	0,5	25,619800
2,100333	0,5	22,548450
2,108667	0,5	20,422200
2,117000	0,5	19,012400
2,125333	0,5	18,037400
2,133667	0,5	17,276150
2,142000	0,5	16,686600
2,150333	0,5	16,334250
2,158667	0,5	16,234750
2,167000	0,5	16,473150
2,175333	0,5	17,602750
2,183667	0,5	20,939850
2,192000	0,5	24,499800
2,200333	0,5	23,033850
2,208667	0,5	18,642450
2,217000	0,5	15,887100
2,225333	0,5	14,711700
2,233667	0,5	14,249950
2,242000	0,5	14,126550
2,250333	0,5	14,213200
2,258667	0,5	14,542450
2,267000	0,5	15,237900
2,275333	0,5	16,721450
2,283667	0,5	19,516600
2,292000	0,5	23,566250
2,300333	0,5	27,691650
2,308667	0,5	30,274450
2,317000	0,5	30,529350
2,325333	0,5	28,955800
2,333667	0,5	26,832350
2,342000	0,5	25,401850
2,350333	0,5	25,607650
2,358667	0,5	28,473700
2,367000	0,5	35,736351
2,375333	0,5	49,684151
2,383667	0,5	70,534451
2,392000	0,5	92,620251
2,400333	0,5	105,963002
2,408667	0,5	104,395102
2,417000	0,5	91,021501
2,425333	0,5	74,015001
2,433667	0,5	60,169001
2,442000	0,5	52,761551
2,450333	0,5	52,542801
2,458667	0,5	57,726751
2,467000	0,5	64,066651
2,475333	0,5	67,340501
2,483667	0,5	65,981251
2,492000	0,5	60,671701
2,500333	0,5	52,988751
2,508667	0,5	44,555651
2,517000	0,5	36,733851
2,525333	0,5	30,412650
2,533667	0,5	25,810100
2,542000	0,5	22,731200
2,550333	0,5	20,787550
2,558667	0,5	19,694750
2,567000	0,5	19,315750
2,575333	0,5	19,725500
2,583667	0,5	20,914700
2,592000	0,5	22,540750
2,600333	0,5	23,799800
2,608667	0,5	23,930300
2,617000	0,5	22,763150
2,625333	0,5	20,819200
2,633667	0,5	18,825850
2,642000	0,5	17,215500
2,650333	0,5	16,169100
2,658667	0,5	15,652900
2,667000	0,5	15,618850
2,675333	0,5	16,157650
2,683667	0,5	17,634100
2,692000	0,5	20,674000
2,700333	0,5	25,536850
2,708667	0,5	31,122450
2,717000	0,5	35,130451
2,725333	0,5	35,766351
2,733667	0,5	33,089100
2,742000	0,5	28,486600
2,750333	0,5	23,627250
2,758667	0,5	19,594650
2,767000	0,5	16,703050
2,775333	0,5	14,751750
2,783667	0,5	13,458000
2,792000	0,5	12,538300
2,800333	0,5	11,890100
2,808667	0,5	11,405400
2,817000	0,5	11,058900
2,825333	0,5	10,807350
2,833667	0,5	10,604300
2,842000	0,5	10,427950
2,850333	0,5	10,271950
2,858667	0,5	10,143550
2,867000	0,5	10,068550
2,875333	0,5	10,055900
2,883667	0,5	10,070050
2,892000	0,5	10,040550
2,900333	0,5	9,906000
2,908667	0,5	9,671300
2,917000	0,5	9,389250
2,925333	0,5	9,135300
2,933667	0,5	8,914050
2,942000	0,5	8,758900
2,950333	0,5	8,687600
2,958667	0,5	8,681450
2,967000	0,5	8,728850
2,975333	0,5	8,807950
2,983667	0,5	8,915600
2,992000	0,5	9,071850
3,000333	0,5	9,244400
3,008667	0,5	9,453050
3,017000	0,5	9,761650
3,025333	0,5	10,286100
3,033667	0,5	10,894200
3,042000	0,5	11,304100
3,050333	0,5	11,380450
3,058667	0,5	11,151450
3,067000	0,5	10,764200
3,075333	0,5	10,331100
3,083667	0,5	9,868800
3,092000	0,5	9,418650
3,100333	0,5	8,998300
3,108667	0,5	8,603300
3,117000	0,5	8,255650
3,125333	0,5	7,915100
3,133667	0,5	7,613850
3,142000	0,5	7,349350
3,150333	0,5	7,130450
3,158667	0,5	6,930700
3,167000	0,5	6,769950
3,175333	0,5	6,623900
3,183667	0,5	6,482950
3,192000	0,5	6,347800
3,200333	0,5	6,215350
3,208667	0,5	6,086700
3,217000	0,5	5,964800
3,225333	0,5	5,872350
3,233667	0,5	5,766600
3,242000	0,5	5,688900
3,250333	0,5	5,625950
3,258667	0,5	5,577550
3,267000	0,5	5,556200
3,275333	0,5	5,529950
3,283667	0,5	5,513550
3,292000	0,5	5,539550
3,300333	0,5	5,579350
3,308667	0,5	5,675250
3,317000	0,5	5,846450
3,325333	0,5	6,147750
3,333667	0,5	6,609650
3,342000	0,5	7,255150
3,350333	0,5	8,048250
3,358667	0,5	8,895200
3,367000	0,5	9,643100
3,375333	0,5	10,143200
3,383667	0,5	10,253800
3,392000	0,5	10,000800
3,400333	0,5	9,452550
3,408667	0,5	8,761800
3,417000	0,5	8,056650
3,425333	0,5	7,413600
3,433667	0,5	6,906150
3,442000	0,5	6,504600
3,450333	0,5	6,195050
3,458667	0,5	5,924000
3,467000	0,5	5,698650
3,475333	0,5	5,489050
3,483667	0,5	5,330400
3,492000	0,5	5,209300
3,500333	0,5	5,115350
3,508667	0,5	5,073950
3,517000	0,5	5,064600
3,525333	0,5	5,044450
3,533667	0,5	5,013600
3,542000	0,5	4,969450
3,550333	0,5	4,912900
3,558667	0,5	4,854750
3,567000	0,5	4,790550
3,575333	0,5	4,735400
3,583667	0,5	4,683850
3,592000	0,5	4,653000
3,600333	0,5	4,631050
3,608667	0,5	4,619400
3,617000	0,5	4,602600
3,625333	0,5	4,589400
3,633667	0,5	4,565250
3,642000	0,5	4,543000
3,650333	0,5	4,508900
3,658667	0,5	4,482400
3,667000	0,5	4,461550
3,675333	0,5	4,424700
3,683667	0,5	4,383500
3,692000	0,5	4,350900
3,700333	0,5	4,317300
3,708667	0,5	4,289350
3,717000	0,5	4,250150
3,725333	0,5	4,222100
3,733667	0,5	4,209200
3,742000	0,5	4,225150
3,750333	0,5	4,275150
3,758667	0,5	4,368850
3,767000	0,5	4,515400
3,775333	0,5	4,698850
3,783667	0,5	4,897050
3,792000	0,5	5,056550
3,800333	0,5	5,146600
3,808667	0,5	5,138150
3,817000	0,5	5,042250
3,825333	0,5	4,852250
3,833667	0,5	4,626900
3,842000	0,5	4,404100
3,850333	0,5	4,207850
3,858667	0,5	4,051100
3,867000	0,5	3,920500
3,875333	0,5	3,828650
3,883667	0,5	3,773850
3,892000	0,5	3,737550
3,900333	0,5	3,729300
3,908667	0,5	3,728650
3,917000	0,5	3,747850
3,925333	0,5	3,769350
3,933667	0,5	3,792900
3,942000	0,5	3,821350
3,950333	0,5	3,831450
3,958667	0,5	3,858900
3,967000	0,5	3,874100
3,975333	0,5	3,878200
3,983667	0,5	3,879400
3,992000	0,5	3,888050
4,000333	0,5	3,891400
4,008667	0,5	3,893700
4,017000	0,5	3,872250
4,025333	0,5	3,861950
4,033667	0,5	3,844050
4,042000	0,5	3,832700
4,050333	0,5	3,821250
4,058667	0,5	3,822550
4,067000	0,5	3,824000
4,075333	0,5	3,839300
4,083667	0,5	3,866950
4,092000	0,5	3,888800
4,100333	0,5	3,922150
4,108667	0,5	3,972450
4,117000	0,5	4,003900
4,125333	0,5	4,019100
4,133667	0,5	4,025800
4,142000	0,5	4,024050
4,150333	0,5	4,013550
4,158667	0,5	3,984550
4,167000	0,5	3,951000
4,175333	0,5	3,916050
4,183667	0,5	3,903150
4,192000	0,5	3,883800
4,200333	0,5	3,881750
4,208667	0,5	3,884450
4,217000	0,5	3,889100
4,225333	0,5	3,888700
4,233667	0,5	3,886850
4,242000	0,5	3,870350
4,250333	0,5	3,857400
4,258667	0,5	3,848550
4,267000	0,5	3,826050
4,275333	0,5	3,808100
4,283667	0,5	3,797000
4,292000	0,5	3,795850
4,300333	0,5	3,800800
4,308667	0,5	3,801650
4,317000	0,5	3,799300
4,325333	0,5	3,803800
4,333667	0,5	3,806900
4,342000	0,5	3,817550
4,350333	0,5	3,822600
4,358667	0,5	3,825800
4,367000	0,5	3,817200
4,375333	0,5	3,794550
4,383667	0,5	3,744950
4,392000	0,5	3,668050
4,400333	0,5	3,572800
4,408667	0,5	3,460400
4,417000	0,5	3,327850
4,425333	0,5	3,207100
4,433667	0,5	3,102350
4,442000	0,5	3,022150
4,450333	0,5	2,955300
4,458667	0,5	2,894800
4,467000	0,5	2,844100
4,475333	0,5	2,809800
4,483667	0,5	2,774100
4,492000	0,5	2,731200
4,500333	0,5	2,704300
4,508667	0,5	2,664500
4,517000	0,5	2,631200
4,525333	0,5	2,593350
4,533667	0,5	2,561450
4,542000	0,5	2,526850
4,550333	0,5	2,516400
4,558667	0,5	2,486650
4,567000	0,5	2,468600
4,575333	0,5	2,447500
4,583667	0,5	2,439450
4,592000	0,5	2,435150
4,600333	0,5	2,421800
4,608667	0,5	2,406300
4,617000	0,5	2,400200
4,625333	0,5	2,394000
4,633667	0,5	2,388650
4,642000	0,5	2,387950
4,650333	0,5	2,393400
4,658667	0,5	2,411600
4,667000	0,5	2,436200
4,675333	0,5	2,485050
4,683667	0,5	2,544300
4,692000	0,5	2,634700
4,700333	0,5	2,767150
4,708667	0,5	2,900500
4,717000	0,5	3,052850
4,725333	0,5	3,213550
4,733667	0,5	3,356950
4,742000	0,5	3,482950
4,750333	0,5	3,543050
4,758667	0,5	3,550950
4,767000	0,5	3,497450
4,775333	0,5	3,400400
4,783667	0,5	3,258150
4,792000	0,5	3,103350
4,800333	0,5	2,940600
4,808667	0,5	2,783300
4,817000	0,5	2,655600
4,825333	0,5	2,543300
4,833667	0,5	2,458600
4,842000	0,5	2,405400
4,850333	0,5	2,376800
4,858667	0,5	2,357100
4,867000	0,5	2,364900
4,875333	0,5	2,392850
4,883667	0,5	2,442700
4,892000	0,5	2,508450
4,900333	0,5	2,580650
4,908667	0,5	2,649800
4,917000	0,5	2,723250
4,925333	0,5	2,780150
4,933667	0,5	2,817650
4,942000	0,5	2,819400
4,950333	0,5	2,793250
4,958667	0,5	2,732600
4,967000	0,5	2,653050
4,975333	0,5	2,556650
4,983667	0,5	2,453850
4,992000	0,5	2,369000
5,000333	0,5	2,277850
5,008667	0,5	2,200300
5,017000	0,5	2,135150
5,025333	0,5	2,087150
5,033667	0,5	2,058250
5,042000	0,5	2,028050
5,050333	0,5	1,999250
5,058667	0,5	1,979900
5,067000	0,5	1,962250
5,075333	0,5	1,949200
5,083667	0,5	1,931600
5,092000	0,5	1,922400
5,100333	0,5	1,907950
5,108667	0,5	1,898400
5,117000	0,5	1,888950
5,125333	0,5	1,881300
5,133667	0,5	1,871350
5,142000	0,5	1,885700
5,150333	0,5	1,878100
5,158667	0,5	1,886450
5,167000	0,5	1,898900
5,175333	0,5	1,916000
5,183667	0,5	1,944700
5,192000	0,5	1,957550
5,200333	0,5	1,967800
5,208667	0,5	1,977050
5,217000	0,5	1,982050
5,225333	0,5	1,979500
5,233667	0,5	1,979200
5,242000	0,5	1,971800
5,250333	0,5	1,972350
5,258667	0,5	1,976200
5,267000	0,5	1,989200
5,275333	0,5	2,004100
5,283667	0,5	2,036700
5,292000	0,5	2,083850
5,300333	0,5	2,123700
5,308667	0,5	2,181150
5,317000	0,5	2,249300
5,325333	0,5	2,332400
5,333667	0,5	2,427950
5,342000	0,5	2,520500
5,350333	0,5	2,617800
5,358667	0,5	2,721650
5,367000	0,5	2,826150
5,375333	0,5	2,924050
5,383667	0,5	3,013550
5,392000	0,5	3,085050
5,400333	0,5	3,132900
5,408667	0,5	3,161950
5,417000	0,5	3,153850
5,425333	0,5	3,116450
5,433667	0,5	3,051400
5,442000	0,5	2,952850
5,450333	0,5	2,827550
5,458667	0,5	2,691700
5,467000	0,5	2,550850
5,475333	0,5	2,417900
5,483667	0,5	2,289350
5,492000	0,5	2,166500
5,500333	0,5	2,051100
5,508667	0,5	1,962000
5,517000	0,5	1,887550
5,525333	0,5	1,831400
5,533667	0,5	1,792400
5,542000	0,5	1,766750
5,550333	0,5	1,759250
5,558667	0,5	1,758250
5,567000	0,5	1,764150
5,575333	0,5	1,771200
5,583667	0,5	1,799800
5,592000	0,5	1,805900
5,600333	0,5	1,816350
5,608667	0,5	1,829050
5,617000	0,5	1,846100
5,625333	0,5	1,873900
5,633667	0,5	1,893850
5,642000	0,5	1,917900
5,650333	0,5	1,953950
5,658667	0,5	1,989300
5,667000	0,5	2,026150
5,675333	0,5	2,056800
5,683667	0,5	2,082750
5,692000	0,5	2,091950
5,700333	0,5	2,086250
5,708667	0,5	2,068250
5,717000	0,5	2,030750
5,725333	0,5	1,987600
5,733667	0,5	1,949500
5,742000	0,5	1,891550
5,750333	0,5	1,846300
5,758667	0,5	1,805950
5,767000	0,5	1,775300
5,775333	0,5	1,755800
5,783667	0,5	1,725450
5,792000	0,5	1,704900
5,800333	0,5	1,677500
5,808667	0,5	1,660600
5,817000	0,5	1,637250
5,825333	0,5	1,615650
5,833667	0,5	1,591250
5,842000	0,5	1,569050
5,850333	0,5	1,550700
5,858667	0,5	1,531000
5,867000	0,5	1,512500
5,875333	0,5	1,506950
5,883667	0,5	1,507400
5,892000	0,5	1,504950
5,900333	0,5	1,515350
5,908667	0,5	1,529000
5,917000	0,5	1,556000
5,925333	0,5	1,584350
5,933667	0,5	1,606300
5,942000	0,5	1,621050
5,950333	0,5	1,636000
5,958667	0,5	1,641250
5,967000	0,5	1,639500
5,975333	0,5	1,629750
5,983667	0,5	1,605300
5,992000	0,5	1,576300
6,000333	0,5	1,544800
6,008667	0,5	1,508100
6,017000	0,5	1,481250
6,025333	0,5	1,460050
6,033667	0,5	1,443500
6,042000	0,5	1,426350
6,050333	0,5	1,420250
6,058667	0,5	1,419950
6,067000	0,5	1,429400
6,075333	0,5	1,440750
6,083667	0,5	1,443700
6,092000	0,5	1,453800
6,100333	0,5	1,464700
6,108667	0,5	1,480750
6,117000	0,5	1,505200
6,125333	0,5	1,546450
6,133667	0,5	1,611800
6,142000	0,5	1,721950
6,150333	0,5	1,864300
6,158667	0,5	2,034900
6,167000	0,5	2,215550
6,175333	0,5	2,376350
6,183667	0,5	2,454650
6,192000	0,5	2,468200
6,200333	0,5	2,415150
6,208667	0,5	2,324200
6,217000	0,5	2,219850
6,225333	0,5	2,123650
6,233667	0,5	2,054550
6,242000	0,5	2,014500
6,250333	0,5	2,007400
6,258667	0,5	2,036550
6,267000	0,5	2,125400
6,275333	0,5	2,299850
6,283667	0,5	2,602950
6,292000	0,5	3,039100
6,300333	0,5	3,580300
6,308667	0,5	4,150750
6,317000	0,5	4,648850
6,325333	0,5	4,949900
6,333667	0,5	4,982350
6,342000	0,5	4,764400
6,350333	0,5	4,366050
6,358667	0,5	3,878400
6,367000	0,5	3,398950
6,375333	0,5	2,971300
6,383667	0,5	2,650750
6,392000	0,5	2,444950
6,400333	0,5	2,346700
6,408667	0,5	2,354250
6,417000	0,5	2,474100
6,425333	0,5	2,624650
6,433667	0,5	2,656000
6,442000	0,5	2,579250
6,450333	0,5	2,398250
6,458667	0,5	2,170550
6,467000	0,5	1,980800
6,475333	0,5	1,836850
6,483667	0,5	1,718300
6,492000	0,5	1,636000
6,500333	0,5	1,588150
6,508667	0,5	1,564750
6,517000	0,5	1,548850
6,525333	0,5	1,529150
6,533667	0,5	1,522000
6,542000	0,5	1,515550
6,550333	0,5	1,507800
6,558667	0,5	1,504950
6,567000	0,5	1,498800
6,575333	0,5	1,497450
6,583667	0,5	1,493600
6,592000	0,5	1,495650
6,600333	0,5	1,496200
6,608667	0,5	1,495200
6,617000	0,5	1,505200
6,625333	0,5	1,505200
6,633667	0,5	1,505100
6,642000	0,5	1,510400
6,650333	0,5	1,519750
6,658667	0,5	1,532800
6,667000	0,5	1,541550
6,675333	0,5	1,543850
6,683667	0,5	1,551750
6,692000	0,5	1,558800
6,700333	0,5	1,564250
6,708667	0,5	1,566250
6,717000	0,5	1,571000
6,725333	0,5	1,571350
6,733667	0,5	1,574850
6,742000	0,5	1,577950
6,750333	0,5	1,574900
6,758667	0,5	1,579700
6,767000	0,5	1,585150
6,775333	0,5	1,582150
6,783667	0,5	1,580650
6,792000	0,5	1,585350
6,800333	0,5	1,588050
6,808667	0,5	1,596550
6,817000	0,5	1,600850
6,825333	0,5	1,605200
6,833667	0,5	1,609800
6,842000	0,5	1,614050
6,850333	0,5	1,619800
6,858667	0,5	1,630350
6,867000	0,5	1,636300
6,875333	0,5	1,645950
6,883667	0,5	1,658200
6,892000	0,5	1,665250
6,900333	0,5	1,673000
6,908667	0,5	1,693550
6,917000	0,5	1,708250
6,925333	0,5	1,722650
6,933667	0,5	1,736200
6,942000	0,5	1,752150
6,950333	0,5	1,773100
6,958667	0,5	1,790050
6,967000	0,5	1,802250
6,975333	0,5	1,808350
6,983667	0,5	1,815850
6,992000	0,5	1,816050
7,000333	0,5	1,815250
7,008667	0,5	1,807200
7,017000	0,5	1,798250
7,025333	0,5	1,781000
7,033667	0,5	1,765600
7,042000	0,5	1,744000
7,050333	0,5	1,720400
7,058667	0,5	1,702200
7,067000	0,5	1,678850
7,075333	0,5	1,657350
7,083667	0,5	1,641050
7,092000	0,5	1,630200
7,100333	0,5	1,630350
7,108667	0,5	1,628900
7,117000	0,5	1,623550
7,125333	0,5	1,630850
7,133667	0,5	1,642650
7,142000	0,5	1,659750
7,150333	0,5	1,679900
7,158667	0,5	1,708400
7,167000	0,5	1,738650
7,175333	0,5	1,783150
7,183667	0,5	1,831050
7,192000	0,5	1,889900
7,200333	0,5	1,954850
7,208667	0,5	2,038600
7,217000	0,5	2,125500
7,225333	0,5	2,232350
7,233667	0,5	2,358250
7,242000	0,5	2,514400
7,250333	0,5	2,709500
7,258667	0,5	2,935350
7,267000	0,5	3,205450
7,275333	0,5	3,536650
7,283667	0,5	3,936600
7,292000	0,5	4,408700
7,300333	0,5	4,961750
7,308667	0,5	5,586500
7,317000	0,5	6,270800
7,325333	0,5	6,984450
7,333667	0,5	7,698750
7,342000	0,5	8,349700
7,350333	0,5	8,901700
7,358667	0,5	9,298450
7,367000	0,5	9,491550
7,375333	0,5	9,467450
7,383667	0,5	9,223900
7,392000	0,5	8,778400
7,400333	0,5	8,168250
7,408667	0,5	7,437600
7,417000	0,5	6,642300
7,425333	0,5	5,838650
7,433667	0,5	5,074300
7,442000	0,5	4,383200
7,450333	0,5	3,792200
7,458667	0,5	3,302900
7,467000	0,5	2,917300
7,475333	0,5	2,623050
7,483667	0,5	2,405650
7,492000	0,5	2,250150
7,500333	0,5	2,152150
7,508667	0,5	2,089600
7,517000	0,5	2,050000
7,525333	0,5	2,033850
7,533667	0,5	2,033550
7,542000	0,5	2,057750
7,550333	0,5	2,082950
7,558667	0,5	2,115950
7,567000	0,5	2,159650
7,575333	0,5	2,217350
7,583667	0,5	2,278200
7,592000	0,5	2,353600
7,600333	0,5	2,431450
7,608667	0,5	2,499800
7,617000	0,5	2,557350
7,625333	0,5	2,598600
7,633667	0,5	2,606150
7,642000	0,5	2,588900
7,650333	0,5	2,550050
7,658667	0,5	2,478300
7,667000	0,5	2,398800
7,675333	0,5	2,308350
7,683667	0,5	2,216850
7,692000	0,5	2,130800
7,700333	0,5	2,045550
7,708667	0,5	1,966200
7,717000	0,5	1,899100
7,725333	0,5	1,838650
7,733667	0,5	1,788450
7,742000	0,5	1,745350
7,750333	0,5	1,712050
7,758667	0,5	1,686900
7,767000	0,5	1,669000
7,775333	0,5	1,658700
7,783667	0,5	1,651250
7,792000	0,5	1,650400
7,800333	0,5	1,654350
7,808667	0,5	1,656900
7,817000	0,5	1,663000
7,825333	0,5	1,672100
7,833667	0,5	1,682850
7,842000	0,5	1,694900
7,850333	0,5	1,703650
7,858667	0,5	1,711500
7,867000	0,5	1,716950
7,875333	0,5	1,719550
7,883667	0,5	1,721850
7,892000	0,5	1,725200
7,900333	0,5	1,723200
7,908667	0,5	1,720900
7,917000	0,5	1,714700
7,925333	0,5	1,701550
7,933667	0,5	1,686900
7,942000	0,5	1,665600
7,950333	0,5	1,645600
7,958667	0,5	1,626400
7,967000	0,5	1,610500
7,975333	0,5	1,600500
7,983667	0,5	1,602750
7,992000	0,5	1,615400
8,000333	0,5	1,635450
8,008667	0,5	1,672350
8,017000	0,5	1,731850
8,025333	0,5	1,821000
8,033667	0,5	1,943200
8,042000	0,5	2,093650
8,050333	0,5	2,256200
8,058667	0,5	2,417150
8,067000	0,5	2,561900
8,075333	0,5	2,682000
8,083667	0,5	2,792950
8,092000	0,5	2,919400
8,100333	0,5	3,072450
8,108667	0,5	3,262150
8,117000	0,5	3,504700
8,125333	0,5	3,779700
8,133667	0,5	4,086550
8,142000	0,5	4,408550
8,150333	0,5	4,713250
8,158667	0,5	4,975750
8,167000	0,5	5,182000
8,175333	0,5	5,310200
8,183667	0,5	5,344150
8,192000	0,5	5,280800
8,200333	0,5	5,135150
8,208667	0,5	4,938900
8,217000	0,5	4,725450
8,225333	0,5	4,527300
8,233667	0,5	4,371900
8,242000	0,5	4,242650
8,250333	0,5	4,109100
8,258667	0,5	3,939650
8,267000	0,5	3,724100
8,275333	0,5	3,462550
8,283667	0,5	3,173900
8,292000	0,5	2,884750
8,300333	0,5	2,616150
8,308667	0,5	2,382350
8,317000	0,5	2,192300
8,325333	0,5	2,043150
8,333667	0,5	1,927900
8,342000	0,5	1,844250
8,350333	0,5	1,789400
8,358667	0,5	1,758800
8,367000	0,5	1,752450
8,375333	0,5	1,767700
8,383667	0,5	1,806450
8,392000	0,5	1,859700
8,400333	0,5	1,920500
8,408667	0,5	1,982700
8,417000	0,5	2,038400
8,425333	0,5	2,088200
8,433667	0,5	2,134150
8,442000	0,5	2,172100
8,450333	0,5	2,199350
8,458667	0,5	2,216450
8,467000	0,5	2,207600
8,475333	0,5	2,164800
8,483667	0,5	2,086350
8,492000	0,5	1,984100
8,500333	0,5	1,867550
8,508667	0,5	1,755400
8,517000	0,5	1,653000
8,525333	0,5	1,566850
8,533667	0,5	1,503100
8,542000	0,5	1,460200
8,550333	0,5	1,427350
8,558667	0,5	1,411850
8,567000	0,5	1,410600
8,575333	0,5	1,432900
8,583667	0,5	1,487200
8,592000	0,5	1,572550
8,600333	0,5	1,686450
8,608667	0,5	1,803450
8,617000	0,5	1,894650
8,625333	0,5	1,933650
8,633667	0,5	1,911750
8,642000	0,5	1,840950
8,650333	0,5	1,743400
8,658667	0,5	1,639550
8,667000	0,5	1,539850
8,675333	0,5	1,455050
8,683667	0,5	1,393600
8,692000	0,5	1,348050
8,700333	0,5	1,318450
8,708667	0,5	1,310000
8,717000	0,5	1,309550
8,725333	0,5	1,322100
8,733667	0,5	1,334700
8,742000	0,5	1,349450
8,750333	0,5	1,352300
8,758667	0,5	1,351550
8,767000	0,5	1,338050
8,775333	0,5	1,325150
8,783667	0,5	1,304750
8,792000	0,5	1,292150
8,800333	0,5	1,287000
8,808667	0,5	1,289350
8,817000	0,5	1,310250
8,825333	0,5	1,350350
8,833667	0,5	1,416900
8,842000	0,5	1,499000
8,850333	0,5	1,597700
8,858667	0,5	1,697100
8,867000	0,5	1,781300
8,875333	0,5	1,839600
8,883667	0,5	1,863150
8,892000	0,5	1,852050
8,900333	0,5	1,810450
8,908667	0,5	1,745150
8,917000	0,5	1,675350
8,925333	0,5	1,608000
8,933667	0,5	1,552900
8,942000	0,5	1,509600
8,950333	0,5	1,479900
8,958667	0,5	1,463100
8,967000	0,5	1,455200
8,975333	0,5	1,463300
8,983667	0,5	1,485650
8,992000	0,5	1,534350
9,000333	0,5	1,604650
9,008667	0,5	1,696700
9,017000	0,5	1,792550
9,025333	0,5	1,871450
9,033667	0,5	1,912850
9,042000	0,5	1,899000
9,050333	0,5	1,842550
9,058667	0,5	1,760900
9,067000	0,5	1,673800
9,075333	0,5	1,608450
9,083667	0,5	1,574600
9,092000	0,5	1,580450
9,100333	0,5	1,624550
9,108667	0,5	1,690500
9,117000	0,5	1,760200
9,125333	0,5	1,812700
9,133667	0,5	1,826150
9,142000	0,5	1,794350
9,150333	0,5	1,721400
9,158667	0,5	1,628250
9,167000	0,5	1,532300
9,175333	0,5	1,448950
9,183667	0,5	1,381800
9,192000	0,5	1,336900
9,200333	0,5	1,306650
9,208667	0,5	1,287450
9,217000	0,5	1,277800
9,225333	0,5	1,269200
9,233667	0,5	1,259500
9,242000	0,5	1,256250
9,250333	0,5	1,251200
9,258667	0,5	1,247350
9,267000	0,5	1,249450
9,275333	0,5	1,255900
9,283667	0,5	1,271950
9,292000	0,5	1,287200
9,300333	0,5	1,310400
9,308667	0,5	1,336950
9,317000	0,5	1,373150
9,325333	0,5	1,420500
9,333667	0,5	1,489350
9,342000	0,5	1,589650
9,350333	0,5	1,730750
9,358667	0,5	1,899700
9,367000	0,5	2,087100
9,375333	0,5	2,238350
9,383667	0,5	2,337050
9,392000	0,5	2,348200
9,400333	0,5	2,282700
9,408667	0,5	2,156450
9,417000	0,5	1,991700
9,425333	0,5	1,826250
9,433667	0,5	1,669300
9,442000	0,5	1,540350
9,450333	0,5	1,438950
9,458667	0,5	1,368400
9,467000	0,5	1,322850
9,475333	0,5	1,302350
9,483667	0,5	1,293000
9,492000	0,5	1,300150
9,500333	0,5	1,319450
9,508667	0,5	1,342750
9,517000	0,5	1,372150
9,525333	0,5	1,401300
9,533667	0,5	1,428650
9,542000	0,5	1,456900
9,550333	0,5	1,501300
9,558667	0,5	1,562650
9,567000	0,5	1,650350
9,575333	0,5	1,761350
9,583667	0,5	1,871500
9,592000	0,5	1,959300
9,600333	0,5	2,008300
9,608667	0,5	2,009150
9,617000	0,5	1,968000
9,625333	0,5	1,894350
9,633667	0,5	1,814950
9,642000	0,5	1,751400
9,650333	0,5	1,721100
9,658667	0,5	1,722550
9,667000	0,5	1,779500
9,675333	0,5	1,886900
9,683667	0,5	2,035250
9,692000	0,5	2,223300
9,700333	0,5	2,429500
9,708667	0,5	2,636600
9,717000	0,5	2,827950
9,725333	0,5	3,003300
9,733667	0,5	3,159550
9,742000	0,5	3,298350
9,750333	0,5	3,411200
9,758667	0,5	3,484400
9,767000	0,5	3,491800
9,775333	0,5	3,415700
9,783667	0,5	3,256700
9,792000	0,5	3,028500
9,800333	0,5	2,771600
9,808667	0,5	2,511650
9,817000	0,5	2,268050
9,825333	0,5	2,060650
9,833667	0,5	1,888650
9,842000	0,5	1,753250
9,850333	0,5	1,652850
9,858667	0,5	1,577250
9,867000	0,5	1,535200
9,875333	0,5	1,511900
9,883667	0,5	1,499000
9,892000	0,5	1,499250
9,900333	0,5	1,507600
9,908667	0,5	1,513000
9,917000	0,5	1,530850
9,925333	0,5	1,557300
9,933667	0,5	1,597100
9,942000	0,5	1,654300
9,950333	0,5	1,723800
9,958667	0,5	1,724000
9,967000	0,5	1,812600
9,975333	0,5	1,815150
9,983667	0,5	1,790950
9,992000	0,5	1,749050
10,000333	0,5	1,699400
10,008667	0,5	1,643150
10,017000	0,5	1,617650
10,025333	0,5	1,614450
10,033667	0,5	1,651900
10,042000	0,5	1,730650
10,050333	0,5	1,852850
10,058667	0,5	2,000550
10,067000	0,5	2,137300
10,075333	0,5	2,228850
10,083667	0,5	2,254500
10,092000	0,5	2,215300
10,100333	0,5	2,125700
10,108667	0,5	2,007350
10,117000	0,5	1,887600
10,125333	0,5	1,779550
10,133667	0,5	1,690600
10,142000	0,5	1,634150
10,150333	0,5	1,607200
10,158667	0,5	1,609900
10,167000	0,5	1,637600
10,175333	0,5	1,682550
10,183667	0,5	1,738300
10,192000	0,5	1,808350
10,200333	0,5	1,877900
10,208667	0,5	1,948400
10,217000	0,5	2,025300
10,225333	0,5	2,122800
10,233667	0,5	2,225450
10,242000	0,5	2,330700
10,250333	0,5	2,458800
10,258667	0,5	2,611950
10,267000	0,5	2,748300
10,275333	0,5	2,820050
10,283667	0,5	2,806700
10,292000	0,5	2,734550
10,300333	0,5	2,659750
10,308667	0,5	2,706450
10,317000	0,5	3,154750
10,325333	0,5	4,432250
10,333667	0,5	5,880300
10,342000	0,5	6,415800
10,350333	0,5	6,182350
10,358667	0,5	5,336900
10,367000	0,5	4,052800
10,375333	0,5	2,806150
10,383667	0,5	1,898050
10,392000	0,5	1,342200
10,400333	0,5	1,025350
10,408667	0,5	0,834300
10,417000	0,5	0,711750
10,425333	0,5	0,628150
10,433667	0,5	0,567550
10,442000	0,5	0,520750
10,450333	0,5	0,482050
10,458667	0,5	0,456350
10,467000	0,5	0,427650
10,475333	0,5	0,403500
10,483667	0,5	0,381000
10,492000	0,5	0,359650
10,500333	0,5	0,342000
10,508667	0,5	0,330200
10,517000	0,5	0,313950
10,525333	0,5	0,302550
10,533667	0,5	0,292150
10,542000	0,5	0,283500
10,550333	0,5	0,271350
10,558667	0,5	0,260200
10,567000	0,5	0,249250
10,575333	0,5	0,240900
10,583667	0,5	0,233000
10,592000	0,5	0,221100
10,600333	0,5	0,212450
10,608667	0,5	0,215550
10,617000	0,5	0,211050
10,625333	0,5	0,214850
10,633667	0,5	0,217850
10,642000	0,5	0,222700
10,650333	0,5	0,233250
10,658667	0,5	0,240650
10,667000	0,5	0,251900
10,675333	0,5	0,254850
10,683667	0,5	0,261400
10,692000	0,5	0,264850
10,700333	0,5	0,266900
10,708667	0,5	0,263850
10,717000	0,5	0,262150
10,725333	0,5	0,256750
10,733667	0,5	0,251450
10,742000	0,5	0,239950
10,750333	0,5	0,233050
10,758667	0,5	0,222900
10,767000	0,5	0,210700
10,775333	0,5	0,193050
10,783667	0,5	0,178950
10,792000	0,5	0,167650
10,800333	0,5	0,154800
10,808667	0,5	0,141800
10,817000	0,5	0,131050
10,825333	0,5	0,120400
10,833667	0,5	0,108650
10,842000	0,5	0,098400
10,850333	0,5	0,086300
10,858667	0,5	0,079000
10,867000	0,5	0,067650
10,875333	0,5	0,061300
10,883667	0,5	0,050700
10,892000	0,5	0,039700
10,900333	0,5	0,033500
10,908667	0,5	0,027900
10,917000	0,5	0,022850
10,925333	0,5	0,013100
10,933667	0,5	0,003650
10,942000	0,5	0,001800
10,950333	0,5	0,002000
10,958667	0,5	0,003400
10,967000	0,5	0,004700
10,975333	0,5	0,006300
10,983667	0,5	0,008950
10,992000	0,5	0,007050
11,000333	0,5	0,008800
11,008667	0,5	0,009800
11,017000	0,5	0,017150
11,025333	0,5	0,018850
11,033667	0,5	0,020700
11,042000	0,5	0,020950
11,050333	0,5	0,024700
11,058667	0,5	0,025450
11,067000	0,5	0,027600
11,075333	0,5	0,023350
11,083667	0,5	0,024800
11,092000	0,5	0,030400
11,100333	0,5	0,031950
11,108667	0,5	0,037450
11,117000	0,5	0,043650
11,125333	0,5	0,048250
11,133667	0,5	0,057750
11,142000	0,5	0,065450
11,150333	0,5	0,074550
11,158667	0,5	0,082300
11,167000	0,5	0,087500
11,175333	0,5	0,094000
11,183667	0,5	0,097400
11,192000	0,5	0,100150
11,200333	0,5	0,105800
11,208667	0,5	0,103450
11,217000	0,5	0,103500
11,225333	0,5	0,096500
11,233667	0,5	0,092450
11,242000	0,5	0,093650
11,250333	0,5	0,085400
11,258667	0,5	0,083150
11,267000	0,5	0,068300
11,275333	0,5	0,067150
11,283667	0,5	0,061350
11,292000	0,5	0,050300
11,300333	0,5	0,048650
11,308667	0,5	0,043000
11,317000	0,5	0,037150
11,325333	0,5	0,033650
11,333667	0,5	0,025400
11,342000	0,5	0,027850
11,350333	0,5	0,025150
11,358667	0,5	0,024750
11,367000	0,5	0,020800
11,375333	0,5	0,015850
11,383667	0,5	0,019500
11,392000	0,5	0,017500
11,400333	0,5	0,022500
11,408667	0,5	0,020650
11,417000	0,5	0,026550
11,425333	0,5	0,025250
11,433667	0,5	0,027850
11,442000	0,5	0,029200
11,450333	0,5	0,030900
11,458667	0,5	0,031300
11,467000	0,5	0,033250
11,475333	0,5	0,036850
11,483667	0,5	0,038400
11,492000	0,5	0,044950
11,500333	0,5	0,047050
11,508667	0,5	0,048300
11,517000	0,5	0,050700
11,525333	0,5	0,051850
11,533667	0,5	0,062050
11,542000	0,5	0,067300
11,550333	0,5	0,069200
11,558667	0,5	0,077000
11,567000	0,5	0,080500
11,575333	0,5	0,086500
11,583667	0,5	0,090600
11,592000	0,5	0,098550
11,600333	0,5	0,104600
11,608667	0,5	0,113200
11,617000	0,5	0,118250
11,625333	0,5	0,127900
11,633667	0,5	0,134500
11,642000	0,5	0,146650
11,650333	0,5	0,154200
11,658667	0,5	0,162350
11,667000	0,5	0,167750
11,675333	0,5	0,173750
11,683667	0,5	0,186650
11,692000	0,5	0,197750
11,700333	0,5	0,202750
11,708667	0,5	0,210200
11,717000	0,5	0,216100
11,725333	0,5	0,218300
11,733667	0,5	0,224050
11,742000	0,5	0,221700
11,750333	0,5	0,222850
11,758667	0,5	0,218500
11,767000	0,5	0,217750
11,775333	0,5	0,206900
11,783667	0,5	0,204300
11,792000	0,5	0,195050
11,800333	0,5	0,192600
11,808667	0,5	0,181750
11,817000	0,5	0,174050
11,825333	0,5	0,173200
11,833667	0,5	0,170900
11,842000	0,5	0,168750
11,850333	0,5	0,165350
11,858667	0,5	0,167100
11,867000	0,5	0,166600
11,875333	0,5	0,164750
11,883667	0,5	0,161850
11,892000	0,5	0,163100
11,900333	0,5	0,164350
11,908667	0,5	0,168700
11,917000	0,5	0,168950
11,925333	0,5	0,169500
11,933667	0,5	0,175650
11,942000	0,5	0,178500
11,950333	0,5	0,181100
11,958667	0,5	0,185450
11,967000	0,5	0,186350
11,975333	0,5	0,195850
11,983667	0,5	0,202350
11,992000	0,5	0,218550
12,000333	0,5	0,226850
12,008667	0,5	0,244100
12,017000	0,5	0,256850
12,025333	0,5	0,270450
12,033667	0,5	0,286050
12,042000	0,5	0,304350
12,050333	0,5	0,326150
12,058667	0,5	0,344300
12,067000	0,5	0,365450
12,075333	0,5	0,389200
12,083667	0,5	0,416750
12,092000	0,5	0,442650
12,100333	0,5	0,472450
12,108667	0,5	0,497150
12,117000	0,5	0,525850
12,125333	0,5	0,559700
12,133667	0,5	0,597200
12,142000	0,5	0,629400
12,150333	0,5	0,659550
12,158667	0,5	0,682250
12,167000	0,5	0,711200
12,175333	0,5	0,729100
12,183667	0,5	0,750600
12,192000	0,5	0,767750
12,200333	0,5	0,780600
12,208667	0,5	0,795900
12,217000	0,5	0,801650
12,225333	0,5	0,819350
12,233667	0,5	0,835600
12,242000	0,5	0,846700
12,250333	0,5	0,859750
12,258667	0,5	0,875400
12,267000	0,5	0,893500
12,275333	0,5	0,922250
12,283667	0,5	0,948000
12,292000	0,5	0,979850
12,300333	0,5	1,012900
12,308667	0,5	1,041750
12,317000	0,5	1,065100
12,325333	0,5	1,084400
12,333667	0,5	1,092500
12,342000	0,5	1,096950
12,350333	0,5	1,095500
12,358667	0,5	1,088400
12,367000	0,5	1,073550
12,375333	0,5	1,066800
12,383667	0,5	1,056750
12,392000	0,5	1,048100
12,400333	0,5	1,036850
12,408667	0,5	1,028950
12,417000	0,5	1,032300
12,425333	0,5	1,032300
12,433667	0,5	1,038800
12,442000	0,5	1,045000
12,450333	0,5	1,052750
12,458667	0,5	1,060750
12,467000	0,5	1,077200
12,475333	0,5	1,085150
12,483667	0,5	1,100000
12,492000	0,5	1,113700
12,500333	0,5	1,129950
12,508667	0,5	1,141850
12,517000	0,5	1,153250
12,525333	0,5	1,167750
12,533667	0,5	1,178800
12,542000	0,5	1,188600
12,550333	0,5	1,197450
12,558667	0,5	1,205050
12,567000	0,5	1,220850
12,575333	0,5	1,233550
12,583667	0,5	1,243100
12,592000	0,5	1,262700
12,600333	0,5	1,279950
12,608667	0,5	1,309400
12,617000	0,5	1,334300
12,625333	0,5	1,366950
12,633667	0,5	1,391850
12,642000	0,5	1,413400
12,650333	0,5	1,426300
12,658667	0,5	1,429750
12,667000	0,5	1,427800
12,675333	0,5	1,420850
12,683667	0,5	1,408100
12,692000	0,5	1,392550
12,700333	0,5	1,373400
12,708667	0,5	1,365500
12,717000	0,5	1,362900
12,725333	0,5	1,356400
12,733667	0,5	1,356200
12,742000	0,5	1,357400
12,750333	0,5	1,361750
12,758667	0,5	1,367000
12,767000	0,5	1,371900
12,775333	0,5	1,380650
12,783667	0,5	1,388550
12,792000	0,5	1,395550
12,800333	0,5	1,397500
12,808667	0,5	1,392700
12,817000	0,5	1,396900
12,825333	0,5	1,393750
12,833667	0,5	1,394100
12,842000	0,5	1,388500
12,850333	0,5	1,385800
12,858667	0,5	1,390800
12,867000	0,5	1,399350
12,875333	0,5	1,407300
12,883667	0,5	1,418850
12,892000	0,5	1,428600
12,900333	0,5	1,434950
12,908667	0,5	1,444000
12,917000	0,5	1,441750
12,925333	0,5	1,444350
12,933667	0,5	1,441150
12,942000	0,5	1,441500
12,950333	0,5	1,434200
12,958667	0,5	1,429400
12,967000	0,5	1,424300
12,975333	0,5	1,424900
12,983667	0,5	1,411600
12,992000	0,5	1,404800
13,000333	0,5	1,399250
13,008667	0,5	1,399350
13,017000	0,5	1,399100
13,025333	0,5	1,401250
13,033667	0,5	1,402800
13,042000	0,5	1,406050
13,050333	0,5	1,411050
13,058667	0,5	1,418650
13,067000	0,5	1,423850
13,075333	0,5	1,429850
13,083667	0,5	1,441000
13,092000	0,5	1,451100
13,100333	0,5	1,446550
13,108667	0,5	1,452400
13,117000	0,5	1,454000
13,125333	0,5	1,441550
13,133667	0,5	1,436000
13,142000	0,5	1,416900
13,150333	0,5	1,415800
13,158667	0,5	1,406450
13,167000	0,5	1,403800
13,175333	0,5	1,394350
13,183667	0,5	1,396950
13,192000	0,5	1,390250
13,200333	0,5	1,395450
13,208667	0,5	1,396950
13,217000	0,5	1,399850
13,225333	0,5	1,404850
13,233667	0,5	1,410000
13,242000	0,5	1,417150
13,250333	0,5	1,410550
13,258667	0,5	1,419950
13,267000	0,5	1,421750
13,275333	0,5	1,420600
13,283667	0,5	1,419850
13,292000	0,5	1,415450
13,300333	0,5	1,423750
13,308667	0,5	1,429150
13,317000	0,5	1,431950
13,325333	0,5	1,438600
13,333667	0,5	1,443800
13,342000	0,5	1,445750
13,350333	0,5	1,444950
13,358667	0,5	1,440000
13,367000	0,5	1,434200
13,375333	0,5	1,429250
13,383667	0,5	1,432900
13,392000	0,5	1,433950
13,400333	0,5	1,432600
13,408667	0,5	1,438750
13,417000	0,5	1,442850
13,425333	0,5	1,441450
13,433667	0,5	1,441000
13,442000	0,5	1,428500
13,450333	0,5	1,437100
13,458667	0,5	1,430200
13,467000	0,5	1,427850
13,475333	0,5	1,419550
13,483667	0,5	1,416800
13,492000	0,5	1,406850
13,500333	0,5	1,404700
13,508667	0,5	1,402200
13,517000	0,5	1,409250
13,525333	0,5	1,420450
13,533667	0,5	1,440200
13,542000	0,5	1,449800
13,550333	0,5	1,469050
13,558667	0,5	1,481350
13,567000	0,5	1,487150
13,575333	0,5	1,486000
13,583667	0,5	1,479650
13,592000	0,5	1,473900
13,600333	0,5	1,467350
13,608667	0,5	1,462100
13,617000	0,5	1,445800
13,625333	0,5	1,443000
13,633667	0,5	1,437200
13,642000	0,5	1,436250
13,650333	0,5	1,432750
13,658667	0,5	1,435900
13,667000	0,5	1,435850
13,675333	0,5	1,441650
13,683667	0,5	1,434650
13,692000	0,5	1,420900
13,700333	0,5	1,415850
13,708667	0,5	1,410900
13,717000	0,5	1,408850
13,725333	0,5	1,417550
13,733667	0,5	1,431450
13,742000	0,5	1,463750
13,750333	0,5	1,505300
13,758667	0,5	1,534700
13,767000	0,5	1,558650
13,775333	0,5	1,565850
13,783667	0,5	1,555800
13,792000	0,5	1,529200
13,800333	0,5	1,497850
13,808667	0,5	1,464650
13,817000	0,5	1,438550
13,825333	0,5	1,423850
13,833667	0,5	1,410100
13,842000	0,5	1,407500
13,850333	0,5	1,416650
13,858667	0,5	1,424700
13,867000	0,5	1,439500
13,875333	0,5	1,442600
13,883667	0,5	1,448950
13,892000	0,5	1,455500
13,900333	0,5	1,468850
13,908667	0,5	1,483600
13,917000	0,5	1,520300
13,925333	0,5	1,568700
13,933667	0,5	1,617250
13,942000	0,5	1,657450
13,950333	0,5	1,672050
13,958667	0,5	1,657350
13,967000	0,5	1,625500
13,975333	0,5	1,578500
13,983667	0,5	1,510750
13,992000	0,5	1,457500
14,000333	0,5	1,414100
14,008667	0,5	1,383600
14,017000	0,5	1,363100
14,025333	0,5	1,351100
14,033667	0,5	1,360150
14,042000	0,5	1,375550
14,050333	0,5	1,389700
14,058667	0,5	1,423100
14,067000	0,5	1,455900
14,075333	0,5	1,501350
14,083667	0,5	1,548950
14,092000	0,5	1,589900
14,100333	0,5	1,620900
14,108667	0,5	1,624800
14,117000	0,5	1,603700
14,125333	0,5	1,556800
14,133667	0,5	1,491700
14,142000	0,5	1,438000
14,150333	0,5	1,386700
14,158667	0,5	1,342500
14,167000	0,5	1,317350
14,175333	0,5	1,293600
14,183667	0,5	1,300500
14,192000	0,5	1,312800
14,200333	0,5	1,338900
14,208667	0,5	1,364850
14,217000	0,5	1,401050
14,225333	0,5	1,433350
14,233667	0,5	1,472550
14,242000	0,5	1,492150
14,250333	0,5	1,492600
14,258667	0,5	1,483250
14,267000	0,5	1,452100
14,275333	0,5	1,409250
14,283667	0,5	1,365400
14,292000	0,5	1,330400
14,300333	0,5	1,295500
14,308667	0,5	1,273950
14,317000	0,5	1,257100
14,325333	0,5	1,255400
14,333667	0,5	1,267300
14,342000	0,5	1,285600
14,350333	0,5	1,307450
14,358667	0,5	1,336950
14,367000	0,5	1,360800
14,375333	0,5	1,382800
14,383667	0,5	1,388150
14,392000	0,5	1,385300
14,400333	0,5	1,359750
14,408667	0,5	1,326250
14,417000	0,5	1,304050
14,425333	0,5	1,272700
14,433667	0,5	1,262300
14,442000	0,5	1,260900
14,450333	0,5	1,264250
14,458667	0,5	1,270700
14,467000	0,5	1,276200
14,475333	0,5	1,290200
14,483667	0,5	1,304950
14,492000	0,5	1,307650
14,500333	0,5	1,308100
14,508667	0,5	1,298300
14,517000	0,5	1,289700
14,525333	0,5	1,264400
14,533667	0,5	1,243050
14,542000	0,5	1,214050
14,550333	0,5	1,192050
14,558667	0,5	1,178000
14,567000	0,5	1,171650
14,575333	0,5	1,154350
14,583667	0,5	1,161400
14,592000	0,5	1,159550
14,600333	0,5	1,157750
14,608667	0,5	1,156700
14,617000	0,5	1,148700
14,625333	0,5	1,154750
14,633667	0,5	1,155600
14,642000	0,5	1,153450
14,650333	0,5	1,157550
14,658667	0,5	1,167250
14,667000	0,5	1,171150
14,675333	0,5	1,173450
14,683667	0,5	1,173000
14,692000	0,5	1,177500
14,700333	0,5	1,172400
14,708667	0,5	1,173550
14,717000	0,5	1,167050
14,725333	0,5	1,154600
14,733667	0,5	1,158750
14,742000	0,5	1,148400
14,750333	0,5	1,141550
14,758667	0,5	1,131800
14,767000	0,5	1,121550
14,775333	0,5	1,118150
14,783667	0,5	1,122800
14,792000	0,5	1,110950
14,800333	0,5	1,109700
14,808667	0,5	1,100700
14,817000	0,5	1,095450
14,825333	0,5	1,085400
14,833667	0,5	1,078550
14,842000	0,5	1,068450
14,850333	0,5	1,066600
14,858667	0,5	1,067500
14,867000	0,5	1,067300
14,875333	0,5	1,069450
14,883667	0,5	1,078000
14,892000	0,5	1,080000
14,900333	0,5	1,083450
14,908667	0,5	1,081400
14,917000	0,5	1,076950
14,925333	0,5	1,079600
14,933667	0,5	1,074600
14,942000	0,5	1,064750
14,950333	0,5	1,059550
14,958667	0,5	1,050500
14,967000	0,5	1,043200
14,975333	0,5	1,040550
14,983667	0,5	1,033100
14,992000	0,5	1,032100
15,000333	0,5	1,037200
15,008667	0,5	1,036400
15,017000	0,5	1,029450
15,025333	0,5	1,038350
15,033667	0,5	1,036300
15,042000	0,5	1,031600
15,050333	0,5	1,023000
15,058667	0,5	1,013500
15,067000	0,5	1,010000
15,075333	0,5	1,014350
15,083667	0,5	1,009550
15,092000	0,5	1,011100
15,100333	0,5	1,014500
15,108667	0,5	1,019500
15,117000	0,5	1,020850
15,125333	0,5	1,021950
15,133667	0,5	1,016050
15,142000	0,5	1,013300
15,150333	0,5	1,018750
15,158667	0,5	1,009750
15,167000	0,5	1,007550
15,175333	0,5	1,003350
15,183667	0,5	1,002150
15,192000	0,5	0,994400
15,200333	0,5	0,988750
15,208667	0,5	0,984000
15,217000	0,5	0,988250
15,225333	0,5	0,989600
15,233667	0,5	0,990350
15,242000	0,5	0,986700
15,250333	0,5	0,994700
15,258667	0,5	0,988250
15,267000	0,5	0,988400
15,275333	0,5	0,984450
15,283667	0,5	0,983900
15,292000	0,5	0,984000
15,300333	0,5	0,985300
15,308667	0,5	0,977100
15,317000	0,5	0,983250
15,325333	0,5	0,988150
15,333667	0,5	0,983600
15,342000	0,5	0,982900
15,350333	0,5	0,970100
15,358667	0,5	0,972850
15,367000	0,5	0,974300
15,375333	0,5	0,975150
15,383667	0,5	0,970150
15,392000	0,5	0,974050
15,400333	0,5	0,974900
15,408667	0,5	0,981000
15,417000	0,5	0,978400
15,425333	0,5	0,978450
15,433667	0,5	0,975500
15,442000	0,5	0,972150
15,450333	0,5	0,979750
15,458667	0,5	0,973300
15,467000	0,5	0,985850
15,475333	0,5	0,992950
15,483667	0,5	0,998700
15,492000	0,5	1,001350
15,500333	0,5	0,997150
15,508667	0,5	1,005400
15,517000	0,5	1,014850
15,525333	0,5	1,009100
15,533667	0,5	1,016100
15,542000	0,5	1,014100
15,550333	0,5	1,013100
15,558667	0,5	1,007300
15,567000	0,5	1,009700
15,575333	0,5	1,000100
15,583667	0,5	1,000650
15,592000	0,5	1,002750
15,600333	0,5	1,007000
15,608667	0,5	1,000850
15,617000	0,5	1,012700
15,625333	0,5	1,015200
15,633667	0,5	1,017050
15,642000	0,5	1,016950
15,650333	0,5	1,008000
15,658667	0,5	1,020250
15,667000	0,5	1,018050
15,675333	0,5	1,026700
15,683667	0,5	1,031100
15,692000	0,5	1,049150
15,700333	0,5	1,060800
15,708667	0,5	1,076400
15,717000	0,5	1,082700
15,725333	0,5	1,079100
15,733667	0,5	1,068850
15,742000	0,5	1,060400
15,750333	0,5	1,037150
15,758667	0,5	1,028050
15,767000	0,5	1,017650
15,775333	0,5	1,012550
15,783667	0,5	0,999300
15,792000	0,5	0,990250
15,800333	0,5	0,991300
15,808667	0,5	0,997500
15,817000	0,5	1,003800
15,825333	0,5	0,994600
15,833667	0,5	0,997550
15,842000	0,5	0,996750
15,850333	0,5	0,997900
15,858667	0,5	0,992150
15,867000	0,5	0,990850
15,875333	0,5	0,988000
15,883667	0,5	0,989450
15,892000	0,5	0,986050
15,900333	0,5	0,979900
15,908667	0,5	0,986350
15,917000	0,5	0,988000
15,925333	0,5	0,976600
15,933667	0,5	0,972250
15,942000	0,5	0,960550
15,950333	0,5	0,959600
15,958667	0,5	0,960100
15,967000	0,5	0,962000
15,975333	0,5	0,962250
15,983667	0,5	0,965700
15,992000	0,5	0,972200
16,000333	0,5	0,970050
16,008667	0,5	0,980300
16,017000	0,5	0,983550
16,025333	0,5	0,987850
16,033667	0,5	0,995050
16,042000	0,5	0,994900
16,050333	0,5	0,995050
16,058667	0,5	1,006250
16,067000	0,5	1,004500
16,075333	0,5	1,008000
16,083667	0,5	1,003800
16,092000	0,5	1,011200
16,100333	0,5	1,025750
16,108667	0,5	1,033600
16,117000	0,5	1,041250
16,125333	0,5	1,042600
16,133667	0,5	1,044700
16,142000	0,5	1,038450
16,150333	0,5	1,032600
16,158667	0,5	1,018950
16,167000	0,5	1,010000
16,175333	0,5	1,002300
16,183667	0,5	1,000850
16,192000	0,5	0,984000
16,200333	0,5	0,992800
16,208667	0,5	0,995700
16,217000	0,5	0,994500
16,225333	0,5	0,995200
16,233667	0,5	0,991200
16,242000	0,5	0,993250
16,250333	0,5	1,000050
16,258667	0,5	1,001400
16,267000	0,5	1,005000
16,275333	0,5	1,006500
16,283667	0,5	1,012450
16,292000	0,5	1,016050
16,300333	0,5	1,017250
16,308667	0,5	1,017950
16,317000	0,5	1,007850
16,325333	0,5	1,014100
16,333667	0,5	1,010150
16,342000	0,5	1,000700
16,350333	0,5	1,007800
16,358667	0,5	1,015500
16,367000	0,5	1,009800
16,375333	0,5	1,014100
16,383667	0,5	1,010450
16,392000	0,5	1,025900
16,400333	0,5	1,024200
16,408667	0,5	1,024850
16,417000	0,5	1,013650
16,425333	0,5	1,013100
16,433667	0,5	1,011050
16,442000	0,5	1,016700
16,450333	0,5	1,019750
16,458667	0,5	1,022850
16,467000	0,5	1,026750
16,475333	0,5	1,028400
16,483667	0,5	1,032250
16,492000	0,5	1,030750
16,500333	0,5	1,042200
16,508667	0,5	1,043650
16,517000	0,5	1,043050
16,525333	0,5	1,037450
16,533667	0,5	1,042400
16,542000	0,5	1,054600
16,550333	0,5	1,075350
16,558667	0,5	1,093650
16,567000	0,5	1,121050
16,575333	0,5	1,148650
16,583667	0,5	1,174300
16,592000	0,5	1,195000
16,600333	0,5	1,214400
16,608667	0,5	1,219100
16,617000	0,5	1,231650
16,625333	0,5	1,245350
16,633667	0,5	1,266250
16,642000	0,5	1,312250
16,650333	0,5	1,380150
16,658667	0,5	1,457600
16,667000	0,5	1,549950
16,675333	0,5	1,633100
16,683667	0,5	1,703700
16,692000	0,5	1,759950
16,700333	0,5	1,761900
16,708667	0,5	1,722800
16,717000	0,5	1,647350
16,725333	0,5	1,556750
16,733667	0,5	1,452500
16,742000	0,5	1,349100
16,750333	0,5	1,259300
16,758667	0,5	1,186400
16,767000	0,5	1,136850
16,775333	0,5	1,098350
16,783667	0,5	1,062250
16,792000	0,5	1,049950
16,800333	0,5	1,040250
16,808667	0,5	1,026000
16,817000	0,5	1,014850
16,825333	0,5	0,998650
16,833667	0,5	0,997200
16,842000	0,5	0,987800
16,850333	0,5	0,987850
16,858667	0,5	0,980650
16,867000	0,5	0,978050
16,875333	0,5	0,974700
16,883667	0,5	0,980500
16,892000	0,5	0,972850
16,900333	0,5	0,973600
16,908667	0,5	0,967550
16,917000	0,5	0,976000
16,925333	0,5	0,959800
16,933667	0,5	0,962450
16,942000	0,5	0,960600
16,950333	0,5	0,959350
16,958667	0,5	0,949850
16,967000	0,5	0,938850
16,975333	0,5	0,938350
16,983667	0,5	0,935650
16,992000	0,5	0,936050
17,000333	0,5	0,927950
17,008667	0,5	0,928500
17,017000	0,5	0,920950
17,025333	0,5	0,921900
17,033667	0,5	0,914050
17,042000	0,5	0,913950
17,050333	0,5	0,909650
17,058667	0,5	0,906000
17,067000	0,5	0,908150
17,075333	0,5	0,898200
17,083667	0,5	0,900600
17,092000	0,5	0,899700
17,100333	0,5	0,893400
17,108667	0,5	0,884750
17,117000	0,5	0,878900
17,125333	0,5	0,877650
17,133667	0,5	0,883250
17,142000	0,5	0,881350
17,150333	0,5	0,879600
17,158667	0,5	0,882750
17,167000	0,5	0,887400
17,175333	0,5	0,885500
17,183667	0,5	0,888600
17,192000	0,5	0,883050
17,200333	0,5	0,882950
17,208667	0,5	0,884350
17,217000	0,5	0,887200
17,225333	0,5	0,881250
17,233667	0,5	0,888700
17,242000	0,5	0,882850
17,250333	0,5	0,883050
17,258667	0,5	0,872200
17,267000	0,5	0,860600
17,275333	0,5	0,859700
17,283667	0,5	0,860600
17,292000	0,5	0,861450
17,300333	0,5	0,856700
17,308667	0,5	0,856200
17,317000	0,5	0,859450
17,325333	0,5	0,862100
17,333667	0,5	0,858650
17,342000	0,5	0,853250
17,350333	0,5	0,857100
17,358667	0,5	0,864750
17,367000	0,5	0,850950
17,375333	0,5	0,853600
17,383667	0,5	0,853600
17,392000	0,5	0,849000
17,400333	0,5	0,842200
17,408667	0,5	0,834450
17,417000	0,5	0,831750
17,425333	0,5	0,838150
17,433667	0,5	0,839600
17,442000	0,5	0,841600
17,450333	0,5	0,845600
17,458667	0,5	0,848450
17,467000	0,5	0,851300
17,475333	0,5	0,862100
17,483667	0,5	0,868100
17,492000	0,5	0,869650
17,500333	0,5	0,888000
17,508667	0,5	0,900650
17,517000	0,5	0,898250
17,525333	0,5	0,919400
17,533667	0,5	0,941250
17,542000	0,5	0,957050
17,550333	0,5	0,973150
17,558667	0,5	0,977050
17,567000	0,5	1,007850
17,575333	0,5	1,031300
17,583667	0,5	1,057100
17,592000	0,5	1,073900
17,600333	0,5	1,099700
17,608667	0,5	1,124250
17,617000	0,5	1,153100
17,625333	0,5	1,173850
17,633667	0,5	1,189200
17,642000	0,5	1,211100
17,650333	0,5	1,229700
17,658667	0,5	1,248200
17,667000	0,5	1,252800
17,675333	0,5	1,275000
17,683667	0,5	1,277900
17,692000	0,5	1,279550
17,700333	0,5	1,277300
17,708667	0,5	1,277650
17,717000	0,5	1,288350
17,725333	0,5	1,298000
17,733667	0,5	1,293250
17,742000	0,5	1,294950
17,750333	0,5	1,282700
17,758667	0,5	1,277050
17,767000	0,5	1,265750
17,775333	0,5	1,255450
17,783667	0,5	1,242800
17,792000	0,5	1,225200
17,800333	0,5	1,219250
17,808667	0,5	1,201350
17,817000	0,5	1,184900
17,825333	0,5	1,176000
17,833667	0,5	1,159250
17,842000	0,5	1,144700
17,850333	0,5	1,124050
17,858667	0,5	1,107150
17,867000	0,5	1,103250
17,875333	0,5	1,092050
17,883667	0,5	1,086550
17,892000	0,5	1,070150
17,900333	0,5	1,068200
17,908667	0,5	1,057000
17,917000	0,5	1,050300
17,925333	0,5	1,041550
17,933667	0,5	1,030650
17,942000	0,5	1,028700
17,950333	0,5	1,018750
17,958667	0,5	1,001000
17,967000	0,5	1,003350
17,975333	0,5	0,996800
17,983667	0,5	0,981350
17,992000	0,5	0,970200
18,000333	0,5	0,951900
18,008667	0,5	0,953800
18,017000	0,5	0,946600
18,025333	0,5	0,946100
18,033667	0,5	0,937400
18,042000	0,5	0,941500
18,050333	0,5	0,932100
18,058667	0,5	0,935150
18,067000	0,5	0,931250
18,075333	0,5	0,930100
18,083667	0,5	0,924400
18,092000	0,5	0,925550
18,100333	0,5	0,920950
18,108667	0,5	0,911650
18,117000	0,5	0,914550
18,125333	0,5	0,914300
18,133667	0,5	0,906200
18,142000	0,5	0,893000
18,150333	0,5	0,887550
18,158667	0,5	0,889150
18,167000	0,5	0,892250
18,175333	0,5	0,886750
18,183667	0,5	0,886400
18,192000	0,5	0,884800
18,200333	0,5	0,890550
18,208667	0,5	0,887800
18,217000	0,5	0,894800
18,225333	0,5	0,892350
18,233667	0,5	0,892800
18,242000	0,5	0,897100
18,250333	0,5	0,892600
18,258667	0,5	0,903950
18,267000	0,5	0,909200
18,275333	0,5	0,914200
18,283667	0,5	0,909000
18,292000	0,5	0,902850
18,300333	0,5	0,903800
18,308667	0,5	0,912200
18,317000	0,5	0,907850
18,325333	0,5	0,907900
18,333667	0,5	0,906450
18,342000	0,5	0,909700
18,350333	0,5	0,906400
18,358667	0,5	0,904400
18,367000	0,5	0,900000
18,375333	0,5	0,898900
18,383667	0,5	0,899450
18,392000	0,5	0,906250
18,400333	0,5	0,894550
18,408667	0,5	0,904450
18,417000	0,5	0,902950
18,425333	0,5	0,903200
18,433667	0,5	0,892700
18,442000	0,5	0,882150
18,450333	0,5	0,891500
18,458667	0,5	0,894150
18,467000	0,5	0,899800
18,475333	0,5	0,896300
18,483667	0,5	0,898600
18,492000	0,5	0,901850
18,500333	0,5	0,906250
18,508667	0,5	0,905550
18,517000	0,5	0,910550
18,525333	0,5	0,912550
18,533667	0,5	0,921900
18,542000	0,5	0,920050
18,550333	0,5	0,915900
18,558667	0,5	0,922400
18,567000	0,5	0,920100
18,575333	0,5	0,912750
18,583667	0,5	0,905000
18,592000	0,5	0,898800
18,600333	0,5	0,899800
18,608667	0,5	0,908550
18,617000	0,5	0,909750
18,625333	0,5	0,912300
18,633667	0,5	0,914200
18,642000	0,5	0,919600
18,650333	0,5	0,919150
18,658667	0,5	0,921450
18,667000	0,5	0,918100
18,675333	0,5	0,925500
18,683667	0,5	0,923150
18,692000	0,5	0,918600
18,700333	0,5	0,918150
18,708667	0,5	0,926650
18,717000	0,5	0,915000
18,725333	0,5	0,914050
18,733667	0,5	0,901750
18,742000	0,5	0,903100
18,750333	0,5	0,903250
18,758667	0,5	0,904550
18,767000	0,5	0,904950
18,775333	0,5	0,901550
18,783667	0,5	0,905500
18,792000	0,5	0,906400
18,800333	0,5	0,906800
18,808667	0,5	0,908450
18,817000	0,5	0,907900
18,825333	0,5	0,916600
18,833667	0,5	0,913400
18,842000	0,5	0,901200
18,850333	0,5	0,910150
18,858667	0,5	0,910050
18,867000	0,5	0,903700
18,875333	0,5	0,887900
18,883667	0,5	0,885400
18,892000	0,5	0,892050
18,900333	0,5	0,894500
18,908667	0,5	0,893400
18,917000	0,5	0,889050
18,925333	0,5	0,892750
18,933667	0,5	0,893200
18,942000	0,5	0,895950
18,950333	0,5	0,900550
18,958667	0,5	0,899150
18,967000	0,5	0,899600
18,975333	0,5	0,907700
18,983667	0,5	0,896550
18,992000	0,5	0,899400
19,000333	0,5	0,901100
19,008667	0,5	0,904750
19,017000	0,5	0,894600
19,025333	0,5	0,885950
19,033667	0,5	0,881250
19,042000	0,5	0,892050
19,050333	0,5	0,884750
19,058667	0,5	0,892700
19,067000	0,5	0,889850
19,075333	0,5	0,891600
19,083667	0,5	0,895400
19,092000	0,5	0,895450
19,100333	0,5	0,901900
19,108667	0,5	0,899400
19,117000	0,5	0,906000
19,125333	0,5	0,913700
19,133667	0,5	0,902300
19,142000	0,5	0,908050
19,150333	0,5	0,913200
19,158667	0,5	0,908550
19,167000	0,5	0,901750
19,175333	0,5	0,890050
19,183667	0,5	0,900950
19,192000	0,5	0,905250
19,200333	0,5	0,910950
19,208667	0,5	0,906100
19,217000	0,5	0,912200
19,225333	0,5	0,911000
19,233667	0,5	0,911550
19,242000	0,5	0,914550
19,250333	0,5	0,914700
19,258667	0,5	0,914350
19,267000	0,5	0,921700
19,275333	0,5	0,924550
19,283667	0,5	0,923100
19,292000	0,5	0,937200
19,300333	0,5	0,940150
19,308667	0,5	0,948100
19,317000	0,5	0,938700
19,325333	0,5	0,936850
19,333667	0,5	0,944900
19,342000	0,5	0,957900
19,350333	0,5	0,959750
19,358667	0,5	0,966750
19,367000	0,5	0,972500
19,375333	0,5	0,984150
19,383667	0,5	0,985000
19,392000	0,5	0,988150
19,400333	0,5	0,987950
19,408667	0,5	0,987700
19,417000	0,5	0,995500
19,425333	0,5	0,984000
19,433667	0,5	0,982500
19,442000	0,5	0,981200
19,450333	0,5	0,971550
19,458667	0,5	0,955250
19,467000	0,5	0,938550
19,475333	0,5	0,932000
19,483667	0,5	0,937800
19,492000	0,5	0,929550
19,500333	0,5	0,934800
19,508667	0,5	0,932400
19,517000	0,5	0,936200
19,525333	0,5	0,933400
19,533667	0,5	0,942050
19,542000	0,5	0,938150
19,550333	0,5	0,943850
19,558667	0,5	0,952100
19,567000	0,5	0,952050
19,575333	0,5	0,943300
19,583667	0,5	0,951300
19,592000	0,5	0,951050
19,600333	0,5	0,947650
19,608667	0,5	0,941050
19,617000	0,5	0,930500
19,625333	0,5	0,939950
19,633667	0,5	0,937150
19,642000	0,5	0,936950
19,650333	0,5	0,934050
19,658667	0,5	0,936850
19,667000	0,5	0,936250
19,675333	0,5	0,942150
19,683667	0,5	0,945450
19,692000	0,5	0,948400
19,700333	0,5	0,952500
19,708667	0,5	0,963200
19,717000	0,5	0,960450
19,725333	0,5	0,963000
19,733667	0,5	0,967950
19,742000	0,5	0,969400
19,750333	0,5	0,967400
19,758667	0,5	0,953050
19,767000	0,5	0,960000
19,775333	0,5	0,968250
19,783667	0,5	0,978000
19,792000	0,5	0,979750
19,800333	0,5	0,989250
19,808667	0,5	0,994400
19,817000	0,5	1,003200
19,825333	0,5	1,008750
19,833667	0,5	1,012350
19,842000	0,5	1,012100
19,850333	0,5	1,016450
19,858667	0,5	1,024100
19,867000	0,5	1,013350
19,875333	0,5	1,020850
19,883667	0,5	1,019600
19,892000	0,5	1,020250
19,900333	0,5	1,011550
19,908667	0,5	0,999550
19,917000	0,5	1,002400
19,925333	0,5	1,012000
19,933667	0,5	1,009650
19,942000	0,5	1,016950
19,950333	0,5	1,010550
19,958667	0,5	1,019100
19,967000	0,5	1,022650
19,975333	0,5	1,032500
19,983667	0,5	1,029950
19,992000	0,5	1,038300
20,000333	0,5	1,047100
20,008667	0,5	1,054250
20,017000	0,5	1,050300
20,025333	0,5	1,064050
20,033667	0,5	1,063800
20,042000	0,5	1,067550
20,050333	0,5	1,058600
20,058667	0,5	1,050050
20,067000	0,5	1,066750
20,075333	0,5	1,063750
20,083667	0,5	1,065300
20,092000	0,5	1,063500
20,100333	0,5	1,061900
20,108667	0,5	1,057150
20,117000	0,5	1,059600
20,125333	0,5	1,053200
20,133667	0,5	1,056200
20,142000	0,5	1,060400
20,150333	0,5	1,064250
20,158667	0,5	1,058650
20,167000	0,5	1,065200
20,175333	0,5	1,067550
20,183667	0,5	1,067650
20,192000	0,5	1,062100
20,200333	0,5	1,054200
20,208667	0,5	1,051150
20,217000	0,5	1,062700
20,225333	0,5	1,067850
20,233667	0,5	1,070150
20,242000	0,5	1,075300
20,250333	0,5	1,077800
20,258667	0,5	1,087000
20,267000	0,5	1,093000
20,275333	0,5	1,094650
20,283667	0,5	1,096150
20,292000	0,5	1,112450
20,300333	0,5	1,117300
20,308667	0,5	1,115450
20,317000	0,5	1,118850
20,325333	0,5	1,125850
20,333667	0,5	1,124500
20,342000	0,5	1,116200
20,350333	0,5	1,112850
20,358667	0,5	1,115900
20,367000	0,5	1,128900
20,375333	0,5	1,130000
20,383667	0,5	1,136950
20,392000	0,5	1,146500
20,400333	0,5	1,150450
20,408667	0,5	1,158250
20,417000	0,5	1,170150
20,425333	0,5	1,170750
20,433667	0,5	1,183450
20,442000	0,5	1,193700
20,450333	0,5	1,190950
20,458667	0,5	1,189800
20,467000	0,5	1,195650
20,475333	0,5	1,193950
20,483667	0,5	1,188850
20,492000	0,5	1,174650
20,500333	0,5	1,183950
20,508667	0,5	1,196550
20,517000	0,5	1,198200
20,525333	0,5	1,200550
20,533667	0,5	1,207100
20,542000	0,5	1,208850
20,550333	0,5	1,213750
20,558667	0,5	1,224500
20,567000	0,5	1,232650
20,575333	0,5	1,240050
20,583667	0,5	1,257850
20,592000	0,5	1,276050
20,600333	0,5	1,269700
20,608667	0,5	1,277700
20,617000	0,5	1,276450
20,625333	0,5	1,278000
20,633667	0,5	1,273350
20,642000	0,5	1,264150
20,650333	0,5	1,279550
20,658667	0,5	1,289700
20,667000	0,5	1,295100
20,675333	0,5	1,300400
20,683667	0,5	1,308200
20,692000	0,5	1,317350
20,700333	0,5	1,330200
20,708667	0,5	1,336850
20,717000	0,5	1,345950
20,725333	0,5	1,353400
20,733667	0,5	1,383150
20,742000	0,5	1,391000
20,750333	0,5	1,390450
20,758667	0,5	1,398250
20,767000	0,5	1,402700
20,775333	0,5	1,395300
20,783667	0,5	1,393100
20,792000	0,5	1,391150
20,800333	0,5	1,398050
20,808667	0,5	1,409700
20,817000	0,5	1,414100
20,825333	0,5	1,427850
20,833667	0,5	1,434150
20,842000	0,5	1,451050
20,850333	0,5	1,466550
20,858667	0,5	1,492000
20,867000	0,5	1,508850
20,875333	0,5	1,553950
20,883667	0,5	1,581200
20,892000	0,5	1,601250
20,900333	0,5	1,601500
20,908667	0,5	1,608700
20,917000	0,5	1,598900
20,925333	0,5	1,591400
20,933667	0,5	1,572400
20,942000	0,5	1,575650
20,950333	0,5	1,587800
20,958667	0,5	1,596800
20,967000	0,5	1,607200
20,975333	0,5	1,616500
20,983667	0,5	1,634750
20,992000	0,5	1,641450
21,000333	0,5	1,656600
21,008667	0,5	1,668150
21,017000	0,5	1,677750
21,025333	0,5	1,705200
21,033667	0,5	1,718500
21,042000	0,5	1,721100
21,050333	0,5	1,728200
21,058667	0,5	1,731350
21,067000	0,5	1,738750
21,075333	0,5	1,734000
21,083667	0,5	1,737900
21,092000	0,5	1,756100
21,100333	0,5	1,773050
21,108667	0,5	1,785950
21,117000	0,5	1,808050
21,125333	0,5	1,831450
21,133667	0,5	1,848200
21,142000	0,5	1,881650
21,150333	0,5	1,908850
21,158667	0,5	1,941000
21,167000	0,5	1,987700
21,175333	0,5	2,029400
21,183667	0,5	2,052400
21,192000	0,5	2,055900
21,200333	0,5	2,048600
21,208667	0,5	2,035550
21,217000	0,5	2,017700
21,225333	0,5	1,996700
21,233667	0,5	2,000500
21,242000	0,5	2,013650
21,250333	0,5	2,028650
21,258667	0,5	2,047900
21,267000	0,5	2,067200
21,275333	0,5	2,081500
21,283667	0,5	2,099150
21,292000	0,5	2,103950
21,300333	0,5	2,115850
21,308667	0,5	2,122000
21,317000	0,5	2,144950
21,325333	0,5	2,168450
21,333667	0,5	2,158500
21,342000	0,5	2,154700
21,350333	0,5	2,155950
21,358667	0,5	2,158350
21,367000	0,5	2,160650
21,375333	0,5	2,165900
21,383667	0,5	2,189550
21,392000	0,5	2,206050
21,400333	0,5	2,224150
21,408667	0,5	2,237550
21,417000	0,5	2,256550
21,425333	0,5	2,270150
21,433667	0,5	2,278150
21,442000	0,5	2,297850
21,450333	0,5	2,309000
21,458667	0,5	2,335050
21,467000	0,5	2,366900
21,475333	0,5	2,387450
21,483667	0,5	2,399200
21,492000	0,5	2,415700
21,500333	0,5	2,435550
21,508667	0,5	2,449450
21,517000	0,5	2,459700
21,525333	0,5	2,481250
21,533667	0,5	2,510250
21,542000	0,5	2,527250
21,550333	0,5	2,548950
21,558667	0,5	2,559600
21,567000	0,5	2,571950
21,575333	0,5	2,576400
21,583667	0,5	2,590800
21,592000	0,5	2,602100
21,600333	0,5	2,620550
21,608667	0,5	2,654250
21,617000	0,5	2,683350
21,625333	0,5	2,697700
21,633667	0,5	2,726100
21,642000	0,5	2,730500
21,650333	0,5	2,750850
21,658667	0,5	2,759550
21,667000	0,5	2,765850
21,675333	0,5	2,788950
21,683667	0,5	2,804150
21,692000	0,5	2,825150
21,700333	0,5	2,837400
21,708667	0,5	2,858750
21,717000	0,5	2,875500
21,725333	0,5	2,900600
21,733667	0,5	2,921700
21,742000	0,5	2,955050
21,750333	0,5	2,985000
21,758667	0,5	3,024750
21,767000	0,5	3,049450
21,775333	0,5	3,072650
21,783667	0,5	3,088450
21,792000	0,5	3,108100
21,800333	0,5	3,120850
21,808667	0,5	3,132550
21,817000	0,5	3,144950
21,825333	0,5	3,166800
21,833667	0,5	3,188250
21,842000	0,5	3,202950
21,850333	0,5	3,220300
21,858667	0,5	3,234850
21,867000	0,5	3,260050
21,875333	0,5	3,280900
21,883667	0,5	3,311550
21,892000	0,5	3,338800
21,900333	0,5	3,382850
21,908667	0,5	3,413900
21,917000	0,5	3,438200
21,925333	0,5	3,472450
21,933667	0,5	3,508700
21,942000	0,5	3,537500
21,950333	0,5	3,569350
21,958667	0,5	3,601000
21,967000	0,5	3,644600
21,975333	0,5	3,685850
21,983667	0,5	3,728000
21,992000	0,5	3,768500
22,000333	0,5	3,818750
22,008667	0,5	3,861800
22,017000	0,5	3,892500
22,025333	0,5	3,916950
22,033667	0,5	3,918500
22,042000	0,5	3,924200
22,050333	0,5	3,936750
22,058667	0,5	3,936500
22,067000	0,5	3,959550
22,075333	0,5	3,987650
22,083667	0,5	4,009950
22,092000	0,5	4,030350
22,100333	0,5	4,047800
22,108667	0,5	4,075100
22,117000	0,5	4,110800
22,125333	0,5	4,140250
22,133667	0,5	4,171700
22,142000	0,5	4,208700
22,150333	0,5	4,243500
22,158667	0,5	4,279600
22,167000	0,5	4,322350
22,175333	0,5	4,363750
22,183667	0,5	4,411950
22,192000	0,5	4,447800
22,200333	0,5	4,494200
22,208667	0,5	4,524350
22,217000	0,5	4,579200
22,225333	0,5	4,616350
22,233667	0,5	4,652600
22,242000	0,5	4,683500
22,250333	0,5	4,713700
22,258667	0,5	4,769650
22,267000	0,5	4,815700
22,275333	0,5	4,862050
22,283667	0,5	4,907500
22,292000	0,5	4,959000
22,300333	0,5	5,005450
22,308667	0,5	5,072800
22,317000	0,5	5,128650
22,325333	0,5	5,192600
22,333667	0,5	5,254150
22,342000	0,5	5,329200
22,350333	0,5	5,411350
22,358667	0,5	5,523850
22,367000	0,5	5,624500
22,375333	0,5	5,719100
22,383667	0,5	5,788350
22,392000	0,5	5,842450
22,400333	0,5	5,890400
22,408667	0,5	5,940450
22,417000	0,5	5,980650
22,425333	0,5	6,023650
22,433667	0,5	6,060550
22,442000	0,5	6,098500
22,450333	0,5	6,144800
22,458667	0,5	6,194000
22,467000	0,5	6,241000
22,475333	0,5	6,288200
22,483667	0,5	6,319900
22,492000	0,5	6,372850
22,500333	0,5	6,432400
22,508667	0,5	6,500050
22,517000	0,5	6,555000
22,525333	0,5	6,602300
22,533667	0,5	6,641000
22,542000	0,5	6,669450
22,550333	0,5	6,708150
22,558667	0,5	6,749250
22,567000	0,5	6,774400
22,575333	0,5	6,799000
22,583667	0,5	6,812750
22,592000	0,5	6,815200
22,600333	0,5	6,812000
22,608667	0,5	6,809150
22,617000	0,5	6,790950
22,625333	0,5	6,761950
22,633667	0,5	6,693450
22,642000	0,5	6,669000
22,650333	0,5	6,632550
22,658667	0,5	6,580850
22,667000	0,5	6,508600
22,675333	0,5	6,430400
22,683667	0,5	6,331300
22,692000	0,5	6,230050
22,700333	0,5	6,141250
22,708667	0,5	6,042300
22,717000	0,5	5,931500
22,725333	0,5	5,815300
22,733667	0,5	5,695200
22,742000	0,5	5,576150
22,750333	0,5	5,452900
22,758667	0,5	5,317800
22,767000	0,5	5,182750
22,775333	0,5	5,009050
22,783667	0,5	4,854750
22,792000	0,5	4,703350
22,800333	0,5	4,562100
22,808667	0,5	4,392000
22,817000	0,5	4,222450
22,825333	0,5	4,047900
22,833667	0,5	3,875500
22,842000	0,5	3,699250
22,850333	0,5	3,527550
22,858667	0,5	3,357950
22,867000	0,5	3,194400
22,875333	0,5	3,032900
22,883667	0,5	2,875450
22,892000	0,5	2,711550
22,900333	0,5	2,559400
22,908667	0,5	2,408550
22,917000	0,5	2,265250
22,925333	0,5	2,123850
22,933667	0,5	1,985300
22,942000	0,5	1,832350
22,950333	0,5	1,676900
22,958667	0,5	1,543200
22,967000	0,5	1,429250
22,975333	0,5	1,316200
22,983667	0,5	1,194300
22,992000	0,5	1,071300
23,000333	0,5	0,968900
23,008667	0,5	0,861300
23,017000	0,5	0,764950
23,025333	0,5	0,669300
23,033667	0,5	0,575600
23,042000	0,5	0,487850
23,050333	0,5	0,394750
23,058667	0,5	0,314550
23,067000	0,5	0,256450
23,075333	0,5	0,161200
23,083667	0,5	0,094350
23,092000	0,5	-0,008700
23,100333	0,5	-0,096800
23,108667	0,5	-0,159900
23,117000	0,5	-0,223350
23,125333	0,5	-0,271200
23,133667	0,5	-0,334450
23,142000	0,5	-0,394450
23,150333	0,5	-0,444550
23,158667	0,5	-0,488550
23,167000	0,5	-0,539150
23,175333	0,5	-0,579400
23,183667	0,5	-0,627650
23,192000	0,5	-0,667950
23,200333	0,5	-0,707100
23,208667	0,5	-0,745900
23,217000	0,5	-0,788650
23,225333	0,5	-0,807550
23,233667	0,5	-0,838100
23,242000	0,5	-0,902650
23,250333	0,5	-0,938200
23,258667	0,5	-0,973150
23,267000	0,5	-0,992500
23,275333	0,5	-1,017950
23,283667	0,5	-1,043350
23,292000	0,5	-1,070950
23,300333	0,5	-1,091000
23,308667	0,5	-1,112800
23,317000	0,5	-1,126350
23,325333	0,5	-1,146550
23,333667	0,5	-1,157900
23,342000	0,5	-1,177900
23,350333	0,5	-1,191700
23,358667	0,5	-1,196100
23,367000	0,5	-1,257950
23,375333	0,5	-1,244850
23,383667	0,5	-1,222200
23,392000	0,5	-1,249400
23,400333	0,5	-1,273400
23,408667	0,5	-1,286650
23,417000	0,5	-1,294900
23,425333	0,5	-1,303900
23,433667	0,5	-1,318600
23,442000	0,5	-1,328450
23,450333	0,5	-1,339100
23,458667	0,5	-1,339250
23,467000	0,5	-1,346600
23,475333	0,5	-1,349300
23,483667	0,5	-1,355250
23,492000	0,5	-1,358600
23,500333	0,5	-1,358950
23,508667	0,5	-1,404400
23,517000	0,5	-1,421900
23,525333	0,5	-1,401600
23,533667	0,5	-1,356250
23,542000	0,5	-1,362600
23,550333	0,5	-1,369650
23,558667	0,5	-1,375200
23,567000	0,5	-1,380500
23,575333	0,5	-1,377800
23,583667	0,5	-1,381050
23,592000	0,5	-1,378900
23,600333	0,5	-1,379300
23,608667	0,5	-1,376850
23,617000	0,5	-1,375950
23,625333	0,5	-1,376000
23,633667	0,5	-1,371800
23,642000	0,5	-1,369550
23,650333	0,5	-1,373450
23,658667	0,5	-1,483950
23,667000	0,5	-1,431100
23,675333	0,5	-1,407400
23,683667	0,5	-1,361050
23,692000	0,5	-1,349300
23,700333	0,5	-1,350850
23,708667	0,5	-1,348050
23,717000	0,5	-1,349450
23,725333	0,5	-1,339200
23,733667	0,5	-1,328500
23,742000	0,5	-1,321900
23,750333	0,5	-1,317250
23,758667	0,5	-1,311700
23,767000	0,5	-1,300150
23,775333	0,5	-1,292900
23,783667	0,5	-1,281350
23,792000	0,5	-1,279650
23,800333	0,5	-1,315800
23,808667	0,5	-1,370300
23,817000	0,5	-1,322300
23,825333	0,5	-1,287100
23,833667	0,5	-1,246800
23,842000	0,5	-1,245600
23,850333	0,5	-1,239750
23,858667	0,5	-1,239500
23,867000	0,5	-1,239900
23,875333	0,5	-1,220300
23,883667	0,5	-1,213500
23,892000	0,5	-1,201450
23,900333	0,5	-1,193050
23,908667	0,5	-1,177700
23,917000	0,5	-1,168250
23,925333	0,5	-1,152550
23,933667	0,5	-1,143150
23,942000	0,5	-1,136500
23,950333	0,5	-1,227250
23,958667	0,5	-1,194500
23,967000	0,5	-1,164750
23,975333	0,5	-1,114150
23,983667	0,5	-1,090100
23,992000	0,5	-1,073400
24,000333	0,5	-1,071700
24,008667	0,5	-1,070550
24,017000	0,5	-1,062500
24,025333	0,5	-1,051000
24,033667	0,5	-1,036650
24,042000	0,5	-1,033250
24,050333	0,5	-1,022850
24,058667	0,5	-1,007800
24,067000	0,5	-0,994700
24,075333	0,5	-0,985850
24,083667	0,5	-0,973450
24,092000	0,5	-0,972300
24,100333	0,5	-1,047850
24,108667	0,5	-1,016850
24,117000	0,5	-0,975500
24,125333	0,5	-0,941850
24,133667	0,5	-0,919300
24,142000	0,5	-0,911600
24,150333	0,5	-0,903500
24,158667	0,5	-0,904100
24,167000	0,5	-0,894450
24,175333	0,5	-0,880400
24,183667	0,5	-0,865150
24,192000	0,5	-0,856500
24,200333	0,5	-0,845050
24,208667	0,5	-0,835300
24,217000	0,5	-0,820150
24,225333	0,5	-0,809300
24,233667	0,5	-0,806750
24,242000	0,5	-0,828150
24,250333	0,5	-0,860750
24,258667	0,5	-0,830500
24,267000	0,5	-0,798650
24,275333	0,5	-0,769700
24,283667	0,5	-0,756650
24,292000	0,5	-0,750900
24,300333	0,5	-0,757700
24,308667	0,5	-0,746550
24,317000	0,5	-0,737250
24,325333	0,5	-0,725600
24,333667	0,5	-0,724400
24,342000	0,5	-0,709750
24,350333	0,5	-0,699200
24,358667	0,5	-0,693000
24,367000	0,5	-0,679050
24,375333	0,5	-0,672650
24,383667	0,5	-0,664150
24,392000	0,5	-0,713750
24,400333	0,5	-0,688350
24,408667	0,5	-0,686800
24,417000	0,5	-0,654550
24,425333	0,5	-0,641850
24,433667	0,5	-0,633550
24,442000	0,5	-0,629300
24,450333	0,5	-0,633500
24,458667	0,5	-0,625150
24,467000	0,5	-0,612750
24,475333	0,5	-0,608300
24,483667	0,5	-0,600500
24,492000	0,5	-0,599650
24,500333	0,5	-0,588150
24,508667	0,5	-0,582400
24,517000	0,5	-0,569900
24,525333	0,5	-0,565850
24,533667	0,5	-0,568550
24,542000	0,5	-0,598750
24,550333	0,5	-0,576950
24,558667	0,5	-0,568500
24,567000	0,5	-0,544150
24,575333	0,5	-0,535100
24,583667	0,5	-0,529500
24,592000	0,5	-0,531700
24,600333	0,5	-0,539250
24,608667	0,5	-0,525300
24,617000	0,5	-0,525700
24,625333	0,5	-0,518100
24,633667	0,5	-0,514150
24,642000	0,5	-0,508500
24,650333	0,5	-0,505100
24,658667	0,5	-0,497050
24,667000	0,5	-0,492900
24,675333	0,5	-0,488550
24,683667	0,5	-0,502250
24,692000	0,5	-0,512200
24,700333	0,5	-0,495300
24,708667	0,5	-0,484850
24,717000	0,5	-0,470700
24,725333	0,5	-0,467400
24,733667	0,5	-0,459100
24,742000	0,5	-0,463300
24,750333	0,5	-0,461300
24,758667	0,5	-0,458050
24,767000	0,5	-0,451350
24,775333	0,5	-0,447800
24,783667	0,5	-0,440150
24,792000	0,5	-0,439800
24,800333	0,5	-0,433500
24,808667	0,5	-0,432000
24,817000	0,5	-0,430600
24,825333	0,5	-0,427200
24,833667	0,5	-0,442200
24,842000	0,5	-0,435350
24,850333	0,5	-0,427750
24,858667	0,5	-0,420750
24,867000	0,5	-0,411400
24,875333	0,5	-0,409150
24,883667	0,5	-0,405800
24,892000	0,5	-0,407950
24,900333	0,5	-0,408050
24,908667	0,5	-0,401800
24,917000	0,5	-0,400500
24,925333	0,5	-0,394150
24,933667	0,5	-0,394600
24,942000	0,5	-0,388150
24,950333	0,5	-0,385550
24,958667	0,5	-0,381100
24,967000	0,5	-0,378700
24,975333	0,5	-0,377000
24,983667	0,5	-0,386350
24,992000	0,5	-0,380800
25,000333	0,5	-0,377000
25,008667	0,5	-0,370200
25,017000	0,5	-0,367400
25,025333	0,5	-0,364700
25,033667	0,5	-0,365750
25,042000	0,5	-0,364950
25,050333	0,5	-0,364500
25,058667	0,5	-0,358550
25,067000	0,5	-0,354850
25,075333	0,5	-0,352950
25,083667	0,5	-0,349650
25,092000	0,5	-0,347300
25,100333	0,5	-0,346250
25,108667	0,5	-0,344350
25,117000	0,5	-0,343600
25,125333	0,5	-0,342550
25,133667	0,5	-0,340400
25,142000	0,5	-0,339300
25,150333	0,5	-0,335500
25,158667	0,5	-0,336050
25,167000	0,5	-0,333350
25,175333	0,5	-0,331500
25,183667	0,5	-0,332150
25,192000	0,5	-0,335700
25,200333	0,5	-0,329450
25,208667	0,5	-0,329950
25,217000	0,5	-0,327400
25,225333	0,5	-0,323850
25,233667	0,5	-0,326150
25,242000	0,5	-0,321600
25,250333	0,5	-0,320500
25,258667	0,5	-0,318450
25,267000	0,5	-0,318350
25,275333	0,5	-0,316050
25,283667	0,5	-0,313900
25,292000	0,5	-0,311200
25,300333	0,5	-0,310150
25,308667	0,5	-0,309800
25,317000	0,5	-0,310100
25,325333	0,5	-0,308650
25,333667	0,5	-0,307800
25,342000	0,5	-0,305750
25,350333	0,5	-0,305100
25,358667	0,5	-0,304750
25,367000	0,5	-0,306150
25,375333	0,5	-0,305200
25,383667	0,5	-0,304400
25,392000	0,5	-0,303050
25,400333	0,5	-0,300300
25,408667	0,5	-0,299350
25,417000	0,5	-0,298850
25,425333	0,5	-0,295350
25,433667	0,5	-0,293550
25,442000	0,5	-0,290300
25,450333	0,5	-0,293500
25,458667	0,5	-0,292100
25,467000	0,5	-0,290750
25,475333	0,5	-0,292800
25,483667	0,5	-0,286550
25,492000	0,5	-0,284550
25,500333	0,5	-0,288050
25,508667	0,5	-0,284550
25,517000	0,5	-0,283550
25,525333	0,5	-0,284200
25,533667	0,5	-0,282750
25,542000	0,5	-0,283300
25,550333	0,5	-0,283500
25,558667	0,5	-0,283050
25,567000	0,5	-0,281500
25,575333	0,5	-0,280600
25,583667	0,5	-0,274800
25,592000	0,5	-0,272500
25,600333	0,5	-0,275250
25,608667	0,5	-0,276400
25,617000	0,5	-0,276000
25,625333	0,5	-0,271100
25,633667	0,5	-0,270450
25,642000	0,5	-0,269250
25,650333	0,5	-0,267650
25,658667	0,5	-0,265700
25,667000	0,5	-0,265550
25,675333	0,5	-0,266200
25,683667	0,5	-0,264600
25,692000	0,5	-0,264750
25,700333	0,5	-0,262850
25,708667	0,5	-0,263400
25,717000	0,5	-0,257700
25,725333	0,5	-0,259950
25,733667	0,5	-0,254600
25,742000	0,5	-0,259500
25,750333	0,5	-0,259500
25,758667	0,5	-0,258600
25,767000	0,5	-0,257100
25,775333	0,5	-0,253300
25,783667	0,5	-0,249650
25,792000	0,5	-0,250850
25,800333	0,5	-0,250850
25,808667	0,5	-0,245850
25,817000	0,5	-0,247050
25,825333	0,5	-0,245150
25,833667	0,5	-0,245100
25,842000	0,5	-0,244950
25,850333	0,5	-0,244200
25,858667	0,5	-0,241100
25,867000	0,5	-0,236550
25,875333	0,5	-0,237900
25,883667	0,5	-0,232000
25,892000	0,5	-0,241500
25,900333	0,5	-0,239050
25,908667	0,5	-0,241850
25,917000	0,5	-0,235550
25,925333	0,5	-0,227450
25,933667	0,5	-0,227500
25,942000	0,5	-0,226900
25,950333	0,5	-0,226400
25,958667	0,5	-0,223050
25,967000	0,5	-0,220900
25,975333	0,5	-0,221950
25,983667	0,5	-0,219400
25,992000	0,5	-0,219650
26,000333	0,5	-0,218550
