File Path	chrom://chromeleon01/ikbm_chromeleon/2022/ICS-5000/ED1/Esteban/20220612_Cell_7_4_eg.seq/200.smp/ED_1.channel/ED_1.chm
Channel	ED_1

Injection Information:
Data Vault	ikbm_chromeleon
Injection	7_24h-EGI_3
Injection Number	58
Position	GA6
Comment	
Processing Method	Stop sequence after Cell Death
Instrument Method	ICS5000_PA200_FullNative_Ox_26min_ED1
Type	Unknown
Status	Finished
Injection Date	13.06.2022
Injection Time	19:11:22
Injection Volume (µl)	5,0
Dilution Factor	1,0000
Weight	1,0000

Chromatogram Data Information:
Time Min. (min)	0,000333
Time Max. (min)	26,000333
Data Points	3121
Detector	EDet1
Generating Data System	Chromeleon 7.2.9.11323
Exporting Data System	Chromeleon 7.2.9.0
Operator	Instrument Controller
Signal Quantity	
Signal Unit	nC
Signal Min.	-2,050550
Signal Max.	1 780,320827
Channel	ED_1
Driver Name	DC-5000
Channel Type	Evaluation
Min. Step (s)	0,5
Max. Step (s)	0,5
Average Step (s)	0,5

Signal Parameter Information:
Signal Info	

Chromatogram Data:
Time (min)	Step (s)	Value (nC)
0,000333	n.a.	-0,022850
0,008667	0,5	-0,032150
0,017000	0,5	-0,028100
0,025333	0,5	-0,013050
0,033667	0,5	-0,010100
0,042000	0,5	-0,002850
0,050333	0,5	-0,003700
0,058667	0,5	-0,007200
0,067000	0,5	-0,004650
0,075333	0,5	-0,004650
0,083667	0,5	0,005800
0,092000	0,5	-0,009950
0,100333	0,5	-0,000900
0,108667	0,5	0,002550
0,117000	0,5	-0,020200
0,125333	0,5	-0,021400
0,133667	0,5	-0,007650
0,142000	0,5	0,003600
0,150333	0,5	0,026400
0,158667	0,5	0,006700
0,167000	0,5	0,011950
0,175333	0,5	0,001750
0,183667	0,5	0,012350
0,192000	0,5	0,008100
0,200333	0,5	0,010750
0,208667	0,5	0,000800
0,217000	0,5	-0,001650
0,225333	0,5	0,001600
0,233667	0,5	-0,010750
0,242000	0,5	-0,019000
0,250333	0,5	-0,005650
0,258667	0,5	-0,014800
0,267000	0,5	-0,026350
0,275333	0,5	-0,023950
0,283667	0,5	-0,011350
0,292000	0,5	0,032900
0,300333	0,5	0,056700
0,308667	0,5	0,050850
0,317000	0,5	0,014150
0,325333	0,5	-0,005250
0,333667	0,5	-0,019350
0,342000	0,5	-0,017300
0,350333	0,5	-0,019250
0,358667	0,5	-0,020050
0,367000	0,5	-0,018100
0,375333	0,5	-0,016700
0,383667	0,5	-0,024050
0,392000	0,5	-0,021200
0,400333	0,5	-0,017300
0,408667	0,5	-0,033850
0,417000	0,5	-0,041950
0,425333	0,5	-0,037850
0,433667	0,5	-0,026000
0,442000	0,5	-0,005550
0,450333	0,5	0,002950
0,458667	0,5	-0,010600
0,467000	0,5	-0,010300
0,475333	0,5	-0,016500
0,483667	0,5	-0,006650
0,492000	0,5	-0,015500
0,500333	0,5	-0,014050
0,508667	0,5	-0,022050
0,517000	0,5	-0,017800
0,525333	0,5	-0,022100
0,533667	0,5	-0,021750
0,542000	0,5	-0,021300
0,550333	0,5	-0,014400
0,558667	0,5	-0,033000
0,567000	0,5	-0,031600
0,575333	0,5	-0,029500
0,583667	0,5	-0,004650
0,592000	0,5	0,003850
0,600333	0,5	-0,000250
0,608667	0,5	0,001150
0,617000	0,5	-0,000300
0,625333	0,5	-0,002000
0,633667	0,5	-0,004950
0,642000	0,5	-0,005550
0,650333	0,5	-0,012400
0,658667	0,5	-0,009350
0,667000	0,5	-0,008550
0,675333	0,5	-0,010550
0,683667	0,5	-0,021650
0,692000	0,5	0,005500
0,700333	0,5	-0,012000
0,708667	0,5	-0,021250
0,717000	0,5	-0,025000
0,725333	0,5	-0,019350
0,733667	0,5	0,000450
0,742000	0,5	0,008000
0,750333	0,5	0,003750
0,758667	0,5	0,009300
0,767000	0,5	0,007050
0,775333	0,5	0,011300
0,783667	0,5	0,008300
0,792000	0,5	0,004800
0,800333	0,5	0,004650
0,808667	0,5	0,002700
0,817000	0,5	0,006100
0,825333	0,5	-0,003200
0,833667	0,5	-0,001950
0,842000	0,5	0,018050
0,850333	0,5	0,000050
0,858667	0,5	-0,009450
0,867000	0,5	-0,000200
0,875333	0,5	0,007300
0,883667	0,5	0,035500
0,892000	0,5	0,022850
0,900333	0,5	0,023350
0,908667	0,5	0,016950
0,917000	0,5	0,027750
0,925333	0,5	0,020600
0,933667	0,5	0,021400
0,942000	0,5	0,019000
0,950333	0,5	0,014900
0,958667	0,5	0,016200
0,967000	0,5	0,025500
0,975333	0,5	0,032250
0,983667	0,5	0,022700
0,992000	0,5	0,039100
1,000333	0,5	0,015500
1,008667	0,5	0,015350
1,017000	0,5	0,013750
1,025333	0,5	0,024000
1,033667	0,5	0,042200
1,042000	0,5	0,040100
1,050333	0,5	0,028650
1,058667	0,5	0,042550
1,067000	0,5	0,041800
1,075333	0,5	0,046350
1,083667	0,5	0,039250
1,092000	0,5	0,039450
1,100333	0,5	0,036850
1,108667	0,5	0,038800
1,117000	0,5	0,046150
1,125333	0,5	0,037250
1,133667	0,5	0,042700
1,142000	0,5	0,049750
1,150333	0,5	0,028600
1,158667	0,5	0,032500
1,167000	0,5	0,041800
1,175333	0,5	0,056900
1,183667	0,5	0,070000
1,192000	0,5	0,054650
1,200333	0,5	0,060450
1,208667	0,5	0,054000
1,217000	0,5	0,062550
1,225333	0,5	0,055750
1,233667	0,5	0,058350
1,242000	0,5	0,053150
1,250333	0,5	0,054600
1,258667	0,5	0,059750
1,267000	0,5	0,054350
1,275333	0,5	0,043850
1,283667	0,5	0,062150
1,292000	0,5	0,047050
1,300333	0,5	0,038800
1,308667	0,5	0,036250
1,317000	0,5	0,045950
1,325333	0,5	0,061800
1,333667	0,5	0,068750
1,342000	0,5	0,068750
1,350333	0,5	0,063800
1,358667	0,5	0,067600
1,367000	0,5	0,059150
1,375333	0,5	0,057650
1,383667	0,5	0,049350
1,392000	0,5	0,047050
1,400333	0,5	0,040600
1,408667	0,5	0,045800
1,417000	0,5	0,037900
1,425333	0,5	0,042000
1,433667	0,5	0,036850
1,442000	0,5	0,022350
1,450333	0,5	0,014100
1,458667	0,5	0,018100
1,467000	0,5	0,022600
1,475333	0,5	0,035000
1,483667	0,5	0,039750
1,492000	0,5	0,032900
1,500333	0,5	0,022750
1,508667	0,5	0,015150
1,517000	0,5	0,007400
1,525333	0,5	0,004050
1,533667	0,5	-0,000350
1,542000	0,5	-0,008700
1,550333	0,5	0,005350
1,558667	0,5	0,029100
1,567000	0,5	0,116900
1,575333	0,5	0,304450
1,583667	0,5	1,298800
1,592000	0,5	7,593300
1,600333	0,5	35,077251
1,608667	0,5	130,478202
1,617000	0,5	394,091956
1,625333	0,5	876,023363
1,633667	0,5	1 386,871321
1,642000	0,5	1 634,674774
1,650333	0,5	1 559,465973
1,658667	0,5	1 248,890569
1,667000	0,5	875,710663
1,675333	0,5	591,604509
1,683667	0,5	411,596256
1,692000	0,5	303,911255
1,700333	0,5	240,044504
1,708667	0,5	207,536903
1,717000	0,5	187,414253
1,725333	0,5	165,482052
1,733667	0,5	139,411152
1,742000	0,5	114,697652
1,750333	0,5	95,895601
1,758667	0,5	84,516551
1,767000	0,5	79,991101
1,775333	0,5	80,196451
1,783667	0,5	82,596251
1,792000	0,5	85,332851
1,800333	0,5	86,757701
1,808667	0,5	85,341551
1,817000	0,5	80,864051
1,825333	0,5	74,833901
1,833667	0,5	68,769601
1,842000	0,5	63,406051
1,850333	0,5	58,995551
1,858667	0,5	55,686451
1,867000	0,5	53,734701
1,875333	0,5	53,652501
1,883667	0,5	55,659351
1,892000	0,5	58,281751
1,900333	0,5	58,569151
1,908667	0,5	56,647101
1,917000	0,5	57,255001
1,925333	0,5	67,325651
1,933667	0,5	98,918301
1,942000	0,5	179,665703
1,950333	0,5	341,574155
1,958667	0,5	538,791408
1,967000	0,5	632,017059
1,975333	0,5	564,225008
1,983667	0,5	417,746106
1,992000	0,5	285,731804
2,000333	0,5	197,165353
2,008667	0,5	143,909702
2,017000	0,5	114,642402
2,025333	0,5	103,634002
2,033667	0,5	105,442102
2,042000	0,5	108,249352
2,050333	0,5	102,057452
2,058667	0,5	88,533751
2,067000	0,5	74,525801
2,075333	0,5	63,416251
2,083667	0,5	55,355951
2,092000	0,5	49,923401
2,100333	0,5	46,510701
2,108667	0,5	44,412251
2,117000	0,5	43,085701
2,125333	0,5	41,818601
2,133667	0,5	40,010801
2,142000	0,5	38,034351
2,150333	0,5	36,349651
2,158667	0,5	34,771401
2,167000	0,5	33,092900
2,175333	0,5	31,516550
2,183667	0,5	30,249250
2,192000	0,5	29,332800
2,200333	0,5	28,658050
2,208667	0,5	28,223700
2,217000	0,5	27,993300
2,225333	0,5	27,776800
2,233667	0,5	27,464950
2,242000	0,5	27,113400
2,250333	0,5	26,896800
2,258667	0,5	26,801750
2,267000	0,5	26,883500
2,275333	0,5	27,828550
2,283667	0,5	31,981250
2,292000	0,5	36,624201
2,300333	0,5	36,075801
2,308667	0,5	32,725050
2,317000	0,5	30,437100
2,325333	0,5	29,273300
2,333667	0,5	28,752350
2,342000	0,5	28,705350
2,350333	0,5	29,196350
2,358667	0,5	30,413000
2,367000	0,5	32,566600
2,375333	0,5	35,663701
2,383667	0,5	39,251151
2,392000	0,5	42,572851
2,400333	0,5	45,116151
2,408667	0,5	46,955651
2,417000	0,5	48,561451
2,425333	0,5	50,097151
2,433667	0,5	51,102351
2,442000	0,5	51,394201
2,450333	0,5	52,408301
2,458667	0,5	58,157701
2,467000	0,5	72,964201
2,475333	0,5	98,385801
2,483667	0,5	136,428552
2,492000	0,5	202,866803
2,500333	0,5	373,331856
2,508667	0,5	797,815362
2,517000	0,5	1 343,372970
2,525333	0,5	1 689,436725
2,533667	0,5	1 780,320827
2,542000	0,5	1 687,947925
2,550333	0,5	1 488,601172
2,558667	0,5	1 247,286519
2,567000	0,5	1 019,238965
2,575333	0,5	823,081362
2,583667	0,5	663,864410
2,592000	0,5	538,442658
2,600333	0,5	439,898507
2,608667	0,5	359,491005
2,617000	0,5	298,761704
2,625333	0,5	257,349754
2,633667	0,5	233,789203
2,642000	0,5	222,536053
2,650333	0,5	214,788453
2,658667	0,5	202,449103
2,667000	0,5	182,666303
2,675333	0,5	157,911102
2,683667	0,5	132,851202
2,692000	0,5	110,991052
2,700333	0,5	93,751801
2,708667	0,5	80,909951
2,717000	0,5	71,560351
2,725333	0,5	64,668251
2,733667	0,5	59,410301
2,742000	0,5	55,180701
2,750333	0,5	51,612201
2,758667	0,5	48,571501
2,767000	0,5	45,929101
2,775333	0,5	43,738451
2,783667	0,5	41,987551
2,792000	0,5	40,579701
2,800333	0,5	39,318301
2,808667	0,5	37,928551
2,817000	0,5	36,257051
2,825333	0,5	34,367301
2,833667	0,5	32,392950
2,842000	0,5	30,544000
2,850333	0,5	28,913100
2,858667	0,5	27,545700
2,867000	0,5	26,426800
2,875333	0,5	25,556600
2,883667	0,5	24,963750
2,892000	0,5	24,770100
2,900333	0,5	25,230900
2,908667	0,5	26,646750
2,917000	0,5	28,923500
2,925333	0,5	31,483600
2,933667	0,5	33,197050
2,942000	0,5	33,244800
2,950333	0,5	31,584850
2,958667	0,5	28,755250
2,967000	0,5	25,599800
2,975333	0,5	22,768750
2,983667	0,5	20,592850
2,992000	0,5	19,040200
3,000333	0,5	17,970550
3,008667	0,5	17,207750
3,017000	0,5	16,626650
3,025333	0,5	16,142550
3,033667	0,5	15,726550
3,042000	0,5	15,336350
3,050333	0,5	15,001750
3,058667	0,5	14,712650
3,067000	0,5	14,435300
3,075333	0,5	14,175400
3,083667	0,5	13,904350
3,092000	0,5	13,611650
3,100333	0,5	13,306150
3,108667	0,5	12,977700
3,117000	0,5	12,659650
3,125333	0,5	12,371350
3,133667	0,5	12,110550
3,142000	0,5	11,872700
3,150333	0,5	11,652100
3,158667	0,5	11,456500
3,167000	0,5	11,290700
3,175333	0,5	11,187400
3,183667	0,5	11,132700
3,192000	0,5	11,154550
3,200333	0,5	11,222300
3,208667	0,5	11,303600
3,217000	0,5	11,320700
3,225333	0,5	11,281400
3,233667	0,5	11,147650
3,242000	0,5	10,941450
3,250333	0,5	10,682850
3,258667	0,5	10,392550
3,267000	0,5	10,109350
3,275333	0,5	9,862550
3,283667	0,5	9,651200
3,292000	0,5	9,483350
3,300333	0,5	9,352400
3,308667	0,5	9,261100
3,317000	0,5	9,215300
3,325333	0,5	9,215050
3,333667	0,5	9,277750
3,342000	0,5	9,389000
3,350333	0,5	9,580300
3,358667	0,5	9,816300
3,367000	0,5	10,077250
3,375333	0,5	10,333350
3,383667	0,5	10,546200
3,392000	0,5	10,696200
3,400333	0,5	10,771900
3,408667	0,5	10,760600
3,417000	0,5	10,701050
3,425333	0,5	10,593700
3,433667	0,5	10,461800
3,442000	0,5	10,295100
3,450333	0,5	10,105700
3,458667	0,5	9,903700
3,467000	0,5	9,692400
3,475333	0,5	9,475900
3,483667	0,5	9,249550
3,492000	0,5	9,043000
3,500333	0,5	8,851100
3,508667	0,5	8,643150
3,517000	0,5	8,452100
3,525333	0,5	8,278350
3,533667	0,5	8,120400
3,542000	0,5	7,980500
3,550333	0,5	7,837050
3,558667	0,5	7,706500
3,567000	0,5	7,572900
3,575333	0,5	7,464600
3,583667	0,5	7,372200
3,592000	0,5	7,314050
3,600333	0,5	7,281700
3,608667	0,5	7,296800
3,617000	0,5	7,358350
3,625333	0,5	7,462150
3,633667	0,5	7,607100
3,642000	0,5	7,788000
3,650333	0,5	7,965250
3,658667	0,5	8,125250
3,667000	0,5	8,254950
3,675333	0,5	8,353950
3,683667	0,5	8,433100
3,692000	0,5	8,480150
3,700333	0,5	8,521800
3,708667	0,5	8,579250
3,717000	0,5	8,698400
3,725333	0,5	8,880700
3,733667	0,5	9,168850
3,742000	0,5	9,554100
3,750333	0,5	10,041750
3,758667	0,5	10,629900
3,767000	0,5	11,326800
3,775333	0,5	12,198150
3,783667	0,5	13,347900
3,792000	0,5	14,996650
3,800333	0,5	17,314800
3,808667	0,5	20,478400
3,817000	0,5	24,469450
3,825333	0,5	28,960500
3,833667	0,5	33,390900
3,842000	0,5	36,976151
3,850333	0,5	39,063451
3,858667	0,5	39,311301
3,867000	0,5	37,708451
3,875333	0,5	34,617901
3,883667	0,5	30,579450
3,892000	0,5	26,210900
3,900333	0,5	21,989150
3,908667	0,5	18,283550
3,917000	0,5	15,241850
3,925333	0,5	12,913350
3,933667	0,5	11,224500
3,942000	0,5	10,110100
3,950333	0,5	9,358500
3,958667	0,5	8,897250
3,967000	0,5	8,591100
3,975333	0,5	8,357900
3,983667	0,5	8,146700
3,992000	0,5	7,884100
4,000333	0,5	7,599650
4,008667	0,5	7,306800
4,017000	0,5	7,023100
4,025333	0,5	6,772850
4,033667	0,5	6,575300
4,042000	0,5	6,421350
4,050333	0,5	6,314150
4,058667	0,5	6,232550
4,067000	0,5	6,165400
4,075333	0,5	6,077850
4,083667	0,5	5,989750
4,092000	0,5	5,891600
4,100333	0,5	5,758250
4,108667	0,5	5,636650
4,117000	0,5	5,532150
4,125333	0,5	5,449500
4,133667	0,5	5,406050
4,142000	0,5	5,377000
4,150333	0,5	5,376850
4,158667	0,5	5,393650
4,167000	0,5	5,415150
4,175333	0,5	5,419750
4,183667	0,5	5,412600
4,192000	0,5	5,373850
4,200333	0,5	5,308900
4,208667	0,5	5,230100
4,217000	0,5	5,134600
4,225333	0,5	5,043500
4,233667	0,5	4,951900
4,242000	0,5	4,866700
4,250333	0,5	4,773300
4,258667	0,5	4,701800
4,267000	0,5	4,637900
4,275333	0,5	4,594800
4,283667	0,5	4,555650
4,292000	0,5	4,517600
4,300333	0,5	4,479900
4,308667	0,5	4,456750
4,317000	0,5	4,435050
4,325333	0,5	4,424850
4,333667	0,5	4,417800
4,342000	0,5	4,414700
4,350333	0,5	4,417500
4,358667	0,5	4,413150
4,367000	0,5	4,410400
4,375333	0,5	4,400600
4,383667	0,5	4,399300
4,392000	0,5	4,379200
4,400333	0,5	4,347300
4,408667	0,5	4,328650
4,417000	0,5	4,310150
4,425333	0,5	4,298350
4,433667	0,5	4,285300
4,442000	0,5	4,263300
4,450333	0,5	4,256850
4,458667	0,5	4,244900
4,467000	0,5	4,249600
4,475333	0,5	4,248200
4,483667	0,5	4,261100
4,492000	0,5	4,270400
4,500333	0,5	4,290600
4,508667	0,5	4,315150
4,517000	0,5	4,336700
4,525333	0,5	4,373950
4,533667	0,5	4,421350
4,542000	0,5	4,458350
4,550333	0,5	4,509300
4,558667	0,5	4,575700
4,567000	0,5	4,650650
4,575333	0,5	4,746200
4,583667	0,5	4,825550
4,592000	0,5	4,911000
4,600333	0,5	4,986450
4,608667	0,5	5,063500
4,617000	0,5	5,130400
4,625333	0,5	5,184750
4,633667	0,5	5,221150
4,642000	0,5	5,243550
4,650333	0,5	5,244050
4,658667	0,5	5,224300
4,667000	0,5	5,191150
4,675333	0,5	5,170300
4,683667	0,5	5,137300
4,692000	0,5	5,109250
4,700333	0,5	5,096050
4,708667	0,5	5,105450
4,717000	0,5	5,147650
4,725333	0,5	5,200400
4,733667	0,5	5,257850
4,742000	0,5	5,321650
4,750333	0,5	5,382900
4,758667	0,5	5,413700
4,767000	0,5	5,405550
4,775333	0,5	5,342850
4,783667	0,5	5,238800
4,792000	0,5	5,086800
4,800333	0,5	4,921300
4,808667	0,5	4,745500
4,817000	0,5	4,578950
4,825333	0,5	4,443800
4,833667	0,5	4,309700
4,842000	0,5	4,192450
4,850333	0,5	4,097250
4,858667	0,5	4,016900
4,867000	0,5	3,957550
4,875333	0,5	3,896050
4,883667	0,5	3,837050
4,892000	0,5	3,781650
4,900333	0,5	3,734200
4,908667	0,5	3,694300
4,917000	0,5	3,657800
4,925333	0,5	3,625900
4,933667	0,5	3,593600
4,942000	0,5	3,574400
4,950333	0,5	3,555150
4,958667	0,5	3,548500
4,967000	0,5	3,529900
4,975333	0,5	3,548150
4,983667	0,5	3,533550
4,992000	0,5	3,536400
5,000333	0,5	3,543250
5,008667	0,5	3,560000
5,017000	0,5	3,584300
5,025333	0,5	3,591550
5,033667	0,5	3,605700
5,042000	0,5	3,624100
5,050333	0,5	3,638300
5,058667	0,5	3,646250
5,067000	0,5	3,652850
5,075333	0,5	3,644250
5,083667	0,5	3,628350
5,092000	0,5	3,593300
5,100333	0,5	3,554350
5,108667	0,5	3,506900
5,117000	0,5	3,460550
5,125333	0,5	3,427450
5,133667	0,5	3,377300
5,142000	0,5	3,342900
5,150333	0,5	3,317800
5,158667	0,5	3,301050
5,167000	0,5	3,304800
5,175333	0,5	3,294150
5,183667	0,5	3,290500
5,192000	0,5	3,286050
5,200333	0,5	3,289350
5,208667	0,5	3,291500
5,217000	0,5	3,297500
5,225333	0,5	3,309100
5,233667	0,5	3,326350
5,242000	0,5	3,360400
5,250333	0,5	3,401500
5,258667	0,5	3,453100
5,267000	0,5	3,529900
5,275333	0,5	3,611200
5,283667	0,5	3,681650
5,292000	0,5	3,753300
5,300333	0,5	3,810350
5,308667	0,5	3,860600
5,317000	0,5	3,893900
5,325333	0,5	3,915050
5,333667	0,5	3,933300
5,342000	0,5	3,977950
5,350333	0,5	4,036150
5,358667	0,5	4,135900
5,367000	0,5	4,262650
5,375333	0,5	4,418700
5,383667	0,5	4,585200
5,392000	0,5	4,754750
5,400333	0,5	4,913550
5,408667	0,5	5,048600
5,417000	0,5	5,154100
5,425333	0,5	5,198600
5,433667	0,5	5,186600
5,442000	0,5	5,117100
5,450333	0,5	4,985300
5,458667	0,5	4,797350
5,467000	0,5	4,567450
5,475333	0,5	4,308900
5,483667	0,5	4,054000
5,492000	0,5	3,819550
5,500333	0,5	3,620000
5,508667	0,5	3,458700
5,517000	0,5	3,341950
5,525333	0,5	3,258750
5,533667	0,5	3,210350
5,542000	0,5	3,193050
5,550333	0,5	3,194950
5,558667	0,5	3,228900
5,567000	0,5	3,292600
5,575333	0,5	3,361100
5,583667	0,5	3,456350
5,592000	0,5	3,575350
5,600333	0,5	3,700350
5,608667	0,5	3,828150
5,617000	0,5	3,927150
5,625333	0,5	3,999850
5,633667	0,5	4,032650
5,642000	0,5	4,033750
5,650333	0,5	3,999600
5,658667	0,5	3,947650
5,667000	0,5	3,884100
5,675333	0,5	3,821250
5,683667	0,5	3,758450
5,692000	0,5	3,705750
5,700333	0,5	3,652000
5,708667	0,5	3,619600
5,717000	0,5	3,577750
5,725333	0,5	3,537900
5,733667	0,5	3,496400
5,742000	0,5	3,458400
5,750333	0,5	3,429850
5,758667	0,5	3,390850
5,767000	0,5	3,354900
5,775333	0,5	3,316200
5,783667	0,5	3,286800
5,792000	0,5	3,265350
5,800333	0,5	3,253550
5,808667	0,5	3,249500
5,817000	0,5	3,260800
5,825333	0,5	3,280150
5,833667	0,5	3,313350
5,842000	0,5	3,353150
5,850333	0,5	3,397950
5,858667	0,5	3,449100
5,867000	0,5	3,476250
5,875333	0,5	3,478500
5,883667	0,5	3,467850
5,892000	0,5	3,434750
5,900333	0,5	3,396950
5,908667	0,5	3,340950
5,917000	0,5	3,288400
5,925333	0,5	3,239250
5,933667	0,5	3,210550
5,942000	0,5	3,190400
5,950333	0,5	3,194750
5,958667	0,5	3,217050
5,967000	0,5	3,254150
5,975333	0,5	3,307600
5,983667	0,5	3,360100
5,992000	0,5	3,408950
6,000333	0,5	3,436400
6,008667	0,5	3,458450
6,017000	0,5	3,437300
6,025333	0,5	3,402400
6,033667	0,5	3,353600
6,042000	0,5	3,299750
6,050333	0,5	3,242550
6,058667	0,5	3,176350
6,067000	0,5	3,105100
6,075333	0,5	3,043750
6,083667	0,5	2,981750
6,092000	0,5	2,934800
6,100333	0,5	2,892900
6,108667	0,5	2,865550
6,117000	0,5	2,842100
6,125333	0,5	2,833700
6,133667	0,5	2,831050
6,142000	0,5	2,829200
6,150333	0,5	2,842150
6,158667	0,5	2,860300
6,167000	0,5	2,874850
6,175333	0,5	2,901600
6,183667	0,5	2,929450
6,192000	0,5	2,958650
6,200333	0,5	2,992750
6,208667	0,5	3,002450
6,217000	0,5	3,018450
6,225333	0,5	3,027150
6,233667	0,5	3,048600
6,242000	0,5	3,070700
6,250333	0,5	3,104550
6,258667	0,5	3,138050
6,267000	0,5	3,167050
6,275333	0,5	3,182950
6,283667	0,5	3,172250
6,292000	0,5	3,141900
6,300333	0,5	3,097350
6,308667	0,5	3,033150
6,317000	0,5	2,958900
6,325333	0,5	2,891200
6,333667	0,5	2,831300
6,342000	0,5	2,788100
6,350333	0,5	2,752700
6,358667	0,5	2,722850
6,367000	0,5	2,696500
6,375333	0,5	2,681000
6,383667	0,5	2,659450
6,392000	0,5	2,644150
6,400333	0,5	2,635550
6,408667	0,5	2,626950
6,417000	0,5	2,620250
6,425333	0,5	2,612050
6,433667	0,5	2,603350
6,442000	0,5	2,605300
6,450333	0,5	2,608150
6,458667	0,5	2,614600
6,467000	0,5	2,624200
6,475333	0,5	2,648350
6,483667	0,5	2,682250
6,492000	0,5	2,732700
6,500333	0,5	2,793800
6,508667	0,5	2,860550
6,517000	0,5	2,938250
6,525333	0,5	3,019350
6,533667	0,5	3,092250
6,542000	0,5	3,144150
6,550333	0,5	3,169200
6,558667	0,5	3,158400
6,567000	0,5	3,124850
6,575333	0,5	3,063100
6,583667	0,5	2,998900
6,592000	0,5	2,932850
6,600333	0,5	2,883950
6,608667	0,5	2,848400
6,617000	0,5	2,841350
6,625333	0,5	2,861300
6,633667	0,5	2,916000
6,642000	0,5	2,995300
6,650333	0,5	3,090200
6,658667	0,5	3,215200
6,667000	0,5	3,369600
6,675333	0,5	3,559100
6,683667	0,5	3,803450
6,692000	0,5	4,116150
6,700333	0,5	4,508500
6,708667	0,5	4,990900
6,717000	0,5	5,531750
6,725333	0,5	6,105700
6,733667	0,5	6,627500
6,742000	0,5	7,052800
6,750333	0,5	7,289200
6,758667	0,5	7,305400
6,767000	0,5	7,097400
6,775333	0,5	6,722050
6,783667	0,5	6,230750
6,792000	0,5	5,706750
6,800333	0,5	5,229650
6,808667	0,5	4,845000
6,817000	0,5	4,575350
6,825333	0,5	4,416900
6,833667	0,5	4,345250
6,842000	0,5	4,332600
6,850333	0,5	4,356000
6,858667	0,5	4,394750
6,867000	0,5	4,443900
6,875333	0,5	4,497050
6,883667	0,5	4,581300
6,892000	0,5	4,748300
6,900333	0,5	5,010750
6,908667	0,5	5,429200
6,917000	0,5	6,025900
6,925333	0,5	6,784150
6,933667	0,5	7,652300
6,942000	0,5	8,487050
6,950333	0,5	9,172900
6,958667	0,5	9,574000
6,967000	0,5	9,619050
6,975333	0,5	9,282750
6,983667	0,5	8,638850
6,992000	0,5	7,784850
7,000333	0,5	6,853400
7,008667	0,5	5,959250
7,017000	0,5	5,183550
7,025333	0,5	4,561000
7,033667	0,5	4,101550
7,042000	0,5	3,795350
7,050333	0,5	3,592400
7,058667	0,5	3,477650
7,067000	0,5	3,410800
7,075333	0,5	3,365600
7,083667	0,5	3,317100
7,092000	0,5	3,238950
7,100333	0,5	3,136450
7,108667	0,5	3,020750
7,117000	0,5	2,904850
7,125333	0,5	2,806200
7,133667	0,5	2,732850
7,142000	0,5	2,679450
7,150333	0,5	2,642300
7,158667	0,5	2,620450
7,167000	0,5	2,600650
7,175333	0,5	2,578450
7,183667	0,5	2,560000
7,192000	0,5	2,550750
7,200333	0,5	2,537800
7,208667	0,5	2,538600
7,217000	0,5	2,540700
7,225333	0,5	2,544950
7,233667	0,5	2,544550
7,242000	0,5	2,527100
7,250333	0,5	2,504500
7,258667	0,5	2,470250
7,267000	0,5	2,441850
7,275333	0,5	2,408550
7,283667	0,5	2,382500
7,292000	0,5	2,360450
7,300333	0,5	2,349250
7,308667	0,5	2,346050
7,317000	0,5	2,345000
7,325333	0,5	2,350400
7,333667	0,5	2,363250
7,342000	0,5	2,369650
7,350333	0,5	2,369950
7,358667	0,5	2,362350
7,367000	0,5	2,351750
7,375333	0,5	2,343300
7,383667	0,5	2,332200
7,392000	0,5	2,322550
7,400333	0,5	2,327350
7,408667	0,5	2,350250
7,417000	0,5	2,388250
7,425333	0,5	2,458550
7,433667	0,5	2,547800
7,442000	0,5	2,653150
7,450333	0,5	2,748200
7,458667	0,5	2,816350
7,467000	0,5	2,833150
7,475333	0,5	2,802750
7,483667	0,5	2,739200
7,492000	0,5	2,651300
7,500333	0,5	2,574750
7,508667	0,5	2,520650
7,517000	0,5	2,494400
7,525333	0,5	2,499950
7,533667	0,5	2,516650
7,542000	0,5	2,539100
7,550333	0,5	2,557900
7,558667	0,5	2,553950
7,567000	0,5	2,530700
7,575333	0,5	2,485250
7,583667	0,5	2,424800
7,592000	0,5	2,359350
7,600333	0,5	2,298000
7,608667	0,5	2,247100
7,617000	0,5	2,206850
7,625333	0,5	2,180950
7,633667	0,5	2,164750
7,642000	0,5	2,151900
7,650333	0,5	2,145100
7,658667	0,5	2,146700
7,667000	0,5	2,151500
7,675333	0,5	2,157500
7,683667	0,5	2,167200
7,692000	0,5	2,178350
7,700333	0,5	2,191950
7,708667	0,5	2,202200
7,717000	0,5	2,213200
7,725333	0,5	2,225200
7,733667	0,5	2,239100
7,742000	0,5	2,252400
7,750333	0,5	2,269650
7,758667	0,5	2,306850
7,767000	0,5	2,352500
7,775333	0,5	2,418450
7,783667	0,5	2,488900
7,792000	0,5	2,542950
7,800333	0,5	2,571150
7,808667	0,5	2,566850
7,817000	0,5	2,533400
7,825333	0,5	2,485350
7,833667	0,5	2,432800
7,842000	0,5	2,400750
7,850333	0,5	2,406350
7,858667	0,5	2,469850
7,867000	0,5	2,596150
7,875333	0,5	2,795750
7,883667	0,5	3,056500
7,892000	0,5	3,340500
7,900333	0,5	3,592500
7,908667	0,5	3,744900
7,917000	0,5	3,761150
7,925333	0,5	3,655100
7,933667	0,5	3,456350
7,942000	0,5	3,227700
7,950333	0,5	3,026550
7,958667	0,5	2,872150
7,967000	0,5	2,773200
7,975333	0,5	2,713750
7,983667	0,5	2,673950
7,992000	0,5	2,642300
8,000333	0,5	2,607450
8,008667	0,5	2,565450
8,017000	0,5	2,530850
8,025333	0,5	2,508350
8,033667	0,5	2,502400
8,042000	0,5	2,520500
8,050333	0,5	2,562900
8,058667	0,5	2,610050
8,067000	0,5	2,653750
8,075333	0,5	2,684700
8,083667	0,5	2,686450
8,092000	0,5	2,659600
8,100333	0,5	2,609850
8,108667	0,5	2,538300
8,117000	0,5	2,465400
8,125333	0,5	2,402250
8,133667	0,5	2,356950
8,142000	0,5	2,338450
8,150333	0,5	2,349250
8,158667	0,5	2,384000
8,167000	0,5	2,446150
8,175333	0,5	2,526700
8,183667	0,5	2,628400
8,192000	0,5	2,743350
8,200333	0,5	2,867200
8,208667	0,5	2,996800
8,217000	0,5	3,129900
8,225333	0,5	3,273800
8,233667	0,5	3,423350
8,242000	0,5	3,588700
8,250333	0,5	3,770400
8,258667	0,5	3,972800
8,267000	0,5	4,184300
8,275333	0,5	4,392500
8,283667	0,5	4,584150
8,292000	0,5	4,749100
8,300333	0,5	4,880350
8,308667	0,5	4,972200
8,317000	0,5	5,014600
8,325333	0,5	5,002500
8,333667	0,5	4,939200
8,342000	0,5	4,824550
8,350333	0,5	4,666550
8,358667	0,5	4,467100
8,367000	0,5	4,250850
8,375333	0,5	4,026900
8,383667	0,5	3,818950
8,392000	0,5	3,634700
8,400333	0,5	3,498400
8,408667	0,5	3,416100
8,417000	0,5	3,401150
8,425333	0,5	3,446100
8,433667	0,5	3,557800
8,442000	0,5	3,725350
8,450333	0,5	3,939450
8,458667	0,5	4,193650
8,467000	0,5	4,465550
8,475333	0,5	4,787450
8,483667	0,5	5,219500
8,492000	0,5	5,878750
8,500333	0,5	6,894050
8,508667	0,5	8,369300
8,517000	0,5	10,253200
8,525333	0,5	12,315500
8,533667	0,5	14,155950
8,542000	0,5	15,372750
8,550333	0,5	15,655450
8,558667	0,5	14,958750
8,567000	0,5	13,466750
8,575333	0,5	11,514100
8,583667	0,5	9,473850
8,592000	0,5	7,623750
8,600333	0,5	6,114550
8,608667	0,5	4,984350
8,617000	0,5	4,194850
8,625333	0,5	3,676950
8,633667	0,5	3,355600
8,642000	0,5	3,168000
8,650333	0,5	3,066800
8,658667	0,5	3,015800
8,667000	0,5	2,989050
8,675333	0,5	2,952450
8,683667	0,5	2,898350
8,692000	0,5	2,822250
8,700333	0,5	2,733650
8,708667	0,5	2,646550
8,717000	0,5	2,558900
8,725333	0,5	2,489100
8,733667	0,5	2,430300
8,742000	0,5	2,385750
8,750333	0,5	2,353200
8,758667	0,5	2,339050
8,767000	0,5	2,344500
8,775333	0,5	2,383650
8,783667	0,5	2,456600
8,792000	0,5	2,573300
8,800333	0,5	2,709400
8,808667	0,5	2,832750
8,817000	0,5	2,910050
8,825333	0,5	2,914500
8,833667	0,5	2,849750
8,842000	0,5	2,743650
8,850333	0,5	2,629700
8,858667	0,5	2,533100
8,867000	0,5	2,457050
8,875333	0,5	2,410850
8,883667	0,5	2,380300
8,892000	0,5	2,368150
8,900333	0,5	2,372350
8,908667	0,5	2,395600
8,917000	0,5	2,437450
8,925333	0,5	2,506800
8,933667	0,5	2,611750
8,942000	0,5	2,761300
8,950333	0,5	2,943500
8,958667	0,5	3,159600
8,967000	0,5	3,378350
8,975333	0,5	3,566050
8,983667	0,5	3,700150
8,992000	0,5	3,758250
9,000333	0,5	3,735900
9,008667	0,5	3,634100
9,017000	0,5	3,471500
9,025333	0,5	3,264700
9,033667	0,5	3,047950
9,042000	0,5	2,834250
9,050333	0,5	2,648150
9,058667	0,5	2,499350
9,067000	0,5	2,392450
9,075333	0,5	2,321650
9,083667	0,5	2,285150
9,092000	0,5	2,276700
9,100333	0,5	2,282200
9,108667	0,5	2,297450
9,117000	0,5	2,312400
9,125333	0,5	2,319750
9,133667	0,5	2,313000
9,142000	0,5	2,300200
9,150333	0,5	2,277700
9,158667	0,5	2,249500
9,167000	0,5	2,216600
9,175333	0,5	2,192000
9,183667	0,5	2,191750
9,192000	0,5	2,142900
9,200333	0,5	2,128200
9,208667	0,5	2,113700
9,217000	0,5	2,101650
9,225333	0,5	2,095300
9,233667	0,5	2,092300
9,242000	0,5	2,094350
9,250333	0,5	2,100350
9,258667	0,5	2,111150
9,267000	0,5	2,124800
9,275333	0,5	2,141850
9,283667	0,5	2,168600
9,292000	0,5	2,201650
9,300333	0,5	2,235450
9,308667	0,5	2,261900
9,317000	0,5	2,270600
9,325333	0,5	2,263100
9,333667	0,5	2,247500
9,342000	0,5	2,228250
9,350333	0,5	2,208950
9,358667	0,5	2,191750
9,367000	0,5	2,172100
9,375333	0,5	2,148000
9,383667	0,5	2,120650
9,392000	0,5	2,096800
9,400333	0,5	2,078000
9,408667	0,5	2,067650
9,417000	0,5	2,059450
9,425333	0,5	2,051500
9,433667	0,5	2,048100
9,442000	0,5	2,038650
9,450333	0,5	2,036300
9,458667	0,5	2,033650
9,467000	0,5	2,031250
9,475333	0,5	2,034700
9,483667	0,5	2,042750
9,492000	0,5	2,048350
9,500333	0,5	2,055600
9,508667	0,5	2,059650
9,517000	0,5	2,066400
9,525333	0,5	2,083450
9,533667	0,5	2,102700
9,542000	0,5	2,132300
9,550333	0,5	2,172600
9,558667	0,5	2,215250
9,567000	0,5	2,252900
9,575333	0,5	2,278950
9,583667	0,5	2,301200
9,592000	0,5	2,321400
9,600333	0,5	2,350450
9,608667	0,5	2,383900
9,617000	0,5	2,413700
9,625333	0,5	2,442950
9,633667	0,5	2,462800
9,642000	0,5	2,467450
9,650333	0,5	2,449600
9,658667	0,5	2,413150
9,667000	0,5	2,356800
9,675333	0,5	2,280550
9,683667	0,5	2,203450
9,692000	0,5	2,128000
9,700333	0,5	2,074650
9,708667	0,5	2,038700
9,717000	0,5	2,016000
9,725333	0,5	2,012200
9,733667	0,5	2,015750
9,742000	0,5	2,032100
9,750333	0,5	2,050000
9,758667	0,5	2,078950
9,767000	0,5	2,104100
9,775333	0,5	2,134050
9,783667	0,5	2,146850
9,792000	0,5	2,150900
9,800333	0,5	2,138400
9,808667	0,5	2,109250
9,817000	0,5	2,073500
9,825333	0,5	2,034150
9,833667	0,5	1,997350
9,842000	0,5	1,970600
9,850333	0,5	1,961100
9,858667	0,5	1,959900
9,867000	0,5	1,970050
9,875333	0,5	1,985100
9,883667	0,5	1,998600
9,892000	0,5	2,020850
9,900333	0,5	2,044100
9,908667	0,5	2,072350
9,917000	0,5	2,110400
9,925333	0,5	2,151350
9,933667	0,5	2,184900
9,942000	0,5	2,202150
9,950333	0,5	2,194400
9,958667	0,5	2,165400
9,967000	0,5	2,122700
9,975333	0,5	2,074900
9,983667	0,5	2,021500
9,992000	0,5	1,971500
10,000333	0,5	1,932050
10,008667	0,5	1,901000
10,017000	0,5	1,871300
10,025333	0,5	1,850350
10,033667	0,5	1,847650
10,042000	0,5	1,857950
10,050333	0,5	1,870600
10,058667	0,5	1,898000
10,067000	0,5	1,930950
10,075333	0,5	1,971050
10,083667	0,5	2,013300
10,092000	0,5	2,055400
10,100333	0,5	2,092600
10,108667	0,5	2,124050
10,117000	0,5	2,141550
10,125333	0,5	2,142850
10,133667	0,5	2,125050
10,142000	0,5	2,095000
10,150333	0,5	2,052300
10,158667	0,5	1,999700
10,167000	0,5	1,934250
10,175333	0,5	1,873000
10,183667	0,5	1,823200
10,192000	0,5	1,788050
10,200333	0,5	1,766400
10,208667	0,5	1,756150
10,217000	0,5	1,765950
10,225333	0,5	1,787650
10,233667	0,5	1,828000
10,242000	0,5	1,875250
10,250333	0,5	1,921150
10,258667	0,5	1,957650
10,267000	0,5	1,979900
10,275333	0,5	1,970850
10,283667	0,5	1,943700
10,292000	0,5	1,903600
10,300333	0,5	1,869350
10,308667	0,5	1,829000
10,317000	0,5	1,795350
10,325333	0,5	1,771600
10,333667	0,5	1,757250
10,342000	0,5	1,749100
10,350333	0,5	1,743500
10,358667	0,5	1,742850
10,367000	0,5	1,747250
10,375333	0,5	1,754500
10,383667	0,5	1,771600
10,392000	0,5	1,784450
10,400333	0,5	1,803950
10,408667	0,5	1,817150
10,417000	0,5	1,831050
10,425333	0,5	1,846950
10,433667	0,5	1,866200
10,442000	0,5	1,899500
10,450333	0,5	1,947300
10,458667	0,5	2,004100
10,467000	0,5	2,084150
10,475333	0,5	2,201150
10,483667	0,5	2,374650
10,492000	0,5	2,606450
10,500333	0,5	2,893650
10,508667	0,5	3,208700
10,517000	0,5	3,506500
10,525333	0,5	3,749000
10,533667	0,5	3,901250
10,542000	0,5	3,952250
10,550333	0,5	3,906200
10,558667	0,5	3,788800
10,567000	0,5	3,628850
10,575333	0,5	3,433850
10,583667	0,5	3,235150
10,592000	0,5	3,041600
10,600333	0,5	2,846850
10,608667	0,5	2,664250
10,617000	0,5	2,500000
10,625333	0,5	2,350300
10,633667	0,5	2,225800
10,642000	0,5	2,120450
10,650333	0,5	2,038200
10,658667	0,5	1,974150
10,667000	0,5	1,934200
10,675333	0,5	1,897450
10,683667	0,5	1,869600
10,692000	0,5	1,843100
10,700333	0,5	1,815750
10,708667	0,5	1,791200
10,717000	0,5	1,777050
10,725333	0,5	1,770250
10,733667	0,5	1,792400
10,742000	0,5	1,832850
10,750333	0,5	1,883300
10,758667	0,5	1,937750
10,767000	0,5	1,982750
10,775333	0,5	2,010700
10,783667	0,5	2,013700
10,792000	0,5	1,988950
10,800333	0,5	1,944400
10,808667	0,5	1,890850
10,817000	0,5	1,835700
10,825333	0,5	1,788700
10,833667	0,5	1,755600
10,842000	0,5	1,730900
10,850333	0,5	1,721800
10,858667	0,5	1,720950
10,867000	0,5	1,732950
10,875333	0,5	1,745550
10,883667	0,5	1,766500
10,892000	0,5	1,775250
10,900333	0,5	1,774750
10,908667	0,5	1,765100
10,917000	0,5	1,753850
10,925333	0,5	1,749050
10,933667	0,5	1,751600
10,942000	0,5	1,760200
10,950333	0,5	1,774850
10,958667	0,5	1,775500
10,967000	0,5	1,771050
10,975333	0,5	1,747200
10,983667	0,5	1,719900
10,992000	0,5	1,683550
11,000333	0,5	1,651050
11,008667	0,5	1,621400
11,017000	0,5	1,601750
11,025333	0,5	1,583100
11,033667	0,5	1,582700
11,042000	0,5	1,581950
11,050333	0,5	1,596200
11,058667	0,5	1,618650
11,067000	0,5	1,652200
11,075333	0,5	1,707950
11,083667	0,5	1,766450
11,092000	0,5	1,842200
11,100333	0,5	1,922250
11,108667	0,5	2,002450
11,117000	0,5	2,069700
11,125333	0,5	2,119200
11,133667	0,5	2,126200
11,142000	0,5	2,093600
11,150333	0,5	2,032750
11,158667	0,5	1,953450
11,167000	0,5	1,879900
11,175333	0,5	1,835350
11,183667	0,5	1,827250
11,192000	0,5	1,835000
11,200333	0,5	1,848950
11,208667	0,5	1,846500
11,217000	0,5	1,839200
11,225333	0,5	1,830100
11,233667	0,5	1,825800
11,242000	0,5	1,836500
11,250333	0,5	1,880400
11,258667	0,5	2,011550
11,267000	0,5	2,375900
11,275333	0,5	2,906350
11,283667	0,5	3,340000
11,292000	0,5	3,398100
11,300333	0,5	3,187850
11,308667	0,5	2,846050
11,317000	0,5	2,323800
11,325333	0,5	1,713250
11,333667	0,5	1,178650
11,342000	0,5	0,834300
11,350333	0,5	0,630800
11,358667	0,5	0,493350
11,367000	0,5	0,402550
11,375333	0,5	0,339550
11,383667	0,5	0,289250
11,392000	0,5	0,251250
11,400333	0,5	0,227100
11,408667	0,5	0,211450
11,417000	0,5	0,206750
11,425333	0,5	0,207850
11,433667	0,5	0,211450
11,442000	0,5	0,215550
11,450333	0,5	0,225850
11,458667	0,5	0,225750
11,467000	0,5	0,228550
11,475333	0,5	0,229400
11,483667	0,5	0,217800
11,492000	0,5	0,202600
11,500333	0,5	0,173250
11,508667	0,5	0,143700
11,517000	0,5	0,116350
11,525333	0,5	0,083700
11,533667	0,5	0,051850
11,542000	0,5	0,022600
11,550333	0,5	-0,007300
11,558667	0,5	-0,036650
11,567000	0,5	-0,058750
11,575333	0,5	-0,077750
11,583667	0,5	-0,103750
11,592000	0,5	-0,121400
11,600333	0,5	-0,136900
11,608667	0,5	-0,154350
11,617000	0,5	-0,162850
11,625333	0,5	-0,173350
11,633667	0,5	-0,182000
11,642000	0,5	-0,195800
11,650333	0,5	-0,204450
11,658667	0,5	-0,210300
11,667000	0,5	-0,207350
11,675333	0,5	-0,208600
11,683667	0,5	-0,203450
11,692000	0,5	-0,202050
11,700333	0,5	-0,193000
11,708667	0,5	-0,183250
11,717000	0,5	-0,168500
11,725333	0,5	-0,148000
11,733667	0,5	-0,129350
11,742000	0,5	-0,106900
11,750333	0,5	-0,076700
11,758667	0,5	-0,059400
11,767000	0,5	-0,028700
11,775333	0,5	-0,001550
11,783667	0,5	0,017500
11,792000	0,5	0,032850
11,800333	0,5	0,036800
11,808667	0,5	0,044450
11,817000	0,5	0,045700
11,825333	0,5	0,041450
11,833667	0,5	0,031900
11,842000	0,5	0,024400
11,850333	0,5	0,011650
11,858667	0,5	-0,000300
11,867000	0,5	-0,008950
11,875333	0,5	-0,017700
11,883667	0,5	-0,025150
11,892000	0,5	-0,032700
11,900333	0,5	-0,035650
11,908667	0,5	-0,042250
11,917000	0,5	-0,037400
11,925333	0,5	-0,035300
11,933667	0,5	-0,038950
11,942000	0,5	-0,040200
11,950333	0,5	-0,040800
11,958667	0,5	-0,035150
11,967000	0,5	-0,026700
11,975333	0,5	-0,022100
11,983667	0,5	-0,017050
11,992000	0,5	-0,013800
12,000333	0,5	-0,006900
12,008667	0,5	0,000500
12,017000	0,5	0,011450
12,025333	0,5	0,017900
12,033667	0,5	0,030050
12,042000	0,5	0,042200
12,050333	0,5	0,053050
12,058667	0,5	0,063800
12,067000	0,5	0,083450
12,075333	0,5	0,099850
12,083667	0,5	0,121850
12,092000	0,5	0,142350
12,100333	0,5	0,162350
12,108667	0,5	0,196550
12,117000	0,5	0,227900
12,125333	0,5	0,265350
12,133667	0,5	0,301550
12,142000	0,5	0,345950
12,150333	0,5	0,386700
12,158667	0,5	0,430400
12,167000	0,5	0,476550
12,175333	0,5	0,528700
12,183667	0,5	0,578250
12,192000	0,5	0,630300
12,200333	0,5	0,673350
12,208667	0,5	0,724000
12,217000	0,5	0,775250
12,225333	0,5	0,824950
12,233667	0,5	0,865800
12,242000	0,5	0,907800
12,250333	0,5	0,951050
12,258667	0,5	0,992350
12,267000	0,5	1,033100
12,275333	0,5	1,073050
12,283667	0,5	1,104600
12,292000	0,5	1,140550
12,300333	0,5	1,171600
12,308667	0,5	1,197100
12,317000	0,5	1,224600
12,325333	0,5	1,247050
12,333667	0,5	1,269950
12,342000	0,5	1,284850
12,350333	0,5	1,304500
12,358667	0,5	1,319600
12,367000	0,5	1,337750
12,375333	0,5	1,348100
12,383667	0,5	1,359900
12,392000	0,5	1,370800
12,400333	0,5	1,382750
12,408667	0,5	1,395300
12,417000	0,5	1,409250
12,425333	0,5	1,417300
12,433667	0,5	1,427100
12,442000	0,5	1,437350
12,450333	0,5	1,444200
12,458667	0,5	1,453500
12,467000	0,5	1,453700
12,475333	0,5	1,463900
12,483667	0,5	1,472100
12,492000	0,5	1,471250
12,500333	0,5	1,474050
12,508667	0,5	1,484550
12,517000	0,5	1,484900
12,525333	0,5	1,489000
12,533667	0,5	1,484850
12,542000	0,5	1,489200
12,550333	0,5	1,492950
12,558667	0,5	1,498450
12,567000	0,5	1,494250
12,575333	0,5	1,500050
12,583667	0,5	1,500500
12,592000	0,5	1,508850
12,600333	0,5	1,508500
12,608667	0,5	1,511100
12,617000	0,5	1,511100
12,625333	0,5	1,510200
12,633667	0,5	1,516200
12,642000	0,5	1,510150
12,650333	0,5	1,517100
12,658667	0,5	1,521100
12,667000	0,5	1,516500
12,675333	0,5	1,515650
12,683667	0,5	1,513500
12,692000	0,5	1,512200
12,700333	0,5	1,515250
12,708667	0,5	1,516750
12,717000	0,5	1,514400
12,725333	0,5	1,515350
12,733667	0,5	1,516800
12,742000	0,5	1,512650
12,750333	0,5	1,516400
12,758667	0,5	1,512450
12,767000	0,5	1,508900
12,775333	0,5	1,509800
12,783667	0,5	1,515650
12,792000	0,5	1,506250
12,800333	0,5	1,511300
12,808667	0,5	1,513050
12,817000	0,5	1,513800
12,825333	0,5	1,511450
12,833667	0,5	1,503350
12,842000	0,5	1,514200
12,850333	0,5	1,514550
12,858667	0,5	1,517750
12,867000	0,5	1,514150
12,875333	0,5	1,516000
12,883667	0,5	1,517550
12,892000	0,5	1,519950
12,900333	0,5	1,520450
12,908667	0,5	1,523300
12,917000	0,5	1,522450
12,925333	0,5	1,525450
12,933667	0,5	1,524000
12,942000	0,5	1,525450
12,950333	0,5	1,532450
12,958667	0,5	1,534150
12,967000	0,5	1,528200
12,975333	0,5	1,527450
12,983667	0,5	1,527200
12,992000	0,5	1,533350
13,000333	0,5	1,537200
13,008667	0,5	1,537250
13,017000	0,5	1,541150
13,025333	0,5	1,541100
13,033667	0,5	1,544200
13,042000	0,5	1,546300
13,050333	0,5	1,550200
13,058667	0,5	1,548200
13,067000	0,5	1,550900
13,075333	0,5	1,551300
13,083667	0,5	1,558400
13,092000	0,5	1,563100
13,100333	0,5	1,568950
13,108667	0,5	1,568750
13,117000	0,5	1,573050
13,125333	0,5	1,572550
13,133667	0,5	1,572450
13,142000	0,5	1,577650
13,150333	0,5	1,581200
13,158667	0,5	1,584250
13,167000	0,5	1,585500
13,175333	0,5	1,589950
13,183667	0,5	1,593800
13,192000	0,5	1,605950
13,200333	0,5	1,611350
13,208667	0,5	1,614550
13,217000	0,5	1,627600
13,225333	0,5	1,633850
13,233667	0,5	1,638850
13,242000	0,5	1,654200
13,250333	0,5	1,661900
13,258667	0,5	1,670050
13,267000	0,5	1,668450
13,275333	0,5	1,673250
13,283667	0,5	1,683700
13,292000	0,5	1,694450
13,300333	0,5	1,703300
13,308667	0,5	1,711850
13,317000	0,5	1,717350
13,325333	0,5	1,724000
13,333667	0,5	1,734650
13,342000	0,5	1,740300
13,350333	0,5	1,750850
13,358667	0,5	1,760500
13,367000	0,5	1,770950
13,375333	0,5	1,766350
13,383667	0,5	1,767900
13,392000	0,5	1,766100
13,400333	0,5	1,759750
13,408667	0,5	1,744900
13,417000	0,5	1,732400
13,425333	0,5	1,721700
13,433667	0,5	1,721050
13,442000	0,5	1,725500
13,450333	0,5	1,732100
13,458667	0,5	1,736650
13,467000	0,5	1,742650
13,475333	0,5	1,749250
13,483667	0,5	1,760250
13,492000	0,5	1,774350
13,500333	0,5	1,796150
13,508667	0,5	1,826400
13,517000	0,5	1,854700
13,525333	0,5	1,873800
13,533667	0,5	1,895050
13,542000	0,5	1,901450
13,550333	0,5	1,886950
13,558667	0,5	1,862350
13,567000	0,5	1,826050
13,575333	0,5	1,804900
13,583667	0,5	1,789350
13,592000	0,5	1,779800
13,600333	0,5	1,772400
13,608667	0,5	1,780350
13,617000	0,5	1,789200
13,625333	0,5	1,801850
13,633667	0,5	1,823150
13,642000	0,5	1,848900
13,650333	0,5	1,879650
13,658667	0,5	1,900950
13,667000	0,5	1,919550
13,675333	0,5	1,916050
13,683667	0,5	1,915650
13,692000	0,5	1,897250
13,700333	0,5	1,861750
13,708667	0,5	1,823000
13,717000	0,5	1,781600
13,725333	0,5	1,757450
13,733667	0,5	1,742400
13,742000	0,5	1,730600
13,750333	0,5	1,735400
13,758667	0,5	1,744850
13,767000	0,5	1,760950
13,775333	0,5	1,776150
13,783667	0,5	1,791500
13,792000	0,5	1,793250
13,800333	0,5	1,790550
13,808667	0,5	1,780450
13,817000	0,5	1,761900
13,825333	0,5	1,730550
13,833667	0,5	1,718150
13,842000	0,5	1,696350
13,850333	0,5	1,679300
13,858667	0,5	1,669000
13,867000	0,5	1,653550
13,875333	0,5	1,662100
13,883667	0,5	1,664000
13,892000	0,5	1,665100
13,900333	0,5	1,663250
13,908667	0,5	1,658700
13,917000	0,5	1,648950
13,925333	0,5	1,644600
13,933667	0,5	1,631850
13,942000	0,5	1,622600
13,950333	0,5	1,609350
13,958667	0,5	1,603300
13,967000	0,5	1,582600
13,975333	0,5	1,579500
13,983667	0,5	1,570400
13,992000	0,5	1,559050
14,000333	0,5	1,544200
14,008667	0,5	1,529950
14,017000	0,5	1,515000
14,025333	0,5	1,508200
14,033667	0,5	1,503300
14,042000	0,5	1,495750
14,050333	0,5	1,491600
14,058667	0,5	1,484300
14,067000	0,5	1,479350
14,075333	0,5	1,474300
14,083667	0,5	1,472950
14,092000	0,5	1,465150
14,100333	0,5	1,458500
14,108667	0,5	1,453600
14,117000	0,5	1,443500
14,125333	0,5	1,439100
14,133667	0,5	1,429800
14,142000	0,5	1,418450
14,150333	0,5	1,402700
14,158667	0,5	1,392550
14,167000	0,5	1,379350
14,175333	0,5	1,376000
14,183667	0,5	1,371050
14,192000	0,5	1,368650
14,200333	0,5	1,361900
14,208667	0,5	1,358400
14,217000	0,5	1,356950
14,225333	0,5	1,359350
14,233667	0,5	1,348650
14,242000	0,5	1,345800
14,250333	0,5	1,338100
14,258667	0,5	1,335800
14,267000	0,5	1,322750
14,275333	0,5	1,328700
14,283667	0,5	1,321450
14,292000	0,5	1,315450
14,300333	0,5	1,300650
14,308667	0,5	1,289500
14,317000	0,5	1,281100
14,325333	0,5	1,276900
14,333667	0,5	1,273400
14,342000	0,5	1,262750
14,350333	0,5	1,261150
14,358667	0,5	1,252550
14,367000	0,5	1,240900
14,375333	0,5	1,233850
14,383667	0,5	1,229000
14,392000	0,5	1,223250
14,400333	0,5	1,226750
14,408667	0,5	1,216100
14,417000	0,5	1,219450
14,425333	0,5	1,218150
14,433667	0,5	1,211400
14,442000	0,5	1,199150
14,450333	0,5	1,186350
14,458667	0,5	1,172800
14,467000	0,5	1,166700
14,475333	0,5	1,165350
14,483667	0,5	1,164300
14,492000	0,5	1,158450
14,500333	0,5	1,157100
14,508667	0,5	1,153550
14,517000	0,5	1,155700
14,525333	0,5	1,152050
14,533667	0,5	1,140850
14,542000	0,5	1,140400
14,550333	0,5	1,131800
14,558667	0,5	1,116150
14,567000	0,5	1,119900
14,575333	0,5	1,120400
14,583667	0,5	1,112450
14,592000	0,5	1,109400
14,600333	0,5	1,094350
14,608667	0,5	1,093450
14,617000	0,5	1,083100
14,625333	0,5	1,081800
14,633667	0,5	1,069950
14,642000	0,5	1,068850
14,650333	0,5	1,060500
14,658667	0,5	1,056150
14,667000	0,5	1,050100
14,675333	0,5	1,043700
14,683667	0,5	1,038700
14,692000	0,5	1,036750
14,700333	0,5	1,029850
14,708667	0,5	1,015300
14,717000	0,5	1,019900
14,725333	0,5	1,010800
14,733667	0,5	1,010750
14,742000	0,5	1,000100
14,750333	0,5	0,984500
14,758667	0,5	0,981500
14,767000	0,5	0,976950
14,775333	0,5	0,971850
14,783667	0,5	0,969950
14,792000	0,5	0,963600
14,800333	0,5	0,961100
14,808667	0,5	0,951350
14,817000	0,5	0,946300
14,825333	0,5	0,939150
14,833667	0,5	0,934900
14,842000	0,5	0,931900
14,850333	0,5	0,925750
14,858667	0,5	0,914600
14,867000	0,5	0,914450
14,875333	0,5	0,912600
14,883667	0,5	0,901250
14,892000	0,5	0,890850
14,900333	0,5	0,881200
14,908667	0,5	0,884700
14,917000	0,5	0,877850
14,925333	0,5	0,877600
14,933667	0,5	0,868300
14,942000	0,5	0,870000
14,950333	0,5	0,862600
14,958667	0,5	0,861750
14,967000	0,5	0,856250
14,975333	0,5	0,850350
14,983667	0,5	0,850700
14,992000	0,5	0,852800
15,000333	0,5	0,838400
15,008667	0,5	0,837700
15,017000	0,5	0,836550
15,025333	0,5	0,829400
15,033667	0,5	0,818600
15,042000	0,5	0,801400
15,050333	0,5	0,803350
15,058667	0,5	0,797950
15,067000	0,5	0,799900
15,075333	0,5	0,796550
15,083667	0,5	0,795800
15,092000	0,5	0,794900
15,100333	0,5	0,793750
15,108667	0,5	0,792100
15,117000	0,5	0,791700
15,125333	0,5	0,790000
15,133667	0,5	0,795600
15,142000	0,5	0,790850
15,150333	0,5	0,786900
15,158667	0,5	0,788350
15,167000	0,5	0,783600
15,175333	0,5	0,778900
15,183667	0,5	0,769600
15,192000	0,5	0,757500
15,200333	0,5	0,754000
15,208667	0,5	0,754150
15,217000	0,5	0,753900
15,225333	0,5	0,753950
15,233667	0,5	0,749600
15,242000	0,5	0,745950
15,250333	0,5	0,743350
15,258667	0,5	0,737750
15,267000	0,5	0,727100
15,275333	0,5	0,725950
15,283667	0,5	0,730650
15,292000	0,5	0,717750
15,300333	0,5	0,713050
15,308667	0,5	0,717100
15,317000	0,5	0,713800
15,325333	0,5	0,710750
15,333667	0,5	0,692050
15,342000	0,5	0,684650
15,350333	0,5	0,683250
15,358667	0,5	0,676750
15,367000	0,5	0,674600
15,375333	0,5	0,672400
15,383667	0,5	0,670700
15,392000	0,5	0,666950
15,400333	0,5	0,668000
15,408667	0,5	0,660100
15,417000	0,5	0,658550
15,425333	0,5	0,656300
15,433667	0,5	0,651650
15,442000	0,5	0,632000
15,450333	0,5	0,634350
15,458667	0,5	0,629050
15,467000	0,5	0,619050
15,475333	0,5	0,612300
15,483667	0,5	0,597900
15,492000	0,5	0,588650
15,500333	0,5	0,589000
15,508667	0,5	0,580100
15,517000	0,5	0,577400
15,525333	0,5	0,568000
15,533667	0,5	0,561200
15,542000	0,5	0,561600
15,550333	0,5	0,554200
15,558667	0,5	0,544800
15,567000	0,5	0,542200
15,575333	0,5	0,553300
15,583667	0,5	0,547750
15,592000	0,5	0,536000
15,600333	0,5	0,548000
15,608667	0,5	0,549150
15,617000	0,5	0,543000
15,625333	0,5	0,542350
15,633667	0,5	0,527750
15,642000	0,5	0,541600
15,650333	0,5	0,542150
15,658667	0,5	0,543800
15,667000	0,5	0,547600
15,675333	0,5	0,552300
15,683667	0,5	0,549650
15,692000	0,5	0,554450
15,700333	0,5	0,552000
15,708667	0,5	0,545050
15,717000	0,5	0,538900
15,725333	0,5	0,531100
15,733667	0,5	0,518050
15,742000	0,5	0,504400
15,750333	0,5	0,499900
15,758667	0,5	0,486350
15,767000	0,5	0,476500
15,775333	0,5	0,464000
15,783667	0,5	0,456150
15,792000	0,5	0,457300
15,800333	0,5	0,461550
15,808667	0,5	0,457850
15,817000	0,5	0,462100
15,825333	0,5	0,457500
15,833667	0,5	0,458300
15,842000	0,5	0,454050
15,850333	0,5	0,451100
15,858667	0,5	0,438850
15,867000	0,5	0,432800
15,875333	0,5	0,431500
15,883667	0,5	0,419700
15,892000	0,5	0,419000
15,900333	0,5	0,417600
15,908667	0,5	0,408750
15,917000	0,5	0,396850
15,925333	0,5	0,383250
15,933667	0,5	0,378400
15,942000	0,5	0,383300
15,950333	0,5	0,376350
15,958667	0,5	0,371650
15,967000	0,5	0,368800
15,975333	0,5	0,366000
15,983667	0,5	0,359400
15,992000	0,5	0,358450
16,000333	0,5	0,347750
16,008667	0,5	0,341000
16,017000	0,5	0,335500
16,025333	0,5	0,331750
16,033667	0,5	0,312700
16,042000	0,5	0,318550
16,050333	0,5	0,311450
16,058667	0,5	0,303150
16,067000	0,5	0,294900
16,075333	0,5	0,277850
16,083667	0,5	0,282950
16,092000	0,5	0,274550
16,100333	0,5	0,273350
16,108667	0,5	0,266250
16,117000	0,5	0,264450
16,125333	0,5	0,251550
16,133667	0,5	0,253850
16,142000	0,5	0,244800
16,150333	0,5	0,240200
16,158667	0,5	0,234900
16,167000	0,5	0,238100
16,175333	0,5	0,228800
16,183667	0,5	0,226750
16,192000	0,5	0,227950
16,200333	0,5	0,228950
16,208667	0,5	0,221100
16,217000	0,5	0,212900
16,225333	0,5	0,202600
16,233667	0,5	0,204850
16,242000	0,5	0,211850
16,250333	0,5	0,212750
16,258667	0,5	0,208050
16,267000	0,5	0,213350
16,275333	0,5	0,214600
16,283667	0,5	0,210300
16,292000	0,5	0,217600
16,300333	0,5	0,217300
16,308667	0,5	0,228800
16,317000	0,5	0,232400
16,325333	0,5	0,227550
16,333667	0,5	0,234100
16,342000	0,5	0,245350
16,350333	0,5	0,242100
16,358667	0,5	0,239550
16,367000	0,5	0,230050
16,375333	0,5	0,230350
16,383667	0,5	0,234000
16,392000	0,5	0,232450
16,400333	0,5	0,230400
16,408667	0,5	0,231800
16,417000	0,5	0,236750
16,425333	0,5	0,236500
16,433667	0,5	0,238450
16,442000	0,5	0,243750
16,450333	0,5	0,244500
16,458667	0,5	0,250100
16,467000	0,5	0,259350
16,475333	0,5	0,254650
16,483667	0,5	0,271250
16,492000	0,5	0,283000
16,500333	0,5	0,288050
16,508667	0,5	0,290200
16,517000	0,5	0,291500
16,525333	0,5	0,302300
16,533667	0,5	0,314500
16,542000	0,5	0,320550
16,550333	0,5	0,328250
16,558667	0,5	0,325800
16,567000	0,5	0,328850
16,575333	0,5	0,330500
16,583667	0,5	0,326150
16,592000	0,5	0,322850
16,600333	0,5	0,321450
16,608667	0,5	0,329250
16,617000	0,5	0,318150
16,625333	0,5	0,319900
16,633667	0,5	0,323400
16,642000	0,5	0,326850
16,650333	0,5	0,318150
16,658667	0,5	0,311100
16,667000	0,5	0,314600
16,675333	0,5	0,328150
16,683667	0,5	0,323550
16,692000	0,5	0,326250
16,700333	0,5	0,331650
16,708667	0,5	0,338100
16,717000	0,5	0,339050
16,725333	0,5	0,348800
16,733667	0,5	0,352650
16,742000	0,5	0,358400
16,750333	0,5	0,360550
16,758667	0,5	0,365050
16,767000	0,5	0,351000
16,775333	0,5	0,361850
16,783667	0,5	0,364450
16,792000	0,5	0,357750
16,800333	0,5	0,357900
16,808667	0,5	0,348750
16,817000	0,5	0,365200
16,825333	0,5	0,389500
16,833667	0,5	0,418900
16,842000	0,5	0,442850
16,850333	0,5	0,471400
16,858667	0,5	0,485050
16,867000	0,5	0,499800
16,875333	0,5	0,497450
16,883667	0,5	0,483850
16,892000	0,5	0,464700
16,900333	0,5	0,443600
16,908667	0,5	0,431150
16,917000	0,5	0,407700
16,925333	0,5	0,407400
16,933667	0,5	0,395600
16,942000	0,5	0,381450
16,950333	0,5	0,348550
16,958667	0,5	0,314900
16,967000	0,5	0,294750
16,975333	0,5	0,281150
16,983667	0,5	0,256700
16,992000	0,5	0,246050
17,000333	0,5	0,230100
17,008667	0,5	0,225850
17,017000	0,5	0,217800
17,025333	0,5	0,221750
17,033667	0,5	0,220000
17,042000	0,5	0,224150
17,050333	0,5	0,222500
17,058667	0,5	0,219250
17,067000	0,5	0,211150
17,075333	0,5	0,217150
17,083667	0,5	0,204650
17,092000	0,5	0,189250
17,100333	0,5	0,169050
17,108667	0,5	0,144850
17,117000	0,5	0,143700
17,125333	0,5	0,129300
17,133667	0,5	0,128750
17,142000	0,5	0,119300
17,150333	0,5	0,112700
17,158667	0,5	0,106500
17,167000	0,5	0,106350
17,175333	0,5	0,101300
17,183667	0,5	0,096250
17,192000	0,5	0,099450
17,200333	0,5	0,096150
17,208667	0,5	0,084150
17,217000	0,5	0,082050
17,225333	0,5	0,085850
17,233667	0,5	0,080600
17,242000	0,5	0,075350
17,250333	0,5	0,056650
17,258667	0,5	0,058550
17,267000	0,5	0,060750
17,275333	0,5	0,060700
17,283667	0,5	0,050850
17,292000	0,5	0,042350
17,300333	0,5	0,031700
17,308667	0,5	0,019450
17,317000	0,5	0,008850
17,325333	0,5	-0,004400
17,333667	0,5	-0,019000
17,342000	0,5	-0,019200
17,350333	0,5	-0,034250
17,358667	0,5	-0,051050
17,367000	0,5	-0,048300
17,375333	0,5	-0,050050
17,383667	0,5	-0,058300
17,392000	0,5	-0,071700
17,400333	0,5	-0,083650
17,408667	0,5	-0,087800
17,417000	0,5	-0,085750
17,425333	0,5	-0,090850
17,433667	0,5	-0,093000
17,442000	0,5	-0,095350
17,450333	0,5	-0,101400
17,458667	0,5	-0,107500
17,467000	0,5	-0,104800
17,475333	0,5	-0,113500
17,483667	0,5	-0,115150
17,492000	0,5	-0,115050
17,500333	0,5	-0,123950
17,508667	0,5	-0,133200
17,517000	0,5	-0,127600
17,525333	0,5	-0,136450
17,533667	0,5	-0,140750
17,542000	0,5	-0,160400
17,550333	0,5	-0,172150
17,558667	0,5	-0,170800
17,567000	0,5	-0,169400
17,575333	0,5	-0,177000
17,583667	0,5	-0,181150
17,592000	0,5	-0,179300
17,600333	0,5	-0,184850
17,608667	0,5	-0,180200
17,617000	0,5	-0,187900
17,625333	0,5	-0,186300
17,633667	0,5	-0,182600
17,642000	0,5	-0,180300
17,650333	0,5	-0,202900
17,658667	0,5	-0,191900
17,667000	0,5	-0,195750
17,675333	0,5	-0,199100
17,683667	0,5	-0,213100
17,692000	0,5	-0,229000
17,700333	0,5	-0,227050
17,708667	0,5	-0,230500
17,717000	0,5	-0,237250
17,725333	0,5	-0,241750
17,733667	0,5	-0,245800
17,742000	0,5	-0,251100
17,750333	0,5	-0,258750
17,758667	0,5	-0,262700
17,767000	0,5	-0,267550
17,775333	0,5	-0,273750
17,783667	0,5	-0,266850
17,792000	0,5	-0,267350
17,800333	0,5	-0,285900
17,808667	0,5	-0,281950
17,817000	0,5	-0,284250
17,825333	0,5	-0,299050
17,833667	0,5	-0,304850
17,842000	0,5	-0,335200
17,850333	0,5	-0,338750
17,858667	0,5	-0,344400
17,867000	0,5	-0,348900
17,875333	0,5	-0,358500
17,883667	0,5	-0,366850
17,892000	0,5	-0,372450
17,900333	0,5	-0,378100
17,908667	0,5	-0,378450
17,917000	0,5	-0,390450
17,925333	0,5	-0,389750
17,933667	0,5	-0,389900
17,942000	0,5	-0,397450
17,950333	0,5	-0,407650
17,958667	0,5	-0,400600
17,967000	0,5	-0,411550
17,975333	0,5	-0,413550
17,983667	0,5	-0,430050
17,992000	0,5	-0,437750
18,000333	0,5	-0,440600
18,008667	0,5	-0,432900
18,017000	0,5	-0,438950
18,025333	0,5	-0,444150
18,033667	0,5	-0,443450
18,042000	0,5	-0,447400
18,050333	0,5	-0,457050
18,058667	0,5	-0,457400
18,067000	0,5	-0,462400
18,075333	0,5	-0,465650
18,083667	0,5	-0,468300
18,092000	0,5	-0,481850
18,100333	0,5	-0,482500
18,108667	0,5	-0,483600
18,117000	0,5	-0,486600
18,125333	0,5	-0,502550
18,133667	0,5	-0,515900
18,142000	0,5	-0,526150
18,150333	0,5	-0,523200
18,158667	0,5	-0,524750
18,167000	0,5	-0,522700
18,175333	0,5	-0,524600
18,183667	0,5	-0,523950
18,192000	0,5	-0,522300
18,200333	0,5	-0,526750
18,208667	0,5	-0,529300
18,217000	0,5	-0,537100
18,225333	0,5	-0,528250
18,233667	0,5	-0,536550
18,242000	0,5	-0,545750
18,250333	0,5	-0,538600
18,258667	0,5	-0,541350
18,267000	0,5	-0,547850
18,275333	0,5	-0,559500
18,283667	0,5	-0,573950
18,292000	0,5	-0,574350
18,300333	0,5	-0,579150
18,308667	0,5	-0,572800
18,317000	0,5	-0,573700
18,325333	0,5	-0,574550
18,333667	0,5	-0,578450
18,342000	0,5	-0,576600
18,350333	0,5	-0,586150
18,358667	0,5	-0,581550
18,367000	0,5	-0,578850
18,375333	0,5	-0,574950
18,383667	0,5	-0,594250
18,392000	0,5	-0,585400
18,400333	0,5	-0,582750
18,408667	0,5	-0,589450
18,417000	0,5	-0,591100
18,425333	0,5	-0,609150
18,433667	0,5	-0,604900
18,442000	0,5	-0,611050
18,450333	0,5	-0,609200
18,458667	0,5	-0,611700
18,467000	0,5	-0,606050
18,475333	0,5	-0,607000
18,483667	0,5	-0,602100
18,492000	0,5	-0,605350
18,500333	0,5	-0,600150
18,508667	0,5	-0,602150
18,517000	0,5	-0,596800
18,525333	0,5	-0,598400
18,533667	0,5	-0,614600
18,542000	0,5	-0,607350
18,550333	0,5	-0,600600
18,558667	0,5	-0,603550
18,567000	0,5	-0,612950
18,575333	0,5	-0,633300
18,583667	0,5	-0,629350
18,592000	0,5	-0,621750
18,600333	0,5	-0,624700
18,608667	0,5	-0,624350
18,617000	0,5	-0,629950
18,625333	0,5	-0,624800
18,633667	0,5	-0,625350
18,642000	0,5	-0,624250
18,650333	0,5	-0,629600
18,658667	0,5	-0,626950
18,667000	0,5	-0,621450
18,675333	0,5	-0,617800
18,683667	0,5	-0,630050
18,692000	0,5	-0,623150
18,700333	0,5	-0,624950
18,708667	0,5	-0,629200
18,717000	0,5	-0,644850
18,725333	0,5	-0,655500
18,733667	0,5	-0,646650
18,742000	0,5	-0,660900
18,750333	0,5	-0,660050
18,758667	0,5	-0,662550
18,767000	0,5	-0,661300
18,775333	0,5	-0,664950
18,783667	0,5	-0,665050
18,792000	0,5	-0,668250
18,800333	0,5	-0,668650
18,808667	0,5	-0,667200
18,817000	0,5	-0,660400
18,825333	0,5	-0,673500
18,833667	0,5	-0,666850
18,842000	0,5	-0,674700
18,850333	0,5	-0,673850
18,858667	0,5	-0,683550
18,867000	0,5	-0,695500
18,875333	0,5	-0,699450
18,883667	0,5	-0,704500
18,892000	0,5	-0,706350
18,900333	0,5	-0,707800
18,908667	0,5	-0,710500
18,917000	0,5	-0,713000
18,925333	0,5	-0,711800
18,933667	0,5	-0,715100
18,942000	0,5	-0,720400
18,950333	0,5	-0,730500
18,958667	0,5	-0,721300
18,967000	0,5	-0,721900
18,975333	0,5	-0,733050
18,983667	0,5	-0,730500
18,992000	0,5	-0,732650
19,000333	0,5	-0,742250
19,008667	0,5	-0,752500
19,017000	0,5	-0,774000
19,025333	0,5	-0,775200
19,033667	0,5	-0,774600
19,042000	0,5	-0,781750
19,050333	0,5	-0,778650
19,058667	0,5	-0,780950
19,067000	0,5	-0,779550
19,075333	0,5	-0,781350
19,083667	0,5	-0,780200
19,092000	0,5	-0,786900
19,100333	0,5	-0,789200
19,108667	0,5	-0,789700
19,117000	0,5	-0,795500
19,125333	0,5	-0,803100
19,133667	0,5	-0,792750
19,142000	0,5	-0,808100
19,150333	0,5	-0,812150
19,158667	0,5	-0,829250
19,167000	0,5	-0,843000
19,175333	0,5	-0,843850
19,183667	0,5	-0,838300
19,192000	0,5	-0,848750
19,200333	0,5	-0,845600
19,208667	0,5	-0,850000
19,217000	0,5	-0,853500
19,225333	0,5	-0,856550
19,233667	0,5	-0,866500
19,242000	0,5	-0,874850
19,250333	0,5	-0,872400
19,258667	0,5	-0,868450
19,267000	0,5	-0,888400
19,275333	0,5	-0,878300
19,283667	0,5	-0,878750
19,292000	0,5	-0,884300
19,300333	0,5	-0,894900
19,308667	0,5	-0,908700
19,317000	0,5	-0,914800
19,325333	0,5	-0,913650
19,333667	0,5	-0,924750
19,342000	0,5	-0,926000
19,350333	0,5	-0,926500
19,358667	0,5	-0,928900
19,367000	0,5	-0,930350
19,375333	0,5	-0,930900
19,383667	0,5	-0,933450
19,392000	0,5	-0,936250
19,400333	0,5	-0,925000
19,408667	0,5	-0,929450
19,417000	0,5	-0,939100
19,425333	0,5	-0,928600
19,433667	0,5	-0,926400
19,442000	0,5	-0,936000
19,450333	0,5	-0,943350
19,458667	0,5	-0,958450
19,467000	0,5	-0,950000
19,475333	0,5	-0,957100
19,483667	0,5	-0,953400
19,492000	0,5	-0,959700
19,500333	0,5	-0,953000
19,508667	0,5	-0,954250
19,517000	0,5	-0,949350
19,525333	0,5	-0,951550
19,533667	0,5	-0,955650
19,542000	0,5	-0,954700
19,550333	0,5	-0,946950
19,558667	0,5	-0,957350
19,567000	0,5	-0,957350
19,575333	0,5	-0,948400
19,583667	0,5	-0,952050
19,592000	0,5	-0,954250
19,600333	0,5	-0,974250
19,608667	0,5	-0,974700
19,617000	0,5	-0,978700
19,625333	0,5	-0,978750
19,633667	0,5	-0,986450
19,642000	0,5	-0,989750
19,650333	0,5	-0,989100
19,658667	0,5	-0,982950
19,667000	0,5	-0,987500
19,675333	0,5	-0,986100
19,683667	0,5	-0,985000
19,692000	0,5	-0,986250
19,700333	0,5	-0,974900
19,708667	0,5	-0,992050
19,717000	0,5	-0,988000
19,725333	0,5	-0,990350
19,733667	0,5	-0,998200
19,742000	0,5	-1,018000
19,750333	0,5	-1,032450
19,758667	0,5	-1,030400
19,767000	0,5	-1,027400
19,775333	0,5	-1,036000
19,783667	0,5	-1,040100
19,792000	0,5	-1,046900
19,800333	0,5	-1,044300
19,808667	0,5	-1,049700
19,817000	0,5	-1,045050
19,825333	0,5	-1,047900
19,833667	0,5	-1,049450
19,842000	0,5	-1,038450
19,850333	0,5	-1,036900
19,858667	0,5	-1,048150
19,867000	0,5	-1,035350
19,875333	0,5	-1,035450
19,883667	0,5	-1,035600
19,892000	0,5	-1,044950
19,900333	0,5	-1,060850
19,908667	0,5	-1,054000
19,917000	0,5	-1,057050
19,925333	0,5	-1,052700
19,933667	0,5	-1,061500
19,942000	0,5	-1,059700
19,950333	0,5	-1,064650
19,958667	0,5	-1,060350
19,967000	0,5	-1,063100
19,975333	0,5	-1,066950
19,983667	0,5	-1,064550
19,992000	0,5	-1,060800
20,000333	0,5	-1,068000
20,008667	0,5	-1,068350
20,017000	0,5	-1,062250
20,025333	0,5	-1,066600
20,033667	0,5	-1,081800
20,042000	0,5	-1,095550
20,050333	0,5	-1,101000
20,058667	0,5	-1,100750
20,067000	0,5	-1,093600
20,075333	0,5	-1,098800
20,083667	0,5	-1,093000
20,092000	0,5	-1,094050
20,100333	0,5	-1,088850
20,108667	0,5	-1,089950
20,117000	0,5	-1,082800
20,125333	0,5	-1,079650
20,133667	0,5	-1,071950
20,142000	0,5	-1,071100
20,150333	0,5	-1,071400
20,158667	0,5	-1,063550
20,167000	0,5	-1,058850
20,175333	0,5	-1,063100
20,183667	0,5	-1,077450
20,192000	0,5	-1,081550
20,200333	0,5	-1,087450
20,208667	0,5	-1,080100
20,217000	0,5	-1,080150
20,225333	0,5	-1,079650
20,233667	0,5	-1,090400
20,242000	0,5	-1,081200
20,250333	0,5	-1,083650
20,258667	0,5	-1,086050
20,267000	0,5	-1,089000
20,275333	0,5	-1,086750
20,283667	0,5	-1,079250
20,292000	0,5	-1,086950
20,300333	0,5	-1,088600
20,308667	0,5	-1,077700
20,317000	0,5	-1,080500
20,325333	0,5	-1,086100
20,333667	0,5	-1,110100
20,342000	0,5	-1,116400
20,350333	0,5	-1,116600
20,358667	0,5	-1,118550
20,367000	0,5	-1,119750
20,375333	0,5	-1,124550
20,383667	0,5	-1,117700
20,392000	0,5	-1,123800
20,400333	0,5	-1,117700
20,408667	0,5	-1,124150
20,417000	0,5	-1,125000
20,425333	0,5	-1,114750
20,433667	0,5	-1,114850
20,442000	0,5	-1,134450
20,450333	0,5	-1,122400
20,458667	0,5	-1,123850
20,467000	0,5	-1,129750
20,475333	0,5	-1,136800
20,483667	0,5	-1,151150
20,492000	0,5	-1,142000
20,500333	0,5	-1,145600
20,508667	0,5	-1,143600
20,517000	0,5	-1,145800
20,525333	0,5	-1,138350
20,533667	0,5	-1,148400
20,542000	0,5	-1,138300
20,550333	0,5	-1,138950
20,558667	0,5	-1,130950
20,567000	0,5	-1,130150
20,575333	0,5	-1,113350
20,583667	0,5	-1,117450
20,592000	0,5	-1,120700
20,600333	0,5	-1,116400
20,608667	0,5	-1,109650
20,617000	0,5	-1,117250
20,625333	0,5	-1,123450
20,633667	0,5	-1,138850
20,642000	0,5	-1,132600
20,650333	0,5	-1,122700
20,658667	0,5	-1,124450
20,667000	0,5	-1,116950
20,675333	0,5	-1,113600
20,683667	0,5	-1,104700
20,692000	0,5	-1,103000
20,700333	0,5	-1,095500
20,708667	0,5	-1,090850
20,717000	0,5	-1,072700
20,725333	0,5	-1,058400
20,733667	0,5	-1,065900
20,742000	0,5	-1,068350
20,750333	0,5	-1,067500
20,758667	0,5	-1,073100
20,767000	0,5	-1,081600
20,775333	0,5	-1,099500
20,783667	0,5	-1,099550
20,792000	0,5	-1,087050
20,800333	0,5	-1,084400
20,808667	0,5	-1,080450
20,817000	0,5	-1,068550
20,825333	0,5	-1,063500
20,833667	0,5	-1,063950
20,842000	0,5	-1,053100
20,850333	0,5	-1,053200
20,858667	0,5	-1,048650
20,867000	0,5	-1,032350
20,875333	0,5	-1,022800
20,883667	0,5	-1,032400
20,892000	0,5	-1,034050
20,900333	0,5	-1,039100
20,908667	0,5	-1,040950
20,917000	0,5	-1,048500
20,925333	0,5	-1,057850
20,933667	0,5	-1,057250
20,942000	0,5	-1,049900
20,950333	0,5	-1,040200
20,958667	0,5	-1,037750
20,967000	0,5	-1,033100
20,975333	0,5	-1,032550
20,983667	0,5	-1,028050
20,992000	0,5	-1,029250
21,000333	0,5	-1,024200
21,008667	0,5	-1,017900
21,017000	0,5	-0,998050
21,025333	0,5	-0,992150
21,033667	0,5	-0,997400
21,042000	0,5	-0,992200
21,050333	0,5	-0,996700
21,058667	0,5	-1,006150
21,067000	0,5	-1,019750
21,075333	0,5	-1,024000
21,083667	0,5	-1,022800
21,092000	0,5	-1,015200
21,100333	0,5	-1,012150
21,108667	0,5	-1,007400
21,117000	0,5	-1,006200
21,125333	0,5	-1,000100
21,133667	0,5	-1,007900
21,142000	0,5	-0,997100
21,150333	0,5	-0,995650
21,158667	0,5	-0,974550
21,167000	0,5	-0,960400
21,175333	0,5	-0,963050
21,183667	0,5	-0,967400
21,192000	0,5	-0,962450
21,200333	0,5	-0,964700
21,208667	0,5	-0,972900
21,217000	0,5	-0,982650
21,225333	0,5	-0,981800
21,233667	0,5	-0,975200
21,242000	0,5	-0,967000
21,250333	0,5	-0,960000
21,258667	0,5	-0,959150
21,267000	0,5	-0,948250
21,275333	0,5	-0,943450
21,283667	0,5	-0,935400
21,292000	0,5	-0,935350
21,300333	0,5	-0,920850
21,308667	0,5	-0,899100
21,317000	0,5	-0,887700
21,325333	0,5	-0,885000
21,333667	0,5	-0,883150
21,342000	0,5	-0,881300
21,350333	0,5	-0,880150
21,358667	0,5	-0,891350
21,367000	0,5	-0,883900
21,375333	0,5	-0,873200
21,383667	0,5	-0,862200
21,392000	0,5	-0,850150
21,400333	0,5	-0,834450
21,408667	0,5	-0,814000
21,417000	0,5	-0,799050
21,425333	0,5	-0,775150
21,433667	0,5	-0,755000
21,442000	0,5	-0,728100
21,450333	0,5	-0,696550
21,458667	0,5	-0,680900
21,467000	0,5	-0,689350
21,475333	0,5	-0,690850
21,483667	0,5	-0,692150
21,492000	0,5	-0,700650
21,500333	0,5	-0,709250
21,508667	0,5	-0,716600
21,517000	0,5	-0,701900
21,525333	0,5	-0,701750
21,533667	0,5	-0,703150
21,542000	0,5	-0,702450
21,550333	0,5	-0,690450
21,558667	0,5	-0,684100
21,567000	0,5	-0,675350
21,575333	0,5	-0,674300
21,583667	0,5	-0,665250
21,592000	0,5	-0,655450
21,600333	0,5	-0,620600
21,608667	0,5	-0,604350
21,617000	0,5	-0,602850
21,625333	0,5	-0,595750
21,633667	0,5	-0,584350
21,642000	0,5	-0,581100
21,650333	0,5	-0,577350
21,658667	0,5	-0,571600
21,667000	0,5	-0,551500
21,675333	0,5	-0,536800
21,683667	0,5	-0,521500
21,692000	0,5	-0,507300
21,700333	0,5	-0,492350
21,708667	0,5	-0,472350
21,717000	0,5	-0,458150
21,725333	0,5	-0,444500
21,733667	0,5	-0,435750
21,742000	0,5	-0,403000
21,750333	0,5	-0,377950
21,758667	0,5	-0,364950
21,767000	0,5	-0,350500
21,775333	0,5	-0,343100
21,783667	0,5	-0,338250
21,792000	0,5	-0,338650
21,800333	0,5	-0,335850
21,808667	0,5	-0,315200
21,817000	0,5	-0,295400
21,825333	0,5	-0,287500
21,833667	0,5	-0,261650
21,842000	0,5	-0,242050
21,850333	0,5	-0,222700
21,858667	0,5	-0,208050
21,867000	0,5	-0,188050
21,875333	0,5	-0,179550
21,883667	0,5	-0,155150
21,892000	0,5	-0,122300
21,900333	0,5	-0,099300
21,908667	0,5	-0,093000
21,917000	0,5	-0,059950
21,925333	0,5	-0,050350
21,933667	0,5	-0,027250
21,942000	0,5	-0,010650
21,950333	0,5	0,010750
21,958667	0,5	0,045950
21,967000	0,5	0,078000
21,975333	0,5	0,113300
21,983667	0,5	0,143350
21,992000	0,5	0,177200
22,000333	0,5	0,204800
22,008667	0,5	0,232500
22,017000	0,5	0,251400
22,025333	0,5	0,267650
22,033667	0,5	0,286450
22,042000	0,5	0,310900
22,050333	0,5	0,318550
22,058667	0,5	0,344150
22,067000	0,5	0,368900
22,075333	0,5	0,384250
22,083667	0,5	0,401100
22,092000	0,5	0,408950
22,100333	0,5	0,434150
22,108667	0,5	0,464650
22,117000	0,5	0,498600
22,125333	0,5	0,519100
22,133667	0,5	0,549700
22,142000	0,5	0,580800
22,150333	0,5	0,614150
22,158667	0,5	0,643400
22,167000	0,5	0,674000
22,175333	0,5	0,702450
22,183667	0,5	0,739500
22,192000	0,5	0,765600
22,200333	0,5	0,816050
22,208667	0,5	0,861000
22,217000	0,5	0,900150
22,225333	0,5	0,927350
22,233667	0,5	0,950350
22,242000	0,5	0,991550
22,250333	0,5	1,033650
22,258667	0,5	1,079150
22,267000	0,5	1,124000
22,275333	0,5	1,167550
22,283667	0,5	1,215100
22,292000	0,5	1,262750
22,300333	0,5	1,312700
22,308667	0,5	1,362100
22,317000	0,5	1,406050
22,325333	0,5	1,437100
22,333667	0,5	1,470900
22,342000	0,5	1,517000
22,350333	0,5	1,576550
22,358667	0,5	1,625100
22,367000	0,5	1,663350
22,375333	0,5	1,704800
22,383667	0,5	1,735750
22,392000	0,5	1,791550
22,400333	0,5	1,844550
22,408667	0,5	1,893200
22,417000	0,5	1,946900
22,425333	0,5	1,998850
22,433667	0,5	2,058600
22,442000	0,5	2,116250
22,450333	0,5	2,179550
22,458667	0,5	2,233800
22,467000	0,5	2,299750
22,475333	0,5	2,325400
22,483667	0,5	2,391200
22,492000	0,5	2,460400
22,500333	0,5	2,527650
22,508667	0,5	2,576000
22,517000	0,5	2,611150
22,525333	0,5	2,647950
22,533667	0,5	2,685100
22,542000	0,5	2,737250
22,550333	0,5	2,776000
22,558667	0,5	2,817950
22,567000	0,5	2,848600
22,575333	0,5	2,886000
22,583667	0,5	2,912000
22,592000	0,5	2,942600
22,600333	0,5	2,963200
22,608667	0,5	2,983500
22,617000	0,5	2,961100
22,625333	0,5	2,966450
22,633667	0,5	2,972200
22,642000	0,5	3,002150
22,650333	0,5	2,995050
22,658667	0,5	2,982400
22,667000	0,5	2,952650
22,675333	0,5	2,912200
22,683667	0,5	2,882100
22,692000	0,5	2,845300
22,700333	0,5	2,801700
22,708667	0,5	2,749500
22,717000	0,5	2,696600
22,725333	0,5	2,640850
22,733667	0,5	2,578600
22,742000	0,5	2,510750
22,750333	0,5	2,437650
22,758667	0,5	2,353350
22,767000	0,5	2,209950
22,775333	0,5	2,135450
22,783667	0,5	2,057600
22,792000	0,5	1,966700
22,800333	0,5	1,854500
22,808667	0,5	1,739850
22,817000	0,5	1,619900
22,825333	0,5	1,491850
22,833667	0,5	1,376350
22,842000	0,5	1,255650
22,850333	0,5	1,140450
22,858667	0,5	1,017150
22,867000	0,5	0,903750
22,875333	0,5	0,783850
22,883667	0,5	0,672050
22,892000	0,5	0,548200
22,900333	0,5	0,433100
22,908667	0,5	0,326150
22,917000	0,5	0,165650
22,925333	0,5	0,075200
22,933667	0,5	-0,042200
22,942000	0,5	-0,171450
22,950333	0,5	-0,287900
22,958667	0,5	-0,398550
22,967000	0,5	-0,498300
22,975333	0,5	-0,600200
22,983667	0,5	-0,702850
22,992000	0,5	-0,793550
23,000333	0,5	-0,877500
23,008667	0,5	-0,956300
23,017000	0,5	-1,035700
23,025333	0,5	-1,102200
23,033667	0,5	-1,179700
23,042000	0,5	-1,243400
23,050333	0,5	-1,316600
23,058667	0,5	-1,354250
23,067000	0,5	-1,425750
23,075333	0,5	-1,484450
23,083667	0,5	-1,582600
23,092000	0,5	-1,640400
23,100333	0,5	-1,691400
23,108667	0,5	-1,726250
23,117000	0,5	-1,767600
23,125333	0,5	-1,806150
23,133667	0,5	-1,837200
23,142000	0,5	-1,863600
23,150333	0,5	-1,881000
23,158667	0,5	-1,900550
23,167000	0,5	-1,912800
23,175333	0,5	-1,928350
23,183667	0,5	-1,936600
23,192000	0,5	-1,953000
23,200333	0,5	-1,951150
23,208667	0,5	-1,980700
23,217000	0,5	-1,983000
23,225333	0,5	-1,978650
23,233667	0,5	-2,025500
23,242000	0,5	-2,047300
23,250333	0,5	-2,050550
23,258667	0,5	-2,046950
23,267000	0,5	-2,043050
23,275333	0,5	-2,047800
23,283667	0,5	-2,038900
23,292000	0,5	-2,024550
23,300333	0,5	-2,004350
23,308667	0,5	-1,987650
23,317000	0,5	-1,975850
23,325333	0,5	-1,953200
23,333667	0,5	-1,938750
23,342000	0,5	-1,916350
23,350333	0,5	-1,896950
23,358667	0,5	-1,913950
23,367000	0,5	-1,871350
23,375333	0,5	-1,846400
23,383667	0,5	-1,860000
23,392000	0,5	-1,855300
23,400333	0,5	-1,848600
23,408667	0,5	-1,828700
23,417000	0,5	-1,821300
23,425333	0,5	-1,804550
23,433667	0,5	-1,787450
23,442000	0,5	-1,762600
23,450333	0,5	-1,741250
23,458667	0,5	-1,717250
23,467000	0,5	-1,693250
23,475333	0,5	-1,664050
23,483667	0,5	-1,637700
23,492000	0,5	-1,610000
23,500333	0,5	-1,667550
23,508667	0,5	-1,603150
23,517000	0,5	-1,559950
23,525333	0,5	-1,512550
23,533667	0,5	-1,504150
23,542000	0,5	-1,494250
23,550333	0,5	-1,474250
23,558667	0,5	-1,458600
23,567000	0,5	-1,442550
23,575333	0,5	-1,429900
23,583667	0,5	-1,411350
23,592000	0,5	-1,391250
23,600333	0,5	-1,370900
23,608667	0,5	-1,350350
23,617000	0,5	-1,331650
23,625333	0,5	-1,311650
23,633667	0,5	-1,291750
23,642000	0,5	-1,290950
23,650333	0,5	-1,360300
23,658667	0,5	-1,303700
23,667000	0,5	-1,243900
23,675333	0,5	-1,200500
23,683667	0,5	-1,182450
23,692000	0,5	-1,165750
23,700333	0,5	-1,151450
23,708667	0,5	-1,134800
23,717000	0,5	-1,116350
23,725333	0,5	-1,097350
23,733667	0,5	-1,074950
23,742000	0,5	-1,056150
23,750333	0,5	-1,042100
23,758667	0,5	-1,021700
23,767000	0,5	-1,004950
23,775333	0,5	-0,989950
23,783667	0,5	-0,973050
23,792000	0,5	-1,077000
23,800333	0,5	-1,060300
23,808667	0,5	-1,018450
23,817000	0,5	-0,953450
23,825333	0,5	-0,921000
23,833667	0,5	-0,905850
23,842000	0,5	-0,894050
23,850333	0,5	-0,885950
23,858667	0,5	-0,871750
23,867000	0,5	-0,853450
23,875333	0,5	-0,832550
23,883667	0,5	-0,816300
23,892000	0,5	-0,793450
23,900333	0,5	-0,775500
23,908667	0,5	-0,751850
23,917000	0,5	-0,734500
23,925333	0,5	-0,709850
23,933667	0,5	-0,702800
23,942000	0,5	-0,828250
23,950333	0,5	-0,782600
23,958667	0,5	-0,731850
23,967000	0,5	-0,676400
23,975333	0,5	-0,646300
23,983667	0,5	-0,635800
23,992000	0,5	-0,628550
24,000333	0,5	-0,615950
24,008667	0,5	-0,611000
24,017000	0,5	-0,589800
24,025333	0,5	-0,576000
24,033667	0,5	-0,557100
24,042000	0,5	-0,543800
24,050333	0,5	-0,523600
24,058667	0,5	-0,508850
24,067000	0,5	-0,488200
24,075333	0,5	-0,477100
24,083667	0,5	-0,506600
24,092000	0,5	-0,576800
24,100333	0,5	-0,533550
24,108667	0,5	-0,481250
24,117000	0,5	-0,429450
24,125333	0,5	-0,407850
24,133667	0,5	-0,389450
24,142000	0,5	-0,385600
24,150333	0,5	-0,379100
24,158667	0,5	-0,360400
24,167000	0,5	-0,336900
24,175333	0,5	-0,322650
24,183667	0,5	-0,314700
24,192000	0,5	-0,294650
24,200333	0,5	-0,281000
24,208667	0,5	-0,261100
24,217000	0,5	-0,248550
24,225333	0,5	-0,236000
24,233667	0,5	-0,321650
24,242000	0,5	-0,308700
24,250333	0,5	-0,290400
24,258667	0,5	-0,238350
24,267000	0,5	-0,208050
24,275333	0,5	-0,191300
24,283667	0,5	-0,186200
24,292000	0,5	-0,188150
24,300333	0,5	-0,169950
24,308667	0,5	-0,152350
24,317000	0,5	-0,137250
24,325333	0,5	-0,116950
24,333667	0,5	-0,103650
24,342000	0,5	-0,089950
24,350333	0,5	-0,073700
24,358667	0,5	-0,059350
24,367000	0,5	-0,044650
24,375333	0,5	-0,047000
24,383667	0,5	-0,118700
24,392000	0,5	-0,093850
24,400333	0,5	-0,063500
24,408667	0,5	-0,027400
24,417000	0,5	-0,004000
24,425333	0,5	0,004400
24,433667	0,5	0,011550
24,442000	0,5	0,005750
24,450333	0,5	0,025100
24,458667	0,5	0,030400
24,467000	0,5	0,039650
24,475333	0,5	0,046150
24,483667	0,5	0,058150
24,492000	0,5	0,072150
24,500333	0,5	0,084050
24,508667	0,5	0,090200
24,517000	0,5	0,100100
24,525333	0,5	0,078900
24,533667	0,5	0,051900
24,542000	0,5	0,079050
24,550333	0,5	0,103300
24,558667	0,5	0,130700
24,567000	0,5	0,143150
24,575333	0,5	0,149100
24,583667	0,5	0,146000
24,592000	0,5	0,149750
24,600333	0,5	0,162600
24,608667	0,5	0,174750
24,617000	0,5	0,178050
24,625333	0,5	0,189000
24,633667	0,5	0,193400
24,642000	0,5	0,200150
24,650333	0,5	0,210750
24,658667	0,5	0,215000
24,667000	0,5	0,220000
24,675333	0,5	0,165000
24,683667	0,5	0,184300
24,692000	0,5	0,198350
24,700333	0,5	0,218200
24,708667	0,5	0,233950
24,717000	0,5	0,242700
24,725333	0,5	0,246550
24,733667	0,5	0,249400
24,742000	0,5	0,249200
24,750333	0,5	0,260750
24,758667	0,5	0,266450
24,767000	0,5	0,276750
24,775333	0,5	0,274650
24,783667	0,5	0,284400
24,792000	0,5	0,290450
24,800333	0,5	0,297350
24,808667	0,5	0,300800
24,817000	0,5	0,303150
24,825333	0,5	0,270250
24,833667	0,5	0,281500
24,842000	0,5	0,292300
24,850333	0,5	0,308950
24,858667	0,5	0,316850
24,867000	0,5	0,320950
24,875333	0,5	0,314350
24,883667	0,5	0,311100
24,892000	0,5	0,319500
24,900333	0,5	0,321400
24,908667	0,5	0,329550
24,917000	0,5	0,329950
24,925333	0,5	0,340800
24,933667	0,5	0,344250
24,942000	0,5	0,348650
24,950333	0,5	0,353900
24,958667	0,5	0,359300
24,967000	0,5	0,350150
24,975333	0,5	0,338200
24,983667	0,5	0,350000
24,992000	0,5	0,358550
25,000333	0,5	0,365550
25,008667	0,5	0,370750
25,017000	0,5	0,371650
25,025333	0,5	0,370550
25,033667	0,5	0,368400
25,042000	0,5	0,368150
25,050333	0,5	0,370450
25,058667	0,5	0,370350
25,067000	0,5	0,376250
25,075333	0,5	0,370950
25,083667	0,5	0,373000
25,092000	0,5	0,376500
25,100333	0,5	0,380700
25,108667	0,5	0,383400
25,117000	0,5	0,373800
25,125333	0,5	0,380950
25,133667	0,5	0,384050
25,142000	0,5	0,391550
25,150333	0,5	0,393750
25,158667	0,5	0,396550
25,167000	0,5	0,395150
25,175333	0,5	0,392650
25,183667	0,5	0,393250
25,192000	0,5	0,394100
25,200333	0,5	0,395050
25,208667	0,5	0,395500
25,217000	0,5	0,394400
25,225333	0,5	0,394150
25,233667	0,5	0,396600
25,242000	0,5	0,396900
25,250333	0,5	0,397450
25,258667	0,5	0,398450
25,267000	0,5	0,392650
25,275333	0,5	0,396300
25,283667	0,5	0,396000
25,292000	0,5	0,399850
25,300333	0,5	0,403250
25,308667	0,5	0,401600
25,317000	0,5	0,403500
25,325333	0,5	0,401000
25,333667	0,5	0,401200
25,342000	0,5	0,401650
25,350333	0,5	0,402650
25,358667	0,5	0,402050
25,367000	0,5	0,403700
25,375333	0,5	0,400100
25,383667	0,5	0,400900
25,392000	0,5	0,400250
25,400333	0,5	0,404550
25,408667	0,5	0,401800
25,417000	0,5	0,401100
25,425333	0,5	0,403500
25,433667	0,5	0,401950
25,442000	0,5	0,398400
25,450333	0,5	0,396350
25,458667	0,5	0,395800
25,467000	0,5	0,396300
25,475333	0,5	0,397000
25,483667	0,5	0,396200
25,492000	0,5	0,397950
25,500333	0,5	0,394850
25,508667	0,5	0,397000
25,517000	0,5	0,394850
25,525333	0,5	0,399900
25,533667	0,5	0,398500
25,542000	0,5	0,396950
25,550333	0,5	0,395250
25,558667	0,5	0,398200
25,567000	0,5	0,400400
25,575333	0,5	0,400400
25,583667	0,5	0,394100
25,592000	0,5	0,395550
25,600333	0,5	0,391250
25,608667	0,5	0,386900
25,617000	0,5	0,387750
25,625333	0,5	0,386800
25,633667	0,5	0,387050
25,642000	0,5	0,386550
25,650333	0,5	0,385800
25,658667	0,5	0,385100
25,667000	0,5	0,385400
25,675333	0,5	0,381750
25,683667	0,5	0,381050
25,692000	0,5	0,382350
25,700333	0,5	0,379850
25,708667	0,5	0,390300
25,717000	0,5	0,388150
25,725333	0,5	0,390600
25,733667	0,5	0,382250
25,742000	0,5	0,380650
25,750333	0,5	0,377350
25,758667	0,5	0,374650
25,767000	0,5	0,377900
25,775333	0,5	0,378300
25,783667	0,5	0,372150
25,792000	0,5	0,373750
25,800333	0,5	0,370100
25,808667	0,5	0,370050
25,817000	0,5	0,368700
25,825333	0,5	0,366350
25,833667	0,5	0,366350
25,842000	0,5	0,367250
25,850333	0,5	0,367850
25,858667	0,5	0,373800
25,867000	0,5	0,372000
25,875333	0,5	0,373100
25,883667	0,5	0,363550
25,892000	0,5	0,362350
25,900333	0,5	0,364100
25,908667	0,5	0,363250
25,917000	0,5	0,368000
25,925333	0,5	0,368100
25,933667	0,5	0,369750
25,942000	0,5	0,363750
25,950333	0,5	0,366000
25,958667	0,5	0,361850
25,967000	0,5	0,362450
25,975333	0,5	0,359450
25,983667	0,5	0,362450
25,992000	0,5	0,360850
26,000333	0,5	0,367950
