File Path	chrom://chromeleon01/ikbm_chromeleon/2022/ICS-5000/ED1/Esteban/20220612_Cell_7_4_eg.seq/632.smp/ED_1.channel/ED_1.chm
Channel	ED_1

Injection Information:
Data Vault	ikbm_chromeleon
Injection	7_24h-EGI-pH6_1
Injection Number	19
Position	RB6
Comment	
Processing Method	Stop sequence after Cell Death
Instrument Method	ICS5000_PA200_FullNative_Ox_26min_ED1
Type	Unknown
Status	Finished
Injection Date	13.06.2022
Injection Time	00:36:43
Injection Volume (µl)	5,0
Dilution Factor	1,0000
Weight	1,0000

Chromatogram Data Information:
Time Min. (min)	0,000333
Time Max. (min)	26,000333
Data Points	3121
Detector	EDet1
Generating Data System	Chromeleon 7.2.9.11323
Exporting Data System	Chromeleon 7.2.9.0
Operator	Instrument Controller
Signal Quantity	
Signal Unit	nC
Signal Min.	-1,428050
Signal Max.	2 625,801089
Channel	ED_1
Driver Name	DC-5000
Channel Type	Evaluation
Min. Step (s)	0,5
Max. Step (s)	0,5
Average Step (s)	0,5

Signal Parameter Information:
Signal Info	

Chromatogram Data:
Time (min)	Step (s)	Value (nC)
0,000333	n.a.	-0,059100
0,008667	0,5	-0,055350
0,017000	0,5	-0,044050
0,025333	0,5	-0,043300
0,033667	0,5	-0,034200
0,042000	0,5	-0,044350
0,050333	0,5	-0,037000
0,058667	0,5	-0,020250
0,067000	0,5	-0,029200
0,075333	0,5	-0,036250
0,083667	0,5	-0,031850
0,092000	0,5	-0,021350
0,100333	0,5	0,001600
0,108667	0,5	-0,000450
0,117000	0,5	-0,000450
0,125333	0,5	-0,001050
0,133667	0,5	0,004000
0,142000	0,5	-0,002750
0,150333	0,5	-0,005400
0,158667	0,5	-0,003650
0,167000	0,5	-0,007200
0,175333	0,5	-0,001550
0,183667	0,5	-0,009100
0,192000	0,5	-0,014800
0,200333	0,5	-0,016200
0,208667	0,5	-0,005100
0,217000	0,5	-0,022350
0,225333	0,5	-0,017150
0,233667	0,5	-0,017600
0,242000	0,5	-0,000900
0,250333	0,5	0,011800
0,258667	0,5	0,015800
0,267000	0,5	0,006900
0,275333	0,5	0,008200
0,283667	0,5	0,008750
0,292000	0,5	0,031550
0,300333	0,5	0,046950
0,308667	0,5	0,031800
0,317000	0,5	0,006000
0,325333	0,5	-0,006850
0,333667	0,5	-0,012700
0,342000	0,5	-0,017800
0,350333	0,5	-0,005250
0,358667	0,5	-0,003350
0,367000	0,5	-0,013800
0,375333	0,5	-0,011550
0,383667	0,5	-0,006900
0,392000	0,5	0,005600
0,400333	0,5	0,016100
0,408667	0,5	0,012050
0,417000	0,5	0,017250
0,425333	0,5	0,010750
0,433667	0,5	0,014800
0,442000	0,5	0,006850
0,450333	0,5	0,016950
0,458667	0,5	0,010800
0,467000	0,5	0,009850
0,475333	0,5	0,009600
0,483667	0,5	-0,004500
0,492000	0,5	-0,002150
0,500333	0,5	0,017450
0,508667	0,5	0,003300
0,517000	0,5	-0,003450
0,525333	0,5	0,002350
0,533667	0,5	0,007800
0,542000	0,5	0,033900
0,550333	0,5	0,030500
0,558667	0,5	0,032450
0,567000	0,5	0,030700
0,575333	0,5	0,032700
0,583667	0,5	0,028400
0,592000	0,5	0,031450
0,600333	0,5	0,027150
0,608667	0,5	0,029700
0,617000	0,5	0,029950
0,625333	0,5	0,034400
0,633667	0,5	0,020350
0,642000	0,5	0,030600
0,650333	0,5	0,040800
0,658667	0,5	0,027650
0,667000	0,5	0,022150
0,675333	0,5	0,029200
0,683667	0,5	0,039150
0,692000	0,5	0,056500
0,700333	0,5	0,048300
0,708667	0,5	0,047600
0,717000	0,5	0,049650
0,725333	0,5	0,051100
0,733667	0,5	0,059350
0,742000	0,5	0,057450
0,750333	0,5	0,055750
0,758667	0,5	0,050550
0,767000	0,5	0,053900
0,775333	0,5	0,057500
0,783667	0,5	0,052250
0,792000	0,5	0,061450
0,800333	0,5	0,066750
0,808667	0,5	0,053700
0,817000	0,5	0,055650
0,825333	0,5	0,057850
0,833667	0,5	0,077400
0,842000	0,5	0,087200
0,850333	0,5	0,076150
0,858667	0,5	0,078150
0,867000	0,5	0,084950
0,875333	0,5	0,087150
0,883667	0,5	0,086650
0,892000	0,5	0,087500
0,900333	0,5	0,085600
0,908667	0,5	0,088500
0,917000	0,5	0,086800
0,925333	0,5	0,099850
0,933667	0,5	0,081600
0,942000	0,5	0,100800
0,950333	0,5	0,086600
0,958667	0,5	0,085950
0,967000	0,5	0,084850
0,975333	0,5	0,097300
0,983667	0,5	0,111700
0,992000	0,5	0,119950
1,000333	0,5	0,109200
1,008667	0,5	0,116350
1,017000	0,5	0,122900
1,025333	0,5	0,125850
1,033667	0,5	0,121350
1,042000	0,5	0,122250
1,050333	0,5	0,123950
1,058667	0,5	0,119550
1,067000	0,5	0,124550
1,075333	0,5	0,109400
1,083667	0,5	0,111300
1,092000	0,5	0,122850
1,100333	0,5	0,111500
1,108667	0,5	0,113050
1,117000	0,5	0,114850
1,125333	0,5	0,125850
1,133667	0,5	0,145350
1,142000	0,5	0,139250
1,150333	0,5	0,141700
1,158667	0,5	0,135600
1,167000	0,5	0,142850
1,175333	0,5	0,136000
1,183667	0,5	0,138350
1,192000	0,5	0,127700
1,200333	0,5	0,130650
1,208667	0,5	0,133750
1,217000	0,5	0,129800
1,225333	0,5	0,123550
1,233667	0,5	0,129200
1,242000	0,5	0,129050
1,250333	0,5	0,112800
1,258667	0,5	0,115600
1,267000	0,5	0,113200
1,275333	0,5	0,126500
1,283667	0,5	0,131050
1,292000	0,5	0,135800
1,300333	0,5	0,127100
1,308667	0,5	0,133050
1,317000	0,5	0,121000
1,325333	0,5	0,122250
1,333667	0,5	0,113300
1,342000	0,5	0,112750
1,350333	0,5	0,107550
1,358667	0,5	0,104400
1,367000	0,5	0,099100
1,375333	0,5	0,096100
1,383667	0,5	0,098950
1,392000	0,5	0,091800
1,400333	0,5	0,080150
1,408667	0,5	0,081350
1,417000	0,5	0,078450
1,425333	0,5	0,088000
1,433667	0,5	0,092400
1,442000	0,5	0,083950
1,450333	0,5	0,086350
1,458667	0,5	0,082950
1,467000	0,5	0,085450
1,475333	0,5	0,076950
1,483667	0,5	0,076000
1,492000	0,5	0,067700
1,500333	0,5	0,069500
1,508667	0,5	0,061700
1,517000	0,5	0,049500
1,525333	0,5	0,040850
1,533667	0,5	0,055850
1,542000	0,5	0,042200
1,550333	0,5	0,044350
1,558667	0,5	0,066950
1,567000	0,5	0,126350
1,575333	0,5	0,456450
1,583667	0,5	2,851400
1,592000	0,5	14,816050
1,600333	0,5	59,231051
1,608667	0,5	196,803903
1,617000	0,5	513,507858
1,625333	0,5	975,164715
1,633667	0,5	1 360,800220
1,642000	0,5	1 464,839622
1,650333	0,5	1 282,837819
1,658667	0,5	960,615214
1,667000	0,5	667,369710
1,675333	0,5	462,666907
1,683667	0,5	334,227755
1,692000	0,5	255,505704
1,700333	0,5	212,480453
1,708667	0,5	186,726803
1,717000	0,5	163,521302
1,725333	0,5	138,816952
1,733667	0,5	116,682402
1,742000	0,5	101,853352
1,750333	0,5	95,432901
1,758667	0,5	95,026501
1,767000	0,5	96,869051
1,775333	0,5	97,566701
1,783667	0,5	94,957501
1,792000	0,5	89,027951
1,800333	0,5	81,543751
1,808667	0,5	74,260051
1,817000	0,5	68,173551
1,825333	0,5	63,949051
1,833667	0,5	62,474051
1,842000	0,5	64,460251
1,850333	0,5	68,379051
1,858667	0,5	71,088801
1,867000	0,5	75,124301
1,875333	0,5	92,444901
1,883667	0,5	146,377452
1,892000	0,5	288,458104
1,900333	0,5	579,794059
1,908667	0,5	928,675814
1,917000	0,5	1 082,034166
1,925333	0,5	959,559814
1,933667	0,5	701,847860
1,942000	0,5	468,124057
1,950333	0,5	313,562105
1,958667	0,5	224,988803
1,967000	0,5	178,069753
1,975333	0,5	151,177252
1,983667	0,5	130,334852
1,992000	0,5	113,117652
2,000333	0,5	100,061101
2,008667	0,5	88,929851
2,017000	0,5	78,786451
2,025333	0,5	71,218701
2,033667	0,5	66,932951
2,042000	0,5	64,831601
2,050333	0,5	63,748751
2,058667	0,5	64,081751
2,067000	0,5	64,684001
2,075333	0,5	62,121501
2,083667	0,5	56,015401
2,092000	0,5	49,500601
2,100333	0,5	44,559201
2,108667	0,5	41,159901
2,117000	0,5	38,862651
2,125333	0,5	37,354801
2,133667	0,5	36,265851
2,142000	0,5	35,462301
2,150333	0,5	34,900101
2,158667	0,5	34,425351
2,167000	0,5	33,988551
2,175333	0,5	34,311751
2,183667	0,5	37,832101
2,192000	0,5	41,507801
2,200333	0,5	38,938901
2,208667	0,5	33,542600
2,217000	0,5	30,280750
2,225333	0,5	28,837650
2,233667	0,5	28,279950
2,242000	0,5	28,147950
2,250333	0,5	28,229500
2,258667	0,5	28,459050
2,267000	0,5	29,021200
2,275333	0,5	30,387050
2,283667	0,5	33,297250
2,292000	0,5	38,337101
2,300333	0,5	46,771101
2,308667	0,5	64,878951
2,317000	0,5	101,406452
2,325333	0,5	157,598852
2,333667	0,5	240,973504
2,342000	0,5	428,532556
2,350333	0,5	1 011,614865
2,358667	0,5	1 561,289673
2,367000	0,5	2 462,835287
2,375333	0,5	2 625,801089
2,383667	0,5	2 579,479988
2,392000	0,5	2 409,414936
2,400333	0,5	2 154,475282
2,408667	0,5	1 854,198828
2,417000	0,5	1 556,304523
2,425333	0,5	1 294,420569
2,433667	0,5	1 066,201466
2,442000	0,5	866,828063
2,450333	0,5	700,233460
2,458667	0,5	570,627859
2,467000	0,5	479,531757
2,475333	0,5	417,928056
2,483667	0,5	376,902106
2,492000	0,5	343,185405
2,500333	0,5	306,767255
2,508667	0,5	265,205054
2,517000	0,5	222,736503
2,525333	0,5	184,846403
2,533667	0,5	154,570652
2,542000	0,5	131,975202
2,550333	0,5	115,638452
2,558667	0,5	103,843252
2,567000	0,5	95,323501
2,575333	0,5	89,093951
2,583667	0,5	84,620501
2,592000	0,5	81,268501
2,600333	0,5	78,243651
2,608667	0,5	74,816101
2,617000	0,5	70,644201
2,625333	0,5	66,009001
2,633667	0,5	61,444251
2,642000	0,5	57,388951
2,650333	0,5	54,101251
2,658667	0,5	51,615451
2,667000	0,5	49,817701
2,675333	0,5	48,631801
2,683667	0,5	48,252751
2,692000	0,5	49,394201
2,700333	0,5	53,073451
2,708667	0,5	59,508701
2,717000	0,5	66,547901
2,725333	0,5	70,475301
2,733667	0,5	69,165151
2,742000	0,5	63,492401
2,750333	0,5	55,796251
2,758667	0,5	48,219801
2,767000	0,5	41,996501
2,775333	0,5	37,461201
2,783667	0,5	34,268301
2,792000	0,5	31,953000
2,800333	0,5	30,131100
2,808667	0,5	28,605550
2,817000	0,5	27,266850
2,825333	0,5	26,085400
2,833667	0,5	25,062600
2,842000	0,5	24,160000
2,850333	0,5	23,350850
2,858667	0,5	22,620600
2,867000	0,5	21,934900
2,875333	0,5	21,325850
2,883667	0,5	20,828950
2,892000	0,5	20,410100
2,900333	0,5	20,024650
2,908667	0,5	19,610450
2,917000	0,5	19,181000
2,925333	0,5	18,791850
2,933667	0,5	18,465000
2,942000	0,5	18,135000
2,950333	0,5	17,774550
2,958667	0,5	17,401150
2,967000	0,5	17,082700
2,975333	0,5	16,820200
2,983667	0,5	16,625450
2,992000	0,5	16,477400
3,000333	0,5	16,356800
3,008667	0,5	16,272250
3,017000	0,5	16,185350
3,025333	0,5	16,094400
3,033667	0,5	16,047900
3,042000	0,5	16,191250
3,050333	0,5	16,603300
3,058667	0,5	17,165400
3,067000	0,5	17,641850
3,075333	0,5	17,852350
3,083667	0,5	17,649600
3,092000	0,5	17,066300
3,100333	0,5	16,240750
3,108667	0,5	15,368800
3,117000	0,5	14,576200
3,125333	0,5	13,934000
3,133667	0,5	13,433600
3,142000	0,5	13,036250
3,150333	0,5	12,724900
3,158667	0,5	12,477600
3,167000	0,5	12,242350
3,175333	0,5	12,041600
3,183667	0,5	11,850450
3,192000	0,5	11,670950
3,200333	0,5	11,484600
3,208667	0,5	11,286300
3,217000	0,5	11,102200
3,225333	0,5	10,951650
3,233667	0,5	10,856200
3,242000	0,5	10,805900
3,250333	0,5	10,805000
3,258667	0,5	10,832850
3,267000	0,5	10,882650
3,275333	0,5	10,931050
3,283667	0,5	10,986850
3,292000	0,5	11,047850
3,300333	0,5	11,153950
3,308667	0,5	11,315400
3,317000	0,5	11,575500
3,325333	0,5	12,024900
3,333667	0,5	12,751650
3,342000	0,5	13,864550
3,350333	0,5	15,423500
3,358667	0,5	17,424500
3,367000	0,5	19,807150
3,375333	0,5	22,494400
3,383667	0,5	25,522300
3,392000	0,5	29,231550
3,400333	0,5	34,344401
3,408667	0,5	41,821501
3,417000	0,5	52,322601
3,425333	0,5	65,484401
3,433667	0,5	79,349351
3,442000	0,5	90,979701
3,450333	0,5	97,538401
3,458667	0,5	97,429851
3,467000	0,5	91,005801
3,475333	0,5	80,100851
3,483667	0,5	67,033701
3,492000	0,5	54,012301
3,500333	0,5	42,555901
3,508667	0,5	33,465550
3,517000	0,5	26,870200
3,525333	0,5	22,453350
3,533667	0,5	19,675350
3,542000	0,5	17,978600
3,550333	0,5	16,890050
3,558667	0,5	16,074700
3,567000	0,5	15,361800
3,575333	0,5	14,699050
3,583667	0,5	14,117750
3,592000	0,5	13,671150
3,600333	0,5	13,389600
3,608667	0,5	13,213250
3,617000	0,5	13,124700
3,625333	0,5	13,050000
3,633667	0,5	12,927100
3,642000	0,5	12,725900
3,650333	0,5	12,421300
3,658667	0,5	12,039750
3,667000	0,5	11,635350
3,675333	0,5	11,227500
3,683667	0,5	10,842200
3,692000	0,5	10,490200
3,700333	0,5	10,169500
3,708667	0,5	9,873500
3,717000	0,5	9,600700
3,725333	0,5	9,347650
3,733667	0,5	9,101550
3,742000	0,5	8,913700
3,750333	0,5	8,781250
3,758667	0,5	8,715650
3,767000	0,5	8,759300
3,775333	0,5	8,920150
3,783667	0,5	9,179400
3,792000	0,5	9,496400
3,800333	0,5	9,759750
3,808667	0,5	9,924950
3,817000	0,5	9,899300
3,825333	0,5	9,689750
3,833667	0,5	9,310800
3,842000	0,5	8,847000
3,850333	0,5	8,361000
3,858667	0,5	7,914950
3,867000	0,5	7,545300
3,875333	0,5	7,244050
3,883667	0,5	7,014800
3,892000	0,5	6,860400
3,900333	0,5	6,727750
3,908667	0,5	6,631400
3,917000	0,5	6,557200
3,925333	0,5	6,504750
3,933667	0,5	6,476550
3,942000	0,5	6,451900
3,950333	0,5	6,438350
3,958667	0,5	6,429150
3,967000	0,5	6,436950
3,975333	0,5	6,444900
3,983667	0,5	6,456300
3,992000	0,5	6,461400
4,000333	0,5	6,462700
4,008667	0,5	6,451600
4,017000	0,5	6,435800
4,025333	0,5	6,401650
4,033667	0,5	6,364450
4,042000	0,5	6,333750
4,050333	0,5	6,290150
4,058667	0,5	6,255350
4,067000	0,5	6,240300
4,075333	0,5	6,248200
4,083667	0,5	6,282450
4,092000	0,5	6,338750
4,100333	0,5	6,403250
4,108667	0,5	6,493000
4,117000	0,5	6,594450
4,125333	0,5	6,698050
4,133667	0,5	6,787050
4,142000	0,5	6,863800
4,150333	0,5	6,921400
4,158667	0,5	6,973100
4,167000	0,5	7,009700
4,175333	0,5	7,063850
4,183667	0,5	7,145350
4,192000	0,5	7,289700
4,200333	0,5	7,487550
4,208667	0,5	7,774100
4,217000	0,5	8,112450
4,225333	0,5	8,477900
4,233667	0,5	8,797350
4,242000	0,5	8,993650
4,250333	0,5	9,033850
4,258667	0,5	8,896700
4,267000	0,5	8,611000
4,275333	0,5	8,218550
4,283667	0,5	7,779000
4,292000	0,5	7,345100
4,300333	0,5	6,968650
4,308667	0,5	6,666000
4,317000	0,5	6,443600
4,325333	0,5	6,289700
4,333667	0,5	6,213550
4,342000	0,5	6,179150
4,350333	0,5	6,171800
4,358667	0,5	6,186350
4,367000	0,5	6,203850
4,375333	0,5	6,210150
4,383667	0,5	6,193200
4,392000	0,5	6,145700
4,400333	0,5	6,086100
4,408667	0,5	6,017500
4,417000	0,5	5,952600
4,425333	0,5	5,883000
4,433667	0,5	5,824450
4,442000	0,5	5,765850
4,450333	0,5	5,710350
4,458667	0,5	5,659400
4,467000	0,5	5,594300
4,475333	0,5	5,531850
4,483667	0,5	5,474050
4,492000	0,5	5,394150
4,500333	0,5	5,313900
4,508667	0,5	5,244850
4,517000	0,5	5,174150
4,525333	0,5	5,128600
4,533667	0,5	5,068850
4,542000	0,5	5,026000
4,550333	0,5	4,977600
4,558667	0,5	4,946850
4,567000	0,5	4,909550
4,575333	0,5	4,872300
4,583667	0,5	4,830650
4,592000	0,5	4,790050
4,600333	0,5	4,750000
4,608667	0,5	4,713700
4,617000	0,5	4,675000
4,625333	0,5	4,646800
4,633667	0,5	4,633900
4,642000	0,5	4,607400
4,650333	0,5	4,594650
4,658667	0,5	4,589900
4,667000	0,5	4,593400
4,675333	0,5	4,612900
4,683667	0,5	4,631300
4,692000	0,5	4,661100
4,700333	0,5	4,724150
4,708667	0,5	4,803250
4,717000	0,5	4,914750
4,725333	0,5	5,043950
4,733667	0,5	5,190500
4,742000	0,5	5,336050
4,750333	0,5	5,471700
4,758667	0,5	5,579450
4,767000	0,5	5,627700
4,775333	0,5	5,637500
4,783667	0,5	5,601700
4,792000	0,5	5,515150
4,800333	0,5	5,413250
4,808667	0,5	5,310000
4,817000	0,5	5,220850
4,825333	0,5	5,153400
4,833667	0,5	5,111700
4,842000	0,5	5,120150
4,850333	0,5	5,170200
4,858667	0,5	5,278500
4,867000	0,5	5,422000
4,875333	0,5	5,603650
4,883667	0,5	5,791300
4,892000	0,5	5,981200
4,900333	0,5	6,130850
4,908667	0,5	6,226050
4,917000	0,5	6,247850
4,925333	0,5	6,205550
4,933667	0,5	6,084300
4,942000	0,5	5,902000
4,950333	0,5	5,684850
4,958667	0,5	5,446150
4,967000	0,5	5,208350
4,975333	0,5	4,971150
4,983667	0,5	4,755700
4,992000	0,5	4,565300
5,000333	0,5	4,413650
5,008667	0,5	4,290700
5,017000	0,5	4,196700
5,025333	0,5	4,122600
5,033667	0,5	4,077700
5,042000	0,5	4,041350
5,050333	0,5	4,025700
5,058667	0,5	4,006450
5,067000	0,5	3,996200
5,075333	0,5	3,997950
5,083667	0,5	3,989100
5,092000	0,5	3,986350
5,100333	0,5	3,977350
5,108667	0,5	3,977900
5,117000	0,5	3,982700
5,125333	0,5	3,985800
5,133667	0,5	3,995050
5,142000	0,5	4,018700
5,150333	0,5	4,055450
5,158667	0,5	4,098900
5,167000	0,5	4,162750
5,175333	0,5	4,231900
5,183667	0,5	4,293650
5,192000	0,5	4,348200
5,200333	0,5	4,383250
5,208667	0,5	4,403250
5,217000	0,5	4,401500
5,225333	0,5	4,387950
5,233667	0,5	4,352750
5,242000	0,5	4,325250
5,250333	0,5	4,300400
5,258667	0,5	4,302000
5,267000	0,5	4,315300
5,275333	0,5	4,353300
5,283667	0,5	4,414700
5,292000	0,5	4,502250
5,300333	0,5	4,604050
5,308667	0,5	4,714950
5,317000	0,5	4,817350
5,325333	0,5	4,907200
5,333667	0,5	4,974900
5,342000	0,5	5,020600
5,350333	0,5	5,041750
5,358667	0,5	5,047000
5,367000	0,5	5,064200
5,375333	0,5	5,073800
5,383667	0,5	5,085400
5,392000	0,5	5,101000
5,400333	0,5	5,113700
5,408667	0,5	5,125400
5,417000	0,5	5,118550
5,425333	0,5	5,083300
5,433667	0,5	5,033900
5,442000	0,5	4,953400
5,450333	0,5	4,857650
5,458667	0,5	4,742350
5,467000	0,5	4,619500
5,475333	0,5	4,485650
5,483667	0,5	4,360850
5,492000	0,5	4,249600
5,500333	0,5	4,148000
5,508667	0,5	4,070500
5,517000	0,5	4,028500
5,525333	0,5	3,998000
5,533667	0,5	3,986100
5,542000	0,5	3,998100
5,550333	0,5	4,021400
5,558667	0,5	4,064300
5,567000	0,5	4,091350
5,575333	0,5	4,127750
5,583667	0,5	4,156550
5,592000	0,5	4,189100
5,600333	0,5	4,211650
5,608667	0,5	4,236900
5,617000	0,5	4,249650
5,625333	0,5	4,262400
5,633667	0,5	4,278800
5,642000	0,5	4,290700
5,650333	0,5	4,300350
5,658667	0,5	4,314250
5,667000	0,5	4,331400
5,675333	0,5	4,327650
5,683667	0,5	4,317650
5,692000	0,5	4,292950
5,700333	0,5	4,253250
5,708667	0,5	4,199200
5,717000	0,5	4,127050
5,725333	0,5	4,047150
5,733667	0,5	3,979550
5,742000	0,5	3,920350
5,750333	0,5	3,883650
5,758667	0,5	3,877500
5,767000	0,5	3,900500
5,775333	0,5	3,950450
5,783667	0,5	4,032650
5,792000	0,5	4,122700
5,800333	0,5	4,207750
5,808667	0,5	4,274600
5,817000	0,5	4,311700
5,825333	0,5	4,297100
5,833667	0,5	4,247400
5,842000	0,5	4,161450
5,850333	0,5	4,060300
5,858667	0,5	3,951900
5,867000	0,5	3,833650
5,875333	0,5	3,738600
5,883667	0,5	3,664950
5,892000	0,5	3,615250
5,900333	0,5	3,599550
5,908667	0,5	3,610600
5,917000	0,5	3,656700
5,925333	0,5	3,742450
5,933667	0,5	3,872050
5,942000	0,5	4,040250
5,950333	0,5	4,242800
5,958667	0,5	4,489250
5,967000	0,5	4,728200
5,975333	0,5	4,952850
5,983667	0,5	5,133550
5,992000	0,5	5,251100
6,000333	0,5	5,288200
6,008667	0,5	5,243400
6,017000	0,5	5,127500
6,025333	0,5	4,965650
6,033667	0,5	4,784200
6,042000	0,5	4,612200
6,050333	0,5	4,477500
6,058667	0,5	4,394200
6,067000	0,5	4,381200
6,075333	0,5	4,441950
6,083667	0,5	4,576150
6,092000	0,5	4,743600
6,100333	0,5	4,933200
6,108667	0,5	5,116600
6,117000	0,5	5,259050
6,125333	0,5	5,378000
6,133667	0,5	5,509800
6,142000	0,5	5,709400
6,150333	0,5	6,047900
6,158667	0,5	6,558600
6,167000	0,5	7,287100
6,175333	0,5	8,232750
6,183667	0,5	9,356350
6,192000	0,5	10,563100
6,200333	0,5	11,727050
6,208667	0,5	12,710050
6,217000	0,5	13,421700
6,225333	0,5	13,823200
6,233667	0,5	13,910750
6,242000	0,5	13,753200
6,250333	0,5	13,479900
6,258667	0,5	13,274050
6,267000	0,5	13,372950
6,275333	0,5	14,056500
6,283667	0,5	15,445850
6,292000	0,5	17,469450
6,300333	0,5	19,732750
6,308667	0,5	21,658000
6,317000	0,5	22,651850
6,325333	0,5	22,418350
6,333667	0,5	20,994750
6,342000	0,5	18,733500
6,350333	0,5	16,094050
6,358667	0,5	13,503850
6,367000	0,5	11,255800
6,375333	0,5	9,503500
6,383667	0,5	8,280200
6,392000	0,5	7,552500
6,400333	0,5	7,273850
6,408667	0,5	7,333100
6,417000	0,5	7,336300
6,425333	0,5	7,024550
6,433667	0,5	6,512300
6,442000	0,5	5,842100
6,450333	0,5	5,206450
6,458667	0,5	4,706350
6,467000	0,5	4,335550
6,475333	0,5	4,031550
6,483667	0,5	3,815850
6,492000	0,5	3,660900
6,500333	0,5	3,548100
6,508667	0,5	3,451250
6,517000	0,5	3,369700
6,525333	0,5	3,291650
6,533667	0,5	3,219800
6,542000	0,5	3,153750
6,550333	0,5	3,112700
6,558667	0,5	3,058950
6,567000	0,5	3,017750
6,575333	0,5	2,984100
6,583667	0,5	2,959150
6,592000	0,5	2,944500
6,600333	0,5	2,924350
6,608667	0,5	2,912350
6,617000	0,5	2,899600
6,625333	0,5	2,895300
6,633667	0,5	2,886250
6,642000	0,5	2,883100
6,650333	0,5	2,876600
6,658667	0,5	2,880900
6,667000	0,5	2,877800
6,675333	0,5	2,881450
6,683667	0,5	2,881650
6,692000	0,5	2,881600
6,700333	0,5	2,893250
6,708667	0,5	2,897600
6,717000	0,5	2,902450
6,725333	0,5	2,913250
6,733667	0,5	2,923950
6,742000	0,5	2,939250
6,750333	0,5	2,947650
6,758667	0,5	2,960050
6,767000	0,5	2,969350
6,775333	0,5	2,979600
6,783667	0,5	2,991850
6,792000	0,5	3,005650
6,800333	0,5	3,017900
6,808667	0,5	3,032050
6,817000	0,5	3,047000
6,825333	0,5	3,061250
6,833667	0,5	3,070750
6,842000	0,5	3,086600
6,850333	0,5	3,105200
6,858667	0,5	3,115750
6,867000	0,5	3,131300
6,875333	0,5	3,148800
6,883667	0,5	3,170300
6,892000	0,5	3,191150
6,900333	0,5	3,206750
6,908667	0,5	3,220750
6,917000	0,5	3,234000
6,925333	0,5	3,247800
6,933667	0,5	3,256900
6,942000	0,5	3,262350
6,950333	0,5	3,267950
6,958667	0,5	3,271800
6,967000	0,5	3,273750
6,975333	0,5	3,269400
6,983667	0,5	3,262000
6,992000	0,5	3,259450
7,000333	0,5	3,246800
7,008667	0,5	3,233400
7,017000	0,5	3,216600
7,025333	0,5	3,204250
7,033667	0,5	3,192100
7,042000	0,5	3,178700
7,050333	0,5	3,158300
7,058667	0,5	3,144400
7,067000	0,5	3,124400
7,075333	0,5	3,111100
7,083667	0,5	3,097050
7,092000	0,5	3,082650
7,100333	0,5	3,069600
7,108667	0,5	3,062900
7,117000	0,5	3,055150
7,125333	0,5	3,049000
7,133667	0,5	3,048650
7,142000	0,5	3,055600
7,150333	0,5	3,059250
7,158667	0,5	3,077100
7,167000	0,5	3,094000
7,175333	0,5	3,125300
7,183667	0,5	3,168750
7,192000	0,5	3,214200
7,200333	0,5	3,269050
7,208667	0,5	3,330500
7,217000	0,5	3,408000
7,225333	0,5	3,496300
7,233667	0,5	3,601000
7,242000	0,5	3,723100
7,250333	0,5	3,869300
7,258667	0,5	4,041750
7,267000	0,5	4,244550
7,275333	0,5	4,493850
7,283667	0,5	4,795650
7,292000	0,5	5,162650
7,300333	0,5	5,604900
7,308667	0,5	6,136600
7,317000	0,5	6,771950
7,325333	0,5	7,517800
7,333667	0,5	8,366900
7,342000	0,5	9,297550
7,350333	0,5	10,277800
7,358667	0,5	11,263550
7,367000	0,5	12,190600
7,375333	0,5	12,984900
7,383667	0,5	13,585350
7,392000	0,5	13,931000
7,400333	0,5	13,980950
7,408667	0,5	13,726350
7,417000	0,5	13,183150
7,425333	0,5	12,390750
7,433667	0,5	11,425500
7,442000	0,5	10,339650
7,450333	0,5	9,215800
7,458667	0,5	8,123450
7,467000	0,5	7,121450
7,475333	0,5	6,241800
7,483667	0,5	5,498800
7,492000	0,5	4,893350
7,500333	0,5	4,420300
7,508667	0,5	4,061300
7,517000	0,5	3,799300
7,525333	0,5	3,612200
7,533667	0,5	3,488800
7,542000	0,5	3,406050
7,550333	0,5	3,360250
7,558667	0,5	3,342000
7,567000	0,5	3,340500
7,575333	0,5	3,362800
7,583667	0,5	3,410550
7,592000	0,5	3,470800
7,600333	0,5	3,557750
7,608667	0,5	3,673500
7,617000	0,5	3,808350
7,625333	0,5	3,962850
7,633667	0,5	4,124200
7,642000	0,5	4,282300
7,650333	0,5	4,436300
7,658667	0,5	4,582500
7,667000	0,5	4,724850
7,675333	0,5	4,873000
7,683667	0,5	5,034650
7,692000	0,5	5,210700
7,700333	0,5	5,398450
7,708667	0,5	5,569350
7,717000	0,5	5,679200
7,725333	0,5	5,715050
7,733667	0,5	5,639750
7,742000	0,5	5,446700
7,750333	0,5	5,163450
7,758667	0,5	4,831950
7,767000	0,5	4,500200
7,775333	0,5	4,207100
7,783667	0,5	3,970900
7,792000	0,5	3,804250
7,800333	0,5	3,700150
7,808667	0,5	3,639100
7,817000	0,5	3,609300
7,825333	0,5	3,588850
7,833667	0,5	3,567650
7,842000	0,5	3,534450
7,850333	0,5	3,491450
7,858667	0,5	3,442200
7,867000	0,5	3,390450
7,875333	0,5	3,344950
7,883667	0,5	3,311100
7,892000	0,5	3,280050
7,900333	0,5	3,263550
7,908667	0,5	3,258150
7,917000	0,5	3,253900
7,925333	0,5	3,251050
7,933667	0,5	3,236800
7,942000	0,5	3,216350
7,950333	0,5	3,187150
7,958667	0,5	3,146800
7,967000	0,5	3,096200
7,975333	0,5	3,041950
7,983667	0,5	2,985800
7,992000	0,5	2,930600
8,000333	0,5	2,885000
8,008667	0,5	2,856300
8,017000	0,5	2,838550
8,025333	0,5	2,847100
8,033667	0,5	2,882950
8,042000	0,5	2,946150
8,050333	0,5	3,038750
8,058667	0,5	3,147800
8,067000	0,5	3,264650
8,075333	0,5	3,373400
8,083667	0,5	3,470500
8,092000	0,5	3,562150
8,100333	0,5	3,668750
8,108667	0,5	3,800850
8,117000	0,5	3,977900
8,125333	0,5	4,214500
8,133667	0,5	4,499450
8,142000	0,5	4,846800
8,150333	0,5	5,245700
8,158667	0,5	5,683850
8,167000	0,5	6,154550
8,175333	0,5	6,655200
8,183667	0,5	7,187150
8,192000	0,5	7,787750
8,200333	0,5	8,539250
8,208667	0,5	9,553900
8,217000	0,5	10,965500
8,225333	0,5	12,858450
8,233667	0,5	15,193400
8,242000	0,5	17,747700
8,250333	0,5	20,125600
8,258667	0,5	21,876950
8,267000	0,5	22,633850
8,275333	0,5	22,237050
8,283667	0,5	20,804200
8,292000	0,5	20,768900
8,300333	0,5	15,898750
8,308667	0,5	13,252950
8,317000	0,5	10,822000
8,325333	0,5	8,763300
8,333667	0,5	7,117650
8,342000	0,5	5,870200
8,350333	0,5	4,953650
8,358667	0,5	4,304100
8,367000	0,5	3,855350
8,375333	0,5	3,549300
8,383667	0,5	3,348000
8,392000	0,5	3,220200
8,400333	0,5	3,138300
8,408667	0,5	3,088200
8,417000	0,5	3,058950
8,425333	0,5	3,037750
8,433667	0,5	3,025050
8,442000	0,5	3,020200
8,450333	0,5	3,023650
8,458667	0,5	3,038850
8,467000	0,5	3,071650
8,475333	0,5	3,112600
8,483667	0,5	3,149600
8,492000	0,5	3,167850
8,500333	0,5	3,172600
8,508667	0,5	3,144500
8,517000	0,5	3,100950
8,525333	0,5	3,052550
8,533667	0,5	3,004050
8,542000	0,5	2,969100
8,550333	0,5	2,941750
8,558667	0,5	2,911650
8,567000	0,5	2,872650
8,575333	0,5	2,819800
8,583667	0,5	2,765350
8,592000	0,5	2,719200
8,600333	0,5	2,694450
8,608667	0,5	2,692950
8,617000	0,5	2,722750
8,625333	0,5	2,763350
8,633667	0,5	2,803900
8,642000	0,5	2,836750
8,650333	0,5	2,857350
8,658667	0,5	2,862100
8,667000	0,5	2,850100
8,675333	0,5	2,827250
8,683667	0,5	2,789800
8,692000	0,5	2,742000
8,700333	0,5	2,691350
8,708667	0,5	2,636500
8,717000	0,5	2,591900
8,725333	0,5	2,576250
8,733667	0,5	2,602600
8,742000	0,5	2,681650
8,750333	0,5	2,813100
8,758667	0,5	2,969150
8,767000	0,5	3,117800
8,775333	0,5	3,196100
8,783667	0,5	3,198250
8,792000	0,5	3,125250
8,800333	0,5	3,009800
8,808667	0,5	2,888550
8,817000	0,5	2,785950
8,825333	0,5	2,713900
8,833667	0,5	2,681450
8,842000	0,5	2,674700
8,850333	0,5	2,691400
8,858667	0,5	2,722250
8,867000	0,5	2,767050
8,875333	0,5	2,817750
8,883667	0,5	2,861100
8,892000	0,5	2,888500
8,900333	0,5	2,885850
8,908667	0,5	2,851200
8,917000	0,5	2,793000
8,925333	0,5	2,714450
8,933667	0,5	2,627800
8,942000	0,5	2,543950
8,950333	0,5	2,478350
8,958667	0,5	2,431450
8,967000	0,5	2,403250
8,975333	0,5	2,392250
8,983667	0,5	2,400350
8,992000	0,5	2,425700
9,000333	0,5	2,475050
9,008667	0,5	2,545350
9,017000	0,5	2,630900
9,025333	0,5	2,718600
9,033667	0,5	2,787100
9,042000	0,5	2,815850
9,050333	0,5	2,798700
9,058667	0,5	2,745750
9,067000	0,5	2,671700
9,075333	0,5	2,591550
9,083667	0,5	2,527850
9,092000	0,5	2,483900
9,100333	0,5	2,469050
9,108667	0,5	2,492550
9,117000	0,5	2,535400
9,125333	0,5	2,603350
9,133667	0,5	2,680000
9,142000	0,5	2,743000
9,150333	0,5	2,776450
9,158667	0,5	2,778350
9,167000	0,5	2,754700
9,175333	0,5	2,712750
9,183667	0,5	2,667100
9,192000	0,5	2,624150
9,200333	0,5	2,587200
9,208667	0,5	2,552400
9,217000	0,5	2,514000
9,225333	0,5	2,472900
9,233667	0,5	2,434100
9,242000	0,5	2,391250
9,250333	0,5	2,357750
9,258667	0,5	2,330400
9,267000	0,5	2,309750
9,275333	0,5	2,293550
9,283667	0,5	2,284950
9,292000	0,5	2,277300
9,300333	0,5	2,279350
9,308667	0,5	2,291800
9,317000	0,5	2,316050
9,325333	0,5	2,353700
9,333667	0,5	2,410100
9,342000	0,5	2,479350
9,350333	0,5	2,574500
9,358667	0,5	2,691650
9,367000	0,5	2,822000
9,375333	0,5	2,948250
9,383667	0,5	3,047500
9,392000	0,5	3,089000
9,400333	0,5	3,075600
9,408667	0,5	3,006450
9,417000	0,5	2,899300
9,425333	0,5	2,766850
9,433667	0,5	2,634750
9,442000	0,5	2,507500
9,450333	0,5	2,399000
9,458667	0,5	2,306800
9,467000	0,5	2,239350
9,475333	0,5	2,190550
9,483667	0,5	2,159450
9,492000	0,5	2,140500
9,500333	0,5	2,139250
9,508667	0,5	2,151000
9,517000	0,5	2,173200
9,525333	0,5	2,202100
9,533667	0,5	2,237700
9,542000	0,5	2,275800
9,550333	0,5	2,317750
9,558667	0,5	2,371450
9,567000	0,5	2,434350
9,575333	0,5	2,521750
9,583667	0,5	2,616600
9,592000	0,5	2,700350
9,600333	0,5	2,767050
9,608667	0,5	2,785600
9,617000	0,5	2,757700
9,625333	0,5	2,696200
9,633667	0,5	2,609450
9,642000	0,5	2,519900
9,650333	0,5	2,448600
9,658667	0,5	2,402650
9,667000	0,5	2,373550
9,675333	0,5	2,368400
9,683667	0,5	2,370050
9,692000	0,5	2,381100
9,700333	0,5	2,397950
9,708667	0,5	2,423850
9,717000	0,5	2,471550
9,725333	0,5	2,560900
9,733667	0,5	2,705750
9,742000	0,5	2,902650
9,750333	0,5	3,152150
9,758667	0,5	3,412050
9,767000	0,5	3,642700
9,775333	0,5	3,800000
9,783667	0,5	3,858000
9,792000	0,5	3,813750
9,800333	0,5	3,697850
9,808667	0,5	3,527100
9,817000	0,5	3,327950
9,825333	0,5	3,125050
9,833667	0,5	2,929200
9,842000	0,5	2,753950
9,850333	0,5	2,607300
9,858667	0,5	2,487200
9,867000	0,5	2,400500
9,875333	0,5	2,344900
9,883667	0,5	2,313350
9,892000	0,5	2,302500
9,900333	0,5	2,299500
9,908667	0,5	2,305900
9,917000	0,5	2,318800
9,925333	0,5	2,342200
9,933667	0,5	2,374550
9,942000	0,5	2,416750
9,950333	0,5	2,465350
9,958667	0,5	2,502650
9,967000	0,5	2,523950
9,975333	0,5	2,517100
9,983667	0,5	2,484050
9,992000	0,5	2,446950
10,000333	0,5	2,407800
10,008667	0,5	2,384750
10,017000	0,5	2,388050
10,025333	0,5	2,436400
10,033667	0,5	2,524750
10,042000	0,5	2,659150
10,050333	0,5	2,816300
10,058667	0,5	2,974700
10,067000	0,5	3,103950
10,075333	0,5	3,175000
10,083667	0,5	3,179300
10,092000	0,5	3,130750
10,100333	0,5	3,048600
10,108667	0,5	2,944950
10,117000	0,5	2,839950
10,125333	0,5	2,737250
10,133667	0,5	2,644800
10,142000	0,5	2,562100
10,150333	0,5	2,507650
10,158667	0,5	2,470900
10,167000	0,5	2,468800
10,175333	0,5	2,495900
10,183667	0,5	2,543750
10,192000	0,5	2,603900
10,200333	0,5	2,671350
10,208667	0,5	2,733900
10,217000	0,5	2,788950
10,225333	0,5	2,833300
10,233667	0,5	2,884500
10,242000	0,5	2,957850
10,250333	0,5	3,093050
10,258667	0,5	3,302100
10,267000	0,5	3,571900
10,275333	0,5	3,806200
10,283667	0,5	3,919750
10,292000	0,5	3,907150
10,300333	0,5	3,794500
10,308667	0,5	3,629600
10,317000	0,5	3,465400
10,325333	0,5	3,360450
10,333667	0,5	3,363650
10,342000	0,5	3,536300
10,350333	0,5	4,031300
10,358667	0,5	5,343050
10,367000	0,5	7,511500
10,375333	0,5	8,992950
10,383667	0,5	9,151350
10,392000	0,5	8,638050
10,400333	0,5	7,397250
10,408667	0,5	5,518700
10,417000	0,5	3,776450
10,425333	0,5	2,617550
10,433667	0,5	1,973000
10,442000	0,5	1,608650
10,450333	0,5	1,392700
10,458667	0,5	1,250600
10,467000	0,5	1,155600
10,475333	0,5	1,093200
10,483667	0,5	1,046700
10,492000	0,5	1,014250
10,500333	0,5	0,989500
10,508667	0,5	0,966600
10,517000	0,5	0,955850
10,525333	0,5	0,941050
10,533667	0,5	0,929650
10,542000	0,5	0,920000
10,550333	0,5	0,907450
10,558667	0,5	0,890600
10,567000	0,5	0,874900
10,575333	0,5	0,860050
10,583667	0,5	0,846200
10,592000	0,5	0,830300
10,600333	0,5	0,808950
10,608667	0,5	0,796000
10,617000	0,5	0,783900
10,625333	0,5	0,773250
10,633667	0,5	0,767300
10,642000	0,5	0,765350
10,650333	0,5	0,765500
10,658667	0,5	0,778050
10,667000	0,5	0,795450
10,675333	0,5	0,816050
10,683667	0,5	0,841250
10,692000	0,5	0,870100
10,700333	0,5	0,894350
10,708667	0,5	0,914700
10,717000	0,5	0,926450
10,725333	0,5	0,933350
10,733667	0,5	0,935950
10,742000	0,5	0,923400
10,750333	0,5	0,900500
10,758667	0,5	0,878050
10,767000	0,5	0,842700
10,775333	0,5	0,808900
10,783667	0,5	0,775000
10,792000	0,5	0,739750
10,800333	0,5	0,712250
10,808667	0,5	0,680800
10,817000	0,5	0,660950
10,825333	0,5	0,634350
10,833667	0,5	0,619600
10,842000	0,5	0,602150
10,850333	0,5	0,586300
10,858667	0,5	0,573050
10,867000	0,5	0,562650
10,875333	0,5	0,555050
10,883667	0,5	0,548150
10,892000	0,5	0,540800
10,900333	0,5	0,534650
10,908667	0,5	0,529400
10,917000	0,5	0,530950
10,925333	0,5	0,528500
10,933667	0,5	0,526400
10,942000	0,5	0,521800
10,950333	0,5	0,524000
10,958667	0,5	0,527750
10,967000	0,5	0,529650
10,975333	0,5	0,527900
10,983667	0,5	0,534750
10,992000	0,5	0,539400
11,000333	0,5	0,538650
11,008667	0,5	0,538600
11,017000	0,5	0,538800
11,025333	0,5	0,545650
11,033667	0,5	0,543700
11,042000	0,5	0,541250
11,050333	0,5	0,537250
11,058667	0,5	0,533550
11,067000	0,5	0,527800
11,075333	0,5	0,518500
11,083667	0,5	0,507000
11,092000	0,5	0,496050
11,100333	0,5	0,485150
11,108667	0,5	0,477300
11,117000	0,5	0,467150
11,125333	0,5	0,453950
11,133667	0,5	0,446650
11,142000	0,5	0,433300
11,150333	0,5	0,425700
11,158667	0,5	0,415250
11,167000	0,5	0,410150
11,175333	0,5	0,409750
11,183667	0,5	0,408350
11,192000	0,5	0,402250
11,200333	0,5	0,402400
11,208667	0,5	0,399050
11,217000	0,5	0,396600
11,225333	0,5	0,395950
11,233667	0,5	0,394600
11,242000	0,5	0,392700
11,250333	0,5	0,392000
11,258667	0,5	0,391300
11,267000	0,5	0,387650
11,275333	0,5	0,388250
11,283667	0,5	0,390750
11,292000	0,5	0,391850
11,300333	0,5	0,390100
11,308667	0,5	0,387500
11,317000	0,5	0,390600
11,325333	0,5	0,396850
11,333667	0,5	0,396950
11,342000	0,5	0,399000
11,350333	0,5	0,404100
11,358667	0,5	0,409100
11,367000	0,5	0,414250
11,375333	0,5	0,421400
11,383667	0,5	0,420850
11,392000	0,5	0,428950
11,400333	0,5	0,429700
11,408667	0,5	0,439650
11,417000	0,5	0,438500
11,425333	0,5	0,448550
11,433667	0,5	0,449500
11,442000	0,5	0,451000
11,450333	0,5	0,453450
11,458667	0,5	0,453800
11,467000	0,5	0,464400
11,475333	0,5	0,467950
11,483667	0,5	0,470300
11,492000	0,5	0,475000
11,500333	0,5	0,480100
11,508667	0,5	0,486500
11,517000	0,5	0,483300
11,525333	0,5	0,488800
11,533667	0,5	0,485250
11,542000	0,5	0,487650
11,550333	0,5	0,494750
11,558667	0,5	0,493600
11,567000	0,5	0,496000
11,575333	0,5	0,502800
11,583667	0,5	0,502650
11,592000	0,5	0,504250
11,600333	0,5	0,509100
11,608667	0,5	0,512750
11,617000	0,5	0,522900
11,625333	0,5	0,531300
11,633667	0,5	0,534100
11,642000	0,5	0,540750
11,650333	0,5	0,551500
11,658667	0,5	0,553350
11,667000	0,5	0,565000
11,675333	0,5	0,568700
11,683667	0,5	0,567500
11,692000	0,5	0,571550
11,700333	0,5	0,574300
11,708667	0,5	0,567350
11,717000	0,5	0,569150
11,725333	0,5	0,565700
11,733667	0,5	0,557200
11,742000	0,5	0,552400
11,750333	0,5	0,537950
11,758667	0,5	0,538300
11,767000	0,5	0,536350
11,775333	0,5	0,527600
11,783667	0,5	0,522100
11,792000	0,5	0,517800
11,800333	0,5	0,513550
11,808667	0,5	0,512000
11,817000	0,5	0,507250
11,825333	0,5	0,503850
11,833667	0,5	0,501850
11,842000	0,5	0,501050
11,850333	0,5	0,505300
11,858667	0,5	0,504500
11,867000	0,5	0,509000
11,875333	0,5	0,516400
11,883667	0,5	0,517250
11,892000	0,5	0,518600
11,900333	0,5	0,519950
11,908667	0,5	0,533650
11,917000	0,5	0,543750
11,925333	0,5	0,551400
11,933667	0,5	0,557200
11,942000	0,5	0,567000
11,950333	0,5	0,580550
11,958667	0,5	0,590900
11,967000	0,5	0,603600
11,975333	0,5	0,614200
11,983667	0,5	0,624300
11,992000	0,5	0,636650
12,000333	0,5	0,653000
12,008667	0,5	0,664500
12,017000	0,5	0,684950
12,025333	0,5	0,700100
12,033667	0,5	0,721200
12,042000	0,5	0,739800
12,050333	0,5	0,765100
12,058667	0,5	0,795850
12,067000	0,5	0,830150
12,075333	0,5	0,864800
12,083667	0,5	0,901450
12,092000	0,5	0,943900
12,100333	0,5	0,983150
12,108667	0,5	1,029950
12,117000	0,5	1,073650
12,125333	0,5	1,120050
12,133667	0,5	1,170600
12,142000	0,5	1,221500
12,150333	0,5	1,266650
12,158667	0,5	1,322150
12,167000	0,5	1,380200
12,175333	0,5	1,430150
12,183667	0,5	1,484150
12,192000	0,5	1,532100
12,200333	0,5	1,581700
12,208667	0,5	1,633450
12,217000	0,5	1,679800
12,225333	0,5	1,715700
12,233667	0,5	1,750450
12,242000	0,5	1,779100
12,250333	0,5	1,807900
12,258667	0,5	1,826800
12,267000	0,5	1,846550
12,275333	0,5	1,861450
12,283667	0,5	1,876600
12,292000	0,5	1,886950
12,300333	0,5	1,896900
12,308667	0,5	1,910150
12,317000	0,5	1,920650
12,325333	0,5	1,928750
12,333667	0,5	1,934600
12,342000	0,5	1,944600
12,350333	0,5	1,954550
12,358667	0,5	1,968800
12,367000	0,5	1,981350
12,375333	0,5	1,990700
12,383667	0,5	2,008900
12,392000	0,5	2,026300
12,400333	0,5	2,037800
12,408667	0,5	2,054800
12,417000	0,5	2,069550
12,425333	0,5	2,082800
12,433667	0,5	2,100550
12,442000	0,5	2,115250
12,450333	0,5	2,126500
12,458667	0,5	2,151150
12,467000	0,5	2,166550
12,475333	0,5	2,177750
12,483667	0,5	2,188500
12,492000	0,5	2,205200
12,500333	0,5	2,222950
12,508667	0,5	2,242200
12,517000	0,5	2,257800
12,525333	0,5	2,279200
12,533667	0,5	2,295700
12,542000	0,5	2,318000
12,550333	0,5	2,339400
12,558667	0,5	2,357650
12,567000	0,5	2,367000
12,575333	0,5	2,379150
12,583667	0,5	2,389750
12,592000	0,5	2,387850
12,600333	0,5	2,389850
12,608667	0,5	2,389000
12,617000	0,5	2,385850
12,625333	0,5	2,378150
12,633667	0,5	2,372650
12,642000	0,5	2,374750
12,650333	0,5	2,376350
12,658667	0,5	2,375900
12,667000	0,5	2,379200
12,675333	0,5	2,378450
12,683667	0,5	2,384600
12,692000	0,5	2,391500
12,700333	0,5	2,397550
12,708667	0,5	2,401500
12,717000	0,5	2,403100
12,725333	0,5	2,409350
12,733667	0,5	2,412000
12,742000	0,5	2,403250
12,750333	0,5	2,406800
12,758667	0,5	2,403600
12,767000	0,5	2,399550
12,775333	0,5	2,395150
12,783667	0,5	2,387700
12,792000	0,5	2,394050
12,800333	0,5	2,396450
12,808667	0,5	2,401350
12,817000	0,5	2,398600
12,825333	0,5	2,404750
12,833667	0,5	2,404300
12,842000	0,5	2,407000
12,850333	0,5	2,405000
12,858667	0,5	2,408100
12,867000	0,5	2,409150
12,875333	0,5	2,412500
12,883667	0,5	2,413700
12,892000	0,5	2,410950
12,900333	0,5	2,414050
12,908667	0,5	2,412450
12,917000	0,5	2,404850
12,925333	0,5	2,395400
12,933667	0,5	2,386950
12,942000	0,5	2,388350
12,950333	0,5	2,384700
12,958667	0,5	2,378450
12,967000	0,5	2,375850
12,975333	0,5	2,372950
12,983667	0,5	2,371950
12,992000	0,5	2,371500
13,000333	0,5	2,378050
13,008667	0,5	2,379350
13,017000	0,5	2,382300
13,025333	0,5	2,385600
13,033667	0,5	2,390000
13,042000	0,5	2,388550
13,050333	0,5	2,393750
13,058667	0,5	2,387650
13,067000	0,5	2,378700
13,075333	0,5	2,367550
13,083667	0,5	2,356050
13,092000	0,5	2,356600
13,100333	0,5	2,347700
13,108667	0,5	2,344100
13,117000	0,5	2,335500
13,125333	0,5	2,334450
13,133667	0,5	2,331200
13,142000	0,5	2,331850
13,150333	0,5	2,327950
13,158667	0,5	2,328400
13,167000	0,5	2,327600
13,175333	0,5	2,332800
13,183667	0,5	2,328250
13,192000	0,5	2,334350
13,200333	0,5	2,335350
13,208667	0,5	2,332250
13,217000	0,5	2,325150
13,225333	0,5	2,319850
13,233667	0,5	2,320850
13,242000	0,5	2,322350
13,250333	0,5	2,324500
13,258667	0,5	2,329550
13,267000	0,5	2,326100
13,275333	0,5	2,326150
13,283667	0,5	2,326900
13,292000	0,5	2,324600
13,300333	0,5	2,322400
13,308667	0,5	2,308000
13,317000	0,5	2,303750
13,325333	0,5	2,292700
13,333667	0,5	2,292100
13,342000	0,5	2,297500
13,350333	0,5	2,299200
13,358667	0,5	2,304250
13,367000	0,5	2,304450
13,375333	0,5	2,302450
13,383667	0,5	2,306000
13,392000	0,5	2,302850
13,400333	0,5	2,302950
13,408667	0,5	2,295650
13,417000	0,5	2,291500
13,425333	0,5	2,285150
13,433667	0,5	2,272150
13,442000	0,5	2,258000
13,450333	0,5	2,245300
13,458667	0,5	2,237400
13,467000	0,5	2,231900
13,475333	0,5	2,226500
13,483667	0,5	2,236100
13,492000	0,5	2,249450
13,500333	0,5	2,264300
13,508667	0,5	2,272450
13,517000	0,5	2,279000
13,525333	0,5	2,289350
13,533667	0,5	2,292000
13,542000	0,5	2,292000
13,550333	0,5	2,280050
13,558667	0,5	2,269300
13,567000	0,5	2,253100
13,575333	0,5	2,242500
13,583667	0,5	2,229800
13,592000	0,5	2,220100
13,600333	0,5	2,218100
13,608667	0,5	2,210400
13,617000	0,5	2,221550
13,625333	0,5	2,209000
13,633667	0,5	2,206250
13,642000	0,5	2,200100
13,650333	0,5	2,185250
13,658667	0,5	2,169550
13,667000	0,5	2,156450
13,675333	0,5	2,163050
13,683667	0,5	2,172550
13,692000	0,5	2,183550
13,700333	0,5	2,206400
13,708667	0,5	2,224350
13,717000	0,5	2,241950
13,725333	0,5	2,247050
13,733667	0,5	2,238900
13,742000	0,5	2,219650
13,750333	0,5	2,191800
13,758667	0,5	2,170300
13,767000	0,5	2,146650
13,775333	0,5	2,127900
13,783667	0,5	2,132900
13,792000	0,5	2,136050
13,800333	0,5	2,137800
13,808667	0,5	2,150650
13,817000	0,5	2,156250
13,825333	0,5	2,172950
13,833667	0,5	2,172350
13,842000	0,5	2,176200
13,850333	0,5	2,175300
13,858667	0,5	2,185550
13,867000	0,5	2,192850
13,875333	0,5	2,215500
13,883667	0,5	2,229450
13,892000	0,5	2,239350
13,900333	0,5	2,230850
13,908667	0,5	2,210100
13,917000	0,5	2,171700
13,925333	0,5	2,133950
13,933667	0,5	2,097450
13,942000	0,5	2,059350
13,950333	0,5	2,030650
13,958667	0,5	2,009900
13,967000	0,5	2,000950
13,975333	0,5	2,009750
13,983667	0,5	2,021650
13,992000	0,5	2,032500
14,000333	0,5	2,045450
14,008667	0,5	2,056250
14,017000	0,5	2,074850
14,025333	0,5	2,089150
14,033667	0,5	2,099050
14,042000	0,5	2,102850
14,050333	0,5	2,097650
14,058667	0,5	2,076250
14,067000	0,5	2,045150
14,075333	0,5	2,012000
14,083667	0,5	1,984550
14,092000	0,5	1,954150
14,100333	0,5	1,926750
14,108667	0,5	1,910350
14,117000	0,5	1,900100
14,125333	0,5	1,907000
14,133667	0,5	1,915000
14,142000	0,5	1,925600
14,150333	0,5	1,934900
14,158667	0,5	1,948750
14,167000	0,5	1,952550
14,175333	0,5	1,956150
14,183667	0,5	1,946000
14,192000	0,5	1,929850
14,200333	0,5	1,908550
14,208667	0,5	1,880950
14,217000	0,5	1,856750
14,225333	0,5	1,841900
14,233667	0,5	1,824650
14,242000	0,5	1,807250
14,250333	0,5	1,790750
14,258667	0,5	1,789600
14,267000	0,5	1,794300
14,275333	0,5	1,800650
14,283667	0,5	1,809650
14,292000	0,5	1,815300
14,300333	0,5	1,816200
14,308667	0,5	1,821400
14,317000	0,5	1,817550
14,325333	0,5	1,808950
14,333667	0,5	1,804950
14,342000	0,5	1,790500
14,350333	0,5	1,782300
14,358667	0,5	1,763700
14,367000	0,5	1,761950
14,375333	0,5	1,756800
14,383667	0,5	1,754500
14,392000	0,5	1,744850
14,400333	0,5	1,732750
14,408667	0,5	1,734200
14,417000	0,5	1,732800
14,425333	0,5	1,722950
14,433667	0,5	1,715600
14,442000	0,5	1,705800
14,450333	0,5	1,696900
14,458667	0,5	1,692850
14,467000	0,5	1,684800
14,475333	0,5	1,675550
14,483667	0,5	1,663350
14,492000	0,5	1,659850
14,500333	0,5	1,652050
14,508667	0,5	1,639000
14,517000	0,5	1,645150
14,525333	0,5	1,642050
14,533667	0,5	1,637150
14,542000	0,5	1,628850
14,550333	0,5	1,613550
14,558667	0,5	1,615700
14,567000	0,5	1,612450
14,575333	0,5	1,611700
14,583667	0,5	1,607950
14,592000	0,5	1,607750
14,600333	0,5	1,608100
14,608667	0,5	1,611150
14,617000	0,5	1,608650
14,625333	0,5	1,608450
14,633667	0,5	1,604050
14,642000	0,5	1,595750
14,650333	0,5	1,594750
14,658667	0,5	1,578550
14,667000	0,5	1,584850
14,675333	0,5	1,575700
14,683667	0,5	1,567550
14,692000	0,5	1,555050
14,700333	0,5	1,543250
14,708667	0,5	1,547350
14,717000	0,5	1,550650
14,725333	0,5	1,542650
14,733667	0,5	1,540900
14,742000	0,5	1,535850
14,750333	0,5	1,529850
14,758667	0,5	1,522300
14,767000	0,5	1,515650
14,775333	0,5	1,504250
14,783667	0,5	1,496500
14,792000	0,5	1,489050
14,800333	0,5	1,481400
14,808667	0,5	1,473400
14,817000	0,5	1,478750
14,825333	0,5	1,474700
14,833667	0,5	1,472850
14,842000	0,5	1,464800
14,850333	0,5	1,457900
14,858667	0,5	1,464250
14,867000	0,5	1,451150
14,875333	0,5	1,447700
14,883667	0,5	1,434750
14,892000	0,5	1,431100
14,900333	0,5	1,426300
14,908667	0,5	1,426400
14,917000	0,5	1,420750
14,925333	0,5	1,417600
14,933667	0,5	1,422750
14,942000	0,5	1,421100
14,950333	0,5	1,414350
14,958667	0,5	1,413850
14,967000	0,5	1,413500
14,975333	0,5	1,406500
14,983667	0,5	1,395850
14,992000	0,5	1,383000
15,000333	0,5	1,383450
15,008667	0,5	1,383800
15,017000	0,5	1,386750
15,025333	0,5	1,386050
15,033667	0,5	1,384900
15,042000	0,5	1,382100
15,050333	0,5	1,381600
15,058667	0,5	1,379350
15,067000	0,5	1,381400
15,075333	0,5	1,378050
15,083667	0,5	1,376750
15,092000	0,5	1,366750
15,100333	0,5	1,364250
15,108667	0,5	1,367550
15,117000	0,5	1,365700
15,125333	0,5	1,360850
15,133667	0,5	1,354050
15,142000	0,5	1,345950
15,150333	0,5	1,343250
15,158667	0,5	1,350300
15,167000	0,5	1,343250
15,175333	0,5	1,352950
15,183667	0,5	1,343350
15,192000	0,5	1,346000
15,200333	0,5	1,348300
15,208667	0,5	1,349750
15,217000	0,5	1,349000
15,225333	0,5	1,351650
15,233667	0,5	1,360100
15,242000	0,5	1,361350
15,250333	0,5	1,367900
15,258667	0,5	1,382700
15,267000	0,5	1,383800
15,275333	0,5	1,386100
15,283667	0,5	1,364650
15,292000	0,5	1,354850
15,300333	0,5	1,350100
15,308667	0,5	1,335650
15,317000	0,5	1,325850
15,325333	0,5	1,315700
15,333667	0,5	1,310100
15,342000	0,5	1,308300
15,350333	0,5	1,310250
15,358667	0,5	1,305400
15,367000	0,5	1,306300
15,375333	0,5	1,302750
15,383667	0,5	1,302650
15,392000	0,5	1,285450
15,400333	0,5	1,292100
15,408667	0,5	1,291400
15,417000	0,5	1,291500
15,425333	0,5	1,281750
15,433667	0,5	1,268200
15,442000	0,5	1,268400
15,450333	0,5	1,265650
15,458667	0,5	1,260550
15,467000	0,5	1,254650
15,475333	0,5	1,254200
15,483667	0,5	1,248600
15,492000	0,5	1,254500
15,500333	0,5	1,256150
15,508667	0,5	1,262450
15,517000	0,5	1,264000
15,525333	0,5	1,278150
15,533667	0,5	1,279000
15,542000	0,5	1,283900
15,550333	0,5	1,302450
15,558667	0,5	1,309150
15,567000	0,5	1,308900
15,575333	0,5	1,303550
15,583667	0,5	1,290400
15,592000	0,5	1,295350
15,600333	0,5	1,287800
15,608667	0,5	1,283100
15,617000	0,5	1,275350
15,625333	0,5	1,274500
15,633667	0,5	1,268000
15,642000	0,5	1,262700
15,650333	0,5	1,258500
15,658667	0,5	1,250150
15,667000	0,5	1,244300
15,675333	0,5	1,230600
15,683667	0,5	1,218600
15,692000	0,5	1,210850
15,700333	0,5	1,209650
15,708667	0,5	1,203550
15,717000	0,5	1,194050
15,725333	0,5	1,184550
15,733667	0,5	1,187650
15,742000	0,5	1,196450
15,750333	0,5	1,201600
15,758667	0,5	1,199550
15,767000	0,5	1,200100
15,775333	0,5	1,195250
15,783667	0,5	1,199700
15,792000	0,5	1,199950
15,800333	0,5	1,196850
15,808667	0,5	1,198550
15,817000	0,5	1,188100
15,825333	0,5	1,195800
15,833667	0,5	1,186950
15,842000	0,5	1,194600
15,850333	0,5	1,200050
15,858667	0,5	1,207800
15,867000	0,5	1,204750
15,875333	0,5	1,198250
15,883667	0,5	1,198550
15,892000	0,5	1,205050
15,900333	0,5	1,202200
15,908667	0,5	1,204500
15,917000	0,5	1,194250
15,925333	0,5	1,195850
15,933667	0,5	1,189250
15,942000	0,5	1,184900
15,950333	0,5	1,180650
15,958667	0,5	1,170650
15,967000	0,5	1,171550
15,975333	0,5	1,163050
15,983667	0,5	1,147950
15,992000	0,5	1,150400
16,000333	0,5	1,144150
16,008667	0,5	1,138450
16,017000	0,5	1,129100
16,025333	0,5	1,125050
16,033667	0,5	1,132350
16,042000	0,5	1,133300
16,050333	0,5	1,137400
16,058667	0,5	1,137500
16,067000	0,5	1,135700
16,075333	0,5	1,129950
16,083667	0,5	1,128150
16,092000	0,5	1,126500
16,100333	0,5	1,124450
16,108667	0,5	1,125050
16,117000	0,5	1,129750
16,125333	0,5	1,119800
16,133667	0,5	1,125250
16,142000	0,5	1,132600
16,150333	0,5	1,128350
16,158667	0,5	1,126150
16,167000	0,5	1,113050
16,175333	0,5	1,110800
16,183667	0,5	1,109950
16,192000	0,5	1,114200
16,200333	0,5	1,119200
16,208667	0,5	1,124400
16,217000	0,5	1,127400
16,225333	0,5	1,142700
16,233667	0,5	1,146400
16,242000	0,5	1,157650
16,250333	0,5	1,162200
16,258667	0,5	1,176050
16,267000	0,5	1,177200
16,275333	0,5	1,172500
16,283667	0,5	1,185100
16,292000	0,5	1,188000
16,300333	0,5	1,185450
16,308667	0,5	1,179350
16,317000	0,5	1,169900
16,325333	0,5	1,164050
16,333667	0,5	1,166400
16,342000	0,5	1,162500
16,350333	0,5	1,165650
16,358667	0,5	1,169200
16,367000	0,5	1,171050
16,375333	0,5	1,179450
16,383667	0,5	1,193900
16,392000	0,5	1,199750
16,400333	0,5	1,211550
16,408667	0,5	1,217850
16,417000	0,5	1,223950
16,425333	0,5	1,219550
16,433667	0,5	1,234100
16,442000	0,5	1,242950
16,450333	0,5	1,253600
16,458667	0,5	1,264300
16,467000	0,5	1,293950
16,475333	0,5	1,363300
16,483667	0,5	1,433300
16,492000	0,5	1,513500
16,500333	0,5	1,602500
16,508667	0,5	1,689000
16,517000	0,5	1,747250
16,525333	0,5	1,784800
16,533667	0,5	1,769800
16,542000	0,5	1,729200
16,550333	0,5	1,660000
16,558667	0,5	1,581600
16,567000	0,5	1,481650
16,575333	0,5	1,409150
16,583667	0,5	1,353350
16,592000	0,5	1,313600
16,600333	0,5	1,279800
16,608667	0,5	1,254250
16,617000	0,5	1,252400
16,625333	0,5	1,264300
16,633667	0,5	1,272650
16,642000	0,5	1,288850
16,650333	0,5	1,309850
16,658667	0,5	1,320600
16,667000	0,5	1,332350
16,675333	0,5	1,345200
16,683667	0,5	1,357350
16,692000	0,5	1,358550
16,700333	0,5	1,373450
16,708667	0,5	1,393450
16,717000	0,5	1,403800
16,725333	0,5	1,434850
16,733667	0,5	1,453900
16,742000	0,5	1,460300
16,750333	0,5	1,455250
16,758667	0,5	1,421700
16,767000	0,5	1,400050
16,775333	0,5	1,366350
16,783667	0,5	1,331450
16,792000	0,5	1,287250
16,800333	0,5	1,250900
16,808667	0,5	1,215000
16,817000	0,5	1,189850
16,825333	0,5	1,168250
16,833667	0,5	1,145150
16,842000	0,5	1,125650
16,850333	0,5	1,107600
16,858667	0,5	1,090300
16,867000	0,5	1,067150
16,875333	0,5	1,064250
16,883667	0,5	1,053100
16,892000	0,5	1,040900
16,900333	0,5	1,022200
16,908667	0,5	1,009400
16,917000	0,5	1,010850
16,925333	0,5	1,007600
16,933667	0,5	1,004500
16,942000	0,5	1,008200
16,950333	0,5	1,008350
16,958667	0,5	1,009550
16,967000	0,5	1,015150
16,975333	0,5	1,015450
16,983667	0,5	1,017300
16,992000	0,5	1,018400
17,000333	0,5	1,018350
17,008667	0,5	1,003400
17,017000	0,5	0,997500
17,025333	0,5	0,996100
17,033667	0,5	0,982150
17,042000	0,5	0,972700
17,050333	0,5	0,949950
17,058667	0,5	0,931450
17,067000	0,5	0,933700
17,075333	0,5	0,925650
17,083667	0,5	0,922850
17,092000	0,5	0,914100
17,100333	0,5	0,912800
17,108667	0,5	0,902700
17,117000	0,5	0,904700
17,125333	0,5	0,899300
17,133667	0,5	0,898800
17,142000	0,5	0,903950
17,150333	0,5	0,904450
17,158667	0,5	0,890150
17,167000	0,5	0,895550
17,175333	0,5	0,898850
17,183667	0,5	0,889600
17,192000	0,5	0,884050
17,200333	0,5	0,870750
17,208667	0,5	0,871200
17,217000	0,5	0,867650
17,225333	0,5	0,873300
17,233667	0,5	0,870300
17,242000	0,5	0,874500
17,250333	0,5	0,866150
17,258667	0,5	0,872400
17,267000	0,5	0,874300
17,275333	0,5	0,873400
17,283667	0,5	0,877950
17,292000	0,5	0,885550
17,300333	0,5	0,881900
17,308667	0,5	0,880200
17,317000	0,5	0,887050
17,325333	0,5	0,890150
17,333667	0,5	0,883300
17,342000	0,5	0,869550
17,350333	0,5	0,858800
17,358667	0,5	0,858650
17,367000	0,5	0,854950
17,375333	0,5	0,839300
17,383667	0,5	0,835850
17,392000	0,5	0,820850
17,400333	0,5	0,815750
17,408667	0,5	0,805800
17,417000	0,5	0,799900
17,425333	0,5	0,790550
17,433667	0,5	0,789700
17,442000	0,5	0,790650
17,450333	0,5	0,773700
17,458667	0,5	0,778100
17,467000	0,5	0,778500
17,475333	0,5	0,779500
17,483667	0,5	0,773100
17,492000	0,5	0,760350
17,500333	0,5	0,762400
17,508667	0,5	0,771450
17,517000	0,5	0,771700
17,525333	0,5	0,767800
17,533667	0,5	0,768400
17,542000	0,5	0,772650
17,550333	0,5	0,770650
17,558667	0,5	0,781550
17,567000	0,5	0,783350
17,575333	0,5	0,792550
17,583667	0,5	0,800200
17,592000	0,5	0,814400
17,600333	0,5	0,805250
17,608667	0,5	0,828750
17,617000	0,5	0,842750
17,625333	0,5	0,855750
17,633667	0,5	0,865400
17,642000	0,5	0,857050
17,650333	0,5	0,881750
17,658667	0,5	0,899050
17,667000	0,5	0,910000
17,675333	0,5	0,923650
17,683667	0,5	0,939750
17,692000	0,5	0,948150
17,700333	0,5	0,962900
17,708667	0,5	0,970550
17,717000	0,5	0,981350
17,725333	0,5	0,984600
17,733667	0,5	1,000150
17,742000	0,5	0,999550
17,750333	0,5	0,999650
17,758667	0,5	1,006450
17,767000	0,5	1,005800
17,775333	0,5	0,997350
17,783667	0,5	0,988850
17,792000	0,5	0,972850
17,800333	0,5	0,973650
17,808667	0,5	0,967100
17,817000	0,5	0,960750
17,825333	0,5	0,956200
17,833667	0,5	0,944750
17,842000	0,5	0,935750
17,850333	0,5	0,925850
17,858667	0,5	0,921850
17,867000	0,5	0,910800
17,875333	0,5	0,911550
17,883667	0,5	0,906100
17,892000	0,5	0,888400
17,900333	0,5	0,874250
17,908667	0,5	0,874800
17,917000	0,5	0,857500
17,925333	0,5	0,846800
17,933667	0,5	0,827950
17,942000	0,5	0,812950
17,950333	0,5	0,810750
17,958667	0,5	0,810550
17,967000	0,5	0,802700
17,975333	0,5	0,799600
17,983667	0,5	0,793050
17,992000	0,5	0,785450
18,000333	0,5	0,782150
18,008667	0,5	0,771450
18,017000	0,5	0,768350
18,025333	0,5	0,766700
18,033667	0,5	0,764100
18,042000	0,5	0,746050
18,050333	0,5	0,755350
18,058667	0,5	0,750800
18,067000	0,5	0,740750
18,075333	0,5	0,724250
18,083667	0,5	0,718200
18,092000	0,5	0,711200
18,100333	0,5	0,713600
18,108667	0,5	0,707900
18,117000	0,5	0,707850
18,125333	0,5	0,706300
18,133667	0,5	0,699100
18,142000	0,5	0,699100
18,150333	0,5	0,698050
18,158667	0,5	0,700000
18,167000	0,5	0,701700
18,175333	0,5	0,706650
18,183667	0,5	0,700350
18,192000	0,5	0,697700
18,200333	0,5	0,699800
18,208667	0,5	0,701700
18,217000	0,5	0,692850
18,225333	0,5	0,687000
18,233667	0,5	0,675600
18,242000	0,5	0,686850
18,250333	0,5	0,686600
18,258667	0,5	0,697700
18,267000	0,5	0,701150
18,275333	0,5	0,713100
18,283667	0,5	0,718600
18,292000	0,5	0,727650
18,300333	0,5	0,729950
18,308667	0,5	0,735400
18,317000	0,5	0,748750
18,325333	0,5	0,753600
18,333667	0,5	0,739100
18,342000	0,5	0,750800
18,350333	0,5	0,758550
18,358667	0,5	0,757850
18,367000	0,5	0,756100
18,375333	0,5	0,738450
18,383667	0,5	0,750350
18,392000	0,5	0,749350
18,400333	0,5	0,760850
18,408667	0,5	0,760300
18,417000	0,5	0,767850
18,425333	0,5	0,766700
18,433667	0,5	0,770200
18,442000	0,5	0,773050
18,450333	0,5	0,775900
18,458667	0,5	0,776700
18,467000	0,5	0,780750
18,475333	0,5	0,782950
18,483667	0,5	0,774050
18,492000	0,5	0,780700
18,500333	0,5	0,781800
18,508667	0,5	0,780900
18,517000	0,5	0,772300
18,525333	0,5	0,764400
18,533667	0,5	0,766700
18,542000	0,5	0,776900
18,550333	0,5	0,775600
18,558667	0,5	0,773850
18,567000	0,5	0,774450
18,575333	0,5	0,773650
18,583667	0,5	0,777550
18,592000	0,5	0,784300
18,600333	0,5	0,786400
18,608667	0,5	0,787000
18,617000	0,5	0,792550
18,625333	0,5	0,789950
18,633667	0,5	0,789250
18,642000	0,5	0,799650
18,650333	0,5	0,801250
18,658667	0,5	0,796150
18,667000	0,5	0,782100
18,675333	0,5	0,774750
18,683667	0,5	0,779700
18,692000	0,5	0,769500
18,700333	0,5	0,769850
18,708667	0,5	0,759850
18,717000	0,5	0,766650
18,725333	0,5	0,756050
18,733667	0,5	0,756100
18,742000	0,5	0,757200
18,750333	0,5	0,754250
18,758667	0,5	0,757150
18,767000	0,5	0,762900
18,775333	0,5	0,746700
18,783667	0,5	0,751650
18,792000	0,5	0,744350
18,800333	0,5	0,741800
18,808667	0,5	0,729550
18,817000	0,5	0,710100
18,825333	0,5	0,709250
18,833667	0,5	0,709200
18,842000	0,5	0,713950
18,850333	0,5	0,710400
18,858667	0,5	0,707000
18,867000	0,5	0,704550
18,875333	0,5	0,705000
18,883667	0,5	0,702800
18,892000	0,5	0,701500
18,900333	0,5	0,700400
18,908667	0,5	0,704400
18,917000	0,5	0,694300
18,925333	0,5	0,687350
18,933667	0,5	0,691400
18,942000	0,5	0,690400
18,950333	0,5	0,683250
18,958667	0,5	0,672300
18,967000	0,5	0,660050
18,975333	0,5	0,654000
18,983667	0,5	0,656150
18,992000	0,5	0,654200
19,000333	0,5	0,653700
19,008667	0,5	0,647900
19,017000	0,5	0,644750
19,025333	0,5	0,643600
19,033667	0,5	0,643450
19,042000	0,5	0,639050
19,050333	0,5	0,639450
19,058667	0,5	0,637050
19,067000	0,5	0,630850
19,075333	0,5	0,627650
19,083667	0,5	0,632650
19,092000	0,5	0,630200
19,100333	0,5	0,624050
19,108667	0,5	0,614850
19,117000	0,5	0,602500
19,125333	0,5	0,607500
19,133667	0,5	0,610750
19,142000	0,5	0,614550
19,150333	0,5	0,613800
19,158667	0,5	0,615250
19,167000	0,5	0,617300
19,175333	0,5	0,622500
19,183667	0,5	0,623150
19,192000	0,5	0,624950
19,200333	0,5	0,630400
19,208667	0,5	0,634300
19,217000	0,5	0,618650
19,225333	0,5	0,632150
19,233667	0,5	0,633150
19,242000	0,5	0,634350
19,250333	0,5	0,626250
19,258667	0,5	0,617350
19,267000	0,5	0,623200
19,275333	0,5	0,630050
19,283667	0,5	0,633200
19,292000	0,5	0,636350
19,300333	0,5	0,633600
19,308667	0,5	0,642950
19,317000	0,5	0,640500
19,325333	0,5	0,642700
19,333667	0,5	0,649450
19,342000	0,5	0,646250
19,350333	0,5	0,659900
19,358667	0,5	0,654750
19,367000	0,5	0,661050
19,375333	0,5	0,664700
19,383667	0,5	0,667350
19,392000	0,5	0,659400
19,400333	0,5	0,652950
19,408667	0,5	0,647200
19,417000	0,5	0,645700
19,425333	0,5	0,643550
19,433667	0,5	0,639750
19,442000	0,5	0,632800
19,450333	0,5	0,628550
19,458667	0,5	0,621300
19,467000	0,5	0,614800
19,475333	0,5	0,611700
19,483667	0,5	0,604050
19,492000	0,5	0,603600
19,500333	0,5	0,598550
19,508667	0,5	0,584200
19,517000	0,5	0,589900
19,525333	0,5	0,596650
19,533667	0,5	0,596650
19,542000	0,5	0,594650
19,550333	0,5	0,574400
19,558667	0,5	0,580650
19,567000	0,5	0,585750
19,575333	0,5	0,591750
19,583667	0,5	0,587050
19,592000	0,5	0,589700
19,600333	0,5	0,584200
19,608667	0,5	0,580950
19,617000	0,5	0,574400
19,625333	0,5	0,574350
19,633667	0,5	0,573400
19,642000	0,5	0,570600
19,650333	0,5	0,578300
19,658667	0,5	0,564150
19,667000	0,5	0,576000
19,675333	0,5	0,569450
19,683667	0,5	0,573350
19,692000	0,5	0,561250
19,700333	0,5	0,550250
19,708667	0,5	0,553000
19,717000	0,5	0,555050
19,725333	0,5	0,553450
19,733667	0,5	0,557850
19,742000	0,5	0,558550
19,750333	0,5	0,566000
19,758667	0,5	0,567450
19,767000	0,5	0,570250
19,775333	0,5	0,571100
19,783667	0,5	0,577850
19,792000	0,5	0,586000
19,800333	0,5	0,584650
19,808667	0,5	0,589250
19,817000	0,5	0,598650
19,825333	0,5	0,599850
19,833667	0,5	0,596550
19,842000	0,5	0,592700
19,850333	0,5	0,586150
19,858667	0,5	0,593300
19,867000	0,5	0,595200
19,875333	0,5	0,600200
19,883667	0,5	0,600700
19,892000	0,5	0,604250
19,900333	0,5	0,602500
19,908667	0,5	0,602200
19,917000	0,5	0,605800
19,925333	0,5	0,603350
19,933667	0,5	0,617850
19,942000	0,5	0,617800
19,950333	0,5	0,610350
19,958667	0,5	0,619350
19,967000	0,5	0,623100
19,975333	0,5	0,617900
19,983667	0,5	0,612900
19,992000	0,5	0,599000
20,000333	0,5	0,597900
20,008667	0,5	0,598800
20,017000	0,5	0,606550
20,025333	0,5	0,605450
20,033667	0,5	0,612300
20,042000	0,5	0,613200
20,050333	0,5	0,618350
20,058667	0,5	0,618550
20,067000	0,5	0,620700
20,075333	0,5	0,629650
20,083667	0,5	0,637950
20,092000	0,5	0,642550
20,100333	0,5	0,642650
20,108667	0,5	0,653450
20,117000	0,5	0,655500
20,125333	0,5	0,655650
20,133667	0,5	0,641350
20,142000	0,5	0,636050
20,150333	0,5	0,622200
20,158667	0,5	0,629800
20,167000	0,5	0,622850
20,175333	0,5	0,629500
20,183667	0,5	0,625400
20,192000	0,5	0,623550
20,200333	0,5	0,619700
20,208667	0,5	0,622350
20,217000	0,5	0,623700
20,225333	0,5	0,632350
20,233667	0,5	0,638350
20,242000	0,5	0,631650
20,250333	0,5	0,639200
20,258667	0,5	0,645100
20,267000	0,5	0,643450
20,275333	0,5	0,640600
20,283667	0,5	0,629700
20,292000	0,5	0,631400
20,300333	0,5	0,629850
20,308667	0,5	0,632650
20,317000	0,5	0,639450
20,325333	0,5	0,636450
20,333667	0,5	0,642350
20,342000	0,5	0,643950
20,350333	0,5	0,650500
20,358667	0,5	0,647850
20,367000	0,5	0,653700
20,375333	0,5	0,666000
20,383667	0,5	0,667200
20,392000	0,5	0,656800
20,400333	0,5	0,663650
20,408667	0,5	0,673450
20,417000	0,5	0,670000
20,425333	0,5	0,663800
20,433667	0,5	0,656800
20,442000	0,5	0,672950
20,450333	0,5	0,668950
20,458667	0,5	0,677900
20,467000	0,5	0,679400
20,475333	0,5	0,686500
20,483667	0,5	0,688900
20,492000	0,5	0,684000
20,500333	0,5	0,682200
20,508667	0,5	0,684550
20,517000	0,5	0,693650
20,525333	0,5	0,706350
20,533667	0,5	0,703300
20,542000	0,5	0,705700
20,550333	0,5	0,707950
20,558667	0,5	0,709900
20,567000	0,5	0,709250
20,575333	0,5	0,692800
20,583667	0,5	0,701650
20,592000	0,5	0,699600
20,600333	0,5	0,712600
20,608667	0,5	0,711400
20,617000	0,5	0,725750
20,625333	0,5	0,726750
20,633667	0,5	0,740650
20,642000	0,5	0,746250
20,650333	0,5	0,754350
20,658667	0,5	0,759600
20,667000	0,5	0,779400
20,675333	0,5	0,784750
20,683667	0,5	0,783050
20,692000	0,5	0,783950
20,700333	0,5	0,784300
20,708667	0,5	0,788450
20,717000	0,5	0,782600
20,725333	0,5	0,781000
20,733667	0,5	0,787350
20,742000	0,5	0,803250
20,750333	0,5	0,808800
20,758667	0,5	0,819550
20,767000	0,5	0,830350
20,775333	0,5	0,838200
20,783667	0,5	0,839250
20,792000	0,5	0,847550
20,800333	0,5	0,851000
20,808667	0,5	0,856350
20,817000	0,5	0,875150
20,825333	0,5	0,876750
20,833667	0,5	0,873100
20,842000	0,5	0,875050
20,850333	0,5	0,871100
20,858667	0,5	0,871150
20,867000	0,5	0,867000
20,875333	0,5	0,861150
20,883667	0,5	0,877950
20,892000	0,5	0,879100
20,900333	0,5	0,894150
20,908667	0,5	0,910100
20,917000	0,5	0,929300
20,925333	0,5	0,947850
20,933667	0,5	0,971000
20,942000	0,5	0,982500
20,950333	0,5	0,998150
20,958667	0,5	1,019000
20,967000	0,5	1,035850
20,975333	0,5	1,041350
20,983667	0,5	1,041800
20,992000	0,5	1,044750
21,000333	0,5	1,047750
21,008667	0,5	1,043250
21,017000	0,5	1,037450
21,025333	0,5	1,048650
21,033667	0,5	1,050700
21,042000	0,5	1,067050
21,050333	0,5	1,070450
21,058667	0,5	1,087250
21,067000	0,5	1,096250
21,075333	0,5	1,109750
21,083667	0,5	1,112850
21,092000	0,5	1,121450
21,100333	0,5	1,130400
21,108667	0,5	1,160800
21,117000	0,5	1,175500
21,125333	0,5	1,176150
21,133667	0,5	1,178950
21,142000	0,5	1,180800
21,150333	0,5	1,184900
21,158667	0,5	1,179800
21,167000	0,5	1,190550
21,175333	0,5	1,203450
21,183667	0,5	1,221700
21,192000	0,5	1,242800
21,200333	0,5	1,278500
21,208667	0,5	1,304600
21,217000	0,5	1,336950
21,225333	0,5	1,359550
21,233667	0,5	1,377900
21,242000	0,5	1,382650
21,250333	0,5	1,398450
21,258667	0,5	1,397500
21,267000	0,5	1,393650
21,275333	0,5	1,379950
21,283667	0,5	1,366250
21,292000	0,5	1,356250
21,300333	0,5	1,355550
21,308667	0,5	1,343750
21,317000	0,5	1,355400
21,325333	0,5	1,372000
21,333667	0,5	1,381100
21,342000	0,5	1,399450
21,350333	0,5	1,415200
21,358667	0,5	1,429900
21,367000	0,5	1,437850
21,375333	0,5	1,446800
21,383667	0,5	1,445350
21,392000	0,5	1,453650
21,400333	0,5	1,485350
21,408667	0,5	1,511150
21,417000	0,5	1,519300
21,425333	0,5	1,528900
21,433667	0,5	1,533800
21,442000	0,5	1,541600
21,450333	0,5	1,546050
21,458667	0,5	1,555650
21,467000	0,5	1,584650
21,475333	0,5	1,598200
21,483667	0,5	1,613400
21,492000	0,5	1,622800
21,500333	0,5	1,645500
21,508667	0,5	1,661200
21,517000	0,5	1,687000
21,525333	0,5	1,705500
21,533667	0,5	1,727050
21,542000	0,5	1,762450
21,550333	0,5	1,802000
21,558667	0,5	1,822500
21,567000	0,5	1,836300
21,575333	0,5	1,846200
21,583667	0,5	1,842200
21,592000	0,5	1,846900
21,600333	0,5	1,837700
21,608667	0,5	1,850050
21,617000	0,5	1,853100
21,625333	0,5	1,868100
21,633667	0,5	1,870000
21,642000	0,5	1,885950
21,650333	0,5	1,898700
21,658667	0,5	1,923900
21,667000	0,5	1,938200
21,675333	0,5	1,954500
21,683667	0,5	1,966650
21,692000	0,5	1,999900
21,700333	0,5	2,021150
21,708667	0,5	2,026650
21,717000	0,5	2,045700
21,725333	0,5	2,056800
21,733667	0,5	2,072500
21,742000	0,5	2,082150
21,750333	0,5	2,103650
21,758667	0,5	2,125350
21,767000	0,5	2,164800
21,775333	0,5	2,182000
21,783667	0,5	2,218700
21,792000	0,5	2,245850
21,800333	0,5	2,281250
21,808667	0,5	2,305050
21,817000	0,5	2,328300
21,825333	0,5	2,346000
21,833667	0,5	2,373800
21,842000	0,5	2,404950
21,850333	0,5	2,418450
21,858667	0,5	2,431100
21,867000	0,5	2,445200
21,875333	0,5	2,455800
21,883667	0,5	2,466800
21,892000	0,5	2,483050
21,900333	0,5	2,499950
21,908667	0,5	2,540100
21,917000	0,5	2,558200
21,925333	0,5	2,590100
21,933667	0,5	2,617200
21,942000	0,5	2,646700
21,950333	0,5	2,665600
21,958667	0,5	2,699700
21,967000	0,5	2,720950
21,975333	0,5	2,741250
21,983667	0,5	2,790750
21,992000	0,5	2,817550
22,000333	0,5	2,848000
22,008667	0,5	2,887850
22,017000	0,5	2,915350
22,025333	0,5	2,952550
22,033667	0,5	2,984900
22,042000	0,5	3,022450
22,050333	0,5	3,064150
22,058667	0,5	3,086500
22,067000	0,5	3,102150
22,075333	0,5	3,116650
22,083667	0,5	3,143300
22,092000	0,5	3,161500
22,100333	0,5	3,191650
22,108667	0,5	3,214050
22,117000	0,5	3,244050
22,125333	0,5	3,274950
22,133667	0,5	3,310250
22,142000	0,5	3,323400
22,150333	0,5	3,355950
22,158667	0,5	3,388050
22,167000	0,5	3,407450
22,175333	0,5	3,436450
22,183667	0,5	3,456350
22,192000	0,5	3,496650
22,200333	0,5	3,533050
22,208667	0,5	3,580550
22,217000	0,5	3,615600
22,225333	0,5	3,662500
22,233667	0,5	3,694050
22,242000	0,5	3,730700
22,250333	0,5	3,770050
22,258667	0,5	3,805300
22,267000	0,5	3,842000
22,275333	0,5	3,881800
22,283667	0,5	3,926650
22,292000	0,5	3,983500
22,300333	0,5	4,050850
22,308667	0,5	4,113850
22,317000	0,5	4,183500
22,325333	0,5	4,244150
22,333667	0,5	4,311300
22,342000	0,5	4,380250
22,350333	0,5	4,448700
22,358667	0,5	4,488650
22,367000	0,5	4,539050
22,375333	0,5	4,578500
22,383667	0,5	4,621550
22,392000	0,5	4,660800
22,400333	0,5	4,703850
22,408667	0,5	4,749000
22,417000	0,5	4,784850
22,425333	0,5	4,830350
22,433667	0,5	4,879850
22,442000	0,5	4,958600
22,450333	0,5	5,022500
22,458667	0,5	5,086000
22,467000	0,5	5,147950
22,475333	0,5	5,206200
22,483667	0,5	5,283050
22,492000	0,5	5,370750
22,500333	0,5	5,440650
22,508667	0,5	5,520450
22,517000	0,5	5,588950
22,525333	0,5	5,667250
22,533667	0,5	5,737550
22,542000	0,5	5,814400
22,550333	0,5	5,879650
22,558667	0,5	5,945850
22,567000	0,5	5,989750
22,575333	0,5	6,064750
22,583667	0,5	6,134900
22,592000	0,5	6,216100
22,600333	0,5	6,272400
22,608667	0,5	6,320400
22,617000	0,5	6,366850
22,625333	0,5	6,403600
22,633667	0,5	6,459950
22,642000	0,5	6,499650
22,650333	0,5	6,535800
22,658667	0,5	6,567200
22,667000	0,5	6,600150
22,675333	0,5	6,619050
22,683667	0,5	6,641350
22,692000	0,5	6,649500
22,700333	0,5	6,655550
22,708667	0,5	6,636600
22,717000	0,5	6,594400
22,725333	0,5	6,590550
22,733667	0,5	6,574400
22,742000	0,5	6,535800
22,750333	0,5	6,479500
22,758667	0,5	6,414750
22,767000	0,5	6,336400
22,775333	0,5	6,257300
22,783667	0,5	6,171500
22,792000	0,5	6,077550
22,800333	0,5	5,967800
22,808667	0,5	5,850200
22,817000	0,5	5,714900
22,825333	0,5	5,576050
22,833667	0,5	5,423100
22,842000	0,5	5,267650
22,850333	0,5	5,100150
22,858667	0,5	4,882800
22,867000	0,5	4,723300
22,875333	0,5	4,560700
22,883667	0,5	4,387000
22,892000	0,5	4,203350
22,900333	0,5	4,001700
22,908667	0,5	3,817000
22,917000	0,5	3,620200
22,925333	0,5	3,426350
22,933667	0,5	3,232200
22,942000	0,5	3,048150
22,950333	0,5	2,853400
22,958667	0,5	2,675750
22,967000	0,5	2,496050
22,975333	0,5	2,324700
22,983667	0,5	2,149250
22,992000	0,5	1,986950
23,000333	0,5	1,839400
23,008667	0,5	1,679400
23,017000	0,5	1,533500
23,025333	0,5	1,360050
23,033667	0,5	1,200200
23,042000	0,5	1,064200
23,050333	0,5	0,931000
23,058667	0,5	0,814500
23,067000	0,5	0,689100
23,075333	0,5	0,560400
23,083667	0,5	0,458700
23,092000	0,5	0,347400
23,100333	0,5	0,251650
23,108667	0,5	0,144700
23,117000	0,5	0,062100
23,125333	0,5	-0,033300
23,133667	0,5	-0,116600
23,142000	0,5	-0,201350
23,150333	0,5	-0,245100
23,158667	0,5	-0,329750
23,167000	0,5	-0,401650
23,175333	0,5	-0,508000
23,183667	0,5	-0,580950
23,192000	0,5	-0,631650
23,200333	0,5	-0,691950
23,208667	0,5	-0,731800
23,217000	0,5	-0,791200
23,225333	0,5	-0,832300
23,233667	0,5	-0,881450
23,242000	0,5	-0,917100
23,250333	0,5	-0,959500
23,258667	0,5	-0,987550
23,267000	0,5	-1,025150
23,275333	0,5	-1,048550
23,283667	0,5	-1,085500
23,292000	0,5	-1,106800
23,300333	0,5	-1,148350
23,308667	0,5	-1,157400
23,317000	0,5	-1,163300
23,325333	0,5	-1,220550
23,333667	0,5	-1,255400
23,342000	0,5	-1,271250
23,350333	0,5	-1,282500
23,358667	0,5	-1,292500
23,367000	0,5	-1,313700
23,375333	0,5	-1,324400
23,383667	0,5	-1,332750
23,392000	0,5	-1,338300
23,400333	0,5	-1,340000
23,408667	0,5	-1,347950
23,417000	0,5	-1,343700
23,425333	0,5	-1,352600
23,433667	0,5	-1,352200
23,442000	0,5	-1,354750
23,450333	0,5	-1,395400
23,458667	0,5	-1,365050
23,467000	0,5	-1,347800
23,475333	0,5	-1,364750
23,483667	0,5	-1,379400
23,492000	0,5	-1,383850
23,500333	0,5	-1,376600
23,508667	0,5	-1,379800
23,517000	0,5	-1,382200
23,525333	0,5	-1,381550
23,533667	0,5	-1,377650
23,542000	0,5	-1,371000
23,550333	0,5	-1,370750
23,558667	0,5	-1,361750
23,567000	0,5	-1,357650
23,575333	0,5	-1,347800
23,583667	0,5	-1,345100
23,592000	0,5	-1,428050
23,600333	0,5	-1,380850
23,608667	0,5	-1,355400
23,617000	0,5	-1,311900
23,625333	0,5	-1,311450
23,633667	0,5	-1,309700
23,642000	0,5	-1,304300
23,650333	0,5	-1,299100
23,658667	0,5	-1,291600
23,667000	0,5	-1,288050
23,675333	0,5	-1,281600
23,683667	0,5	-1,273650
23,692000	0,5	-1,263050
23,700333	0,5	-1,254750
23,708667	0,5	-1,246200
23,717000	0,5	-1,240250
23,725333	0,5	-1,232600
23,733667	0,5	-1,237300
23,742000	0,5	-1,335250
23,750333	0,5	-1,284050
23,758667	0,5	-1,235150
23,767000	0,5	-1,193150
23,775333	0,5	-1,180800
23,783667	0,5	-1,173050
23,792000	0,5	-1,164500
23,800333	0,5	-1,161000
23,808667	0,5	-1,145600
23,817000	0,5	-1,135150
23,825333	0,5	-1,119550
23,833667	0,5	-1,111050
23,842000	0,5	-1,093650
23,850333	0,5	-1,082050
23,858667	0,5	-1,069150
23,867000	0,5	-1,056200
23,875333	0,5	-1,049550
23,883667	0,5	-1,106500
23,892000	0,5	-1,145200
23,900333	0,5	-1,103650
23,908667	0,5	-1,053050
23,917000	0,5	-1,011800
23,925333	0,5	-0,998600
23,933667	0,5	-0,986450
23,942000	0,5	-0,985900
23,950333	0,5	-0,980050
23,958667	0,5	-0,970100
23,967000	0,5	-0,945350
23,975333	0,5	-0,932200
23,983667	0,5	-0,917250
23,992000	0,5	-0,907350
24,000333	0,5	-0,892100
24,008667	0,5	-0,877350
24,017000	0,5	-0,864100
24,025333	0,5	-0,852400
24,033667	0,5	-0,958050
24,042000	0,5	-0,920200
24,050333	0,5	-0,877900
24,058667	0,5	-0,828250
24,067000	0,5	-0,802550
24,075333	0,5	-0,789050
24,083667	0,5	-0,782850
24,092000	0,5	-0,782150
24,100333	0,5	-0,778400
24,108667	0,5	-0,756200
24,117000	0,5	-0,746650
24,125333	0,5	-0,732400
24,133667	0,5	-0,721200
24,142000	0,5	-0,707450
24,150333	0,5	-0,694650
24,158667	0,5	-0,678850
24,167000	0,5	-0,667050
24,175333	0,5	-0,679100
24,183667	0,5	-0,747000
24,192000	0,5	-0,719250
24,200333	0,5	-0,682400
24,208667	0,5	-0,637000
24,217000	0,5	-0,613850
24,225333	0,5	-0,600800
24,233667	0,5	-0,596200
24,242000	0,5	-0,590450
24,250333	0,5	-0,568700
24,258667	0,5	-0,560650
24,267000	0,5	-0,546350
24,275333	0,5	-0,540800
24,283667	0,5	-0,526300
24,292000	0,5	-0,517100
24,300333	0,5	-0,504150
24,308667	0,5	-0,497500
24,317000	0,5	-0,486450
24,325333	0,5	-0,554000
24,333667	0,5	-0,542100
24,342000	0,5	-0,528600
24,350333	0,5	-0,482550
24,358667	0,5	-0,460100
24,367000	0,5	-0,443200
24,375333	0,5	-0,438650
24,383667	0,5	-0,440400
24,392000	0,5	-0,431400
24,400333	0,5	-0,419300
24,408667	0,5	-0,404750
24,417000	0,5	-0,397050
24,425333	0,5	-0,385900
24,433667	0,5	-0,377500
24,442000	0,5	-0,365800
24,450333	0,5	-0,357300
24,458667	0,5	-0,349050
24,467000	0,5	-0,346050
24,475333	0,5	-0,415500
24,483667	0,5	-0,382300
24,492000	0,5	-0,370900
24,500333	0,5	-0,340550
24,508667	0,5	-0,322450
24,517000	0,5	-0,317750
24,525333	0,5	-0,311950
24,533667	0,5	-0,315400
24,542000	0,5	-0,306950
24,550333	0,5	-0,295550
24,558667	0,5	-0,288900
24,567000	0,5	-0,283000
24,575333	0,5	-0,274700
24,583667	0,5	-0,269400
24,592000	0,5	-0,262550
24,600333	0,5	-0,251400
24,608667	0,5	-0,248300
24,617000	0,5	-0,255950
24,625333	0,5	-0,293800
24,633667	0,5	-0,263900
24,642000	0,5	-0,249450
24,650333	0,5	-0,228850
24,658667	0,5	-0,217100
24,667000	0,5	-0,213450
24,675333	0,5	-0,215400
24,683667	0,5	-0,223600
24,692000	0,5	-0,214650
24,700333	0,5	-0,204450
24,708667	0,5	-0,200500
24,717000	0,5	-0,196500
24,725333	0,5	-0,192550
24,733667	0,5	-0,188000
24,742000	0,5	-0,183300
24,750333	0,5	-0,177500
24,758667	0,5	-0,169400
24,767000	0,5	-0,203000
24,775333	0,5	-0,196250
24,783667	0,5	-0,188650
24,792000	0,5	-0,167500
24,800333	0,5	-0,155850
24,808667	0,5	-0,153950
24,817000	0,5	-0,149550
24,825333	0,5	-0,147500
24,833667	0,5	-0,154100
24,842000	0,5	-0,144450
24,850333	0,5	-0,139850
24,858667	0,5	-0,134200
24,867000	0,5	-0,133100
24,875333	0,5	-0,131150
24,883667	0,5	-0,128800
24,892000	0,5	-0,122600
24,900333	0,5	-0,118750
24,908667	0,5	-0,118200
24,917000	0,5	-0,138900
24,925333	0,5	-0,134000
24,933667	0,5	-0,123800
24,942000	0,5	-0,123700
24,950333	0,5	-0,104100
24,958667	0,5	-0,099250
24,967000	0,5	-0,100050
24,975333	0,5	-0,105000
24,983667	0,5	-0,100100
24,992000	0,5	-0,101700
25,000333	0,5	-0,090100
25,008667	0,5	-0,090900
25,017000	0,5	-0,087750
25,025333	0,5	-0,083950
25,033667	0,5	-0,080550
25,042000	0,5	-0,076150
25,050333	0,5	-0,074000
25,058667	0,5	-0,078950
25,067000	0,5	-0,090800
25,075333	0,5	-0,084750
25,083667	0,5	-0,073800
25,092000	0,5	-0,069100
25,100333	0,5	-0,064150
25,108667	0,5	-0,065600
25,117000	0,5	-0,068550
25,125333	0,5	-0,065500
25,133667	0,5	-0,065600
25,142000	0,5	-0,060150
25,150333	0,5	-0,058400
25,158667	0,5	-0,055050
25,167000	0,5	-0,057250
25,175333	0,5	-0,051550
25,183667	0,5	-0,046150
25,192000	0,5	-0,047850
25,200333	0,5	-0,045300
25,208667	0,5	-0,052500
25,217000	0,5	-0,048600
25,225333	0,5	-0,048200
25,233667	0,5	-0,042500
25,242000	0,5	-0,038350
25,250333	0,5	-0,035650
25,258667	0,5	-0,037000
25,267000	0,5	-0,040750
25,275333	0,5	-0,039600
25,283667	0,5	-0,037000
25,292000	0,5	-0,036950
25,300333	0,5	-0,036650
25,308667	0,5	-0,035200
25,317000	0,5	-0,032750
25,325333	0,5	-0,034650
25,333667	0,5	-0,030100
25,342000	0,5	-0,030950
25,350333	0,5	-0,031100
25,358667	0,5	-0,033850
25,367000	0,5	-0,028150
25,375333	0,5	-0,025400
25,383667	0,5	-0,024350
25,392000	0,5	-0,022000
25,400333	0,5	-0,021900
25,408667	0,5	-0,023500
25,417000	0,5	-0,023700
25,425333	0,5	-0,021700
25,433667	0,5	-0,021050
25,442000	0,5	-0,020950
25,450333	0,5	-0,019450
25,458667	0,5	-0,023700
25,467000	0,5	-0,023500
25,475333	0,5	-0,020150
25,483667	0,5	-0,017950
25,492000	0,5	-0,016750
25,500333	0,5	-0,018050
25,508667	0,5	-0,016500
25,517000	0,5	-0,015400
25,525333	0,5	-0,012550
25,533667	0,5	-0,014200
25,542000	0,5	-0,013200
25,550333	0,5	-0,012700
25,558667	0,5	-0,012950
25,567000	0,5	-0,014250
25,575333	0,5	-0,010950
25,583667	0,5	-0,011700
25,592000	0,5	-0,012100
25,600333	0,5	-0,012150
25,608667	0,5	-0,012700
25,617000	0,5	-0,011250
25,625333	0,5	-0,011850
25,633667	0,5	-0,012100
25,642000	0,5	-0,010800
25,650333	0,5	-0,009550
25,658667	0,5	-0,006300
25,667000	0,5	-0,005800
25,675333	0,5	-0,004550
25,683667	0,5	-0,008450
25,692000	0,5	-0,006450
25,700333	0,5	-0,008600
25,708667	0,5	-0,003900
25,717000	0,5	-0,005650
25,725333	0,5	-0,002500
25,733667	0,5	-0,006550
25,742000	0,5	-0,006150
25,750333	0,5	-0,001150
25,758667	0,5	-0,002000
25,767000	0,5	-0,002450
25,775333	0,5	-0,001800
25,783667	0,5	-0,001950
25,792000	0,5	-0,001250
25,800333	0,5	0,002400
25,808667	0,5	0,002000
25,817000	0,5	0,005400
25,825333	0,5	-0,001150
25,833667	0,5	0,000950
25,842000	0,5	0,004200
25,850333	0,5	0,003050
25,858667	0,5	0,005550
25,867000	0,5	0,008000
25,875333	0,5	0,007700
25,883667	0,5	0,007600
25,892000	0,5	0,006850
25,900333	0,5	0,009950
25,908667	0,5	0,008500
25,917000	0,5	0,006300
25,925333	0,5	0,009500
25,933667	0,5	0,009000
25,942000	0,5	0,011000
25,950333	0,5	0,011550
25,958667	0,5	0,018200
25,967000	0,5	0,017950
25,975333	0,5	0,011950
25,983667	0,5	0,010900
25,992000	0,5	0,011850
26,000333	0,5	0,014550
