File Path	chrom://chromeleon01/ikbm_chromeleon/2022/ICS-5000/ED1/Esteban/20220612_Cell_7_4_eg.seq/531.smp/ED_1.channel/ED_1.chm
Channel	ED_1

Injection Information:
Data Vault	ikbm_chromeleon
Injection	7_24h-EGS-pH6-Std0.0025_1
Injection Number	52
Position	RA6
Comment	
Processing Method	Stop sequence after Cell Death
Instrument Method	ICS5000_PA200_FullNative_Ox_26min_ED1
Type	Unknown
Status	Finished
Injection Date	13.06.2022
Injection Time	16:20:37
Injection Volume (µl)	5,0
Dilution Factor	1,0000
Weight	1,0000

Chromatogram Data Information:
Time Min. (min)	0,000167
Time Max. (min)	26,000167
Data Points	3121
Detector	EDet1
Generating Data System	Chromeleon 7.2.9.11323
Exporting Data System	Chromeleon 7.2.9.0
Operator	Instrument Controller
Signal Quantity	
Signal Unit	nC
Signal Min.	-2,087800
Signal Max.	155,158652
Channel	ED_1
Driver Name	DC-5000
Channel Type	Evaluation
Min. Step (s)	0,5
Max. Step (s)	0,5
Average Step (s)	0,5

Signal Parameter Information:
Signal Info	

Chromatogram Data:
Time (min)	Step (s)	Value (nC)
0,000167	n.a.	-0,008050
0,008500	0,5	-0,048600
0,016833	0,5	-0,048700
0,025167	0,5	-0,043400
0,033500	0,5	-0,040350
0,041833	0,5	-0,021650
0,050167	0,5	0,003400
0,058500	0,5	0,013850
0,066833	0,5	0,006000
0,075167	0,5	0,007250
0,083500	0,5	0,012150
0,091833	0,5	0,016850
0,100167	0,5	0,006850
0,108500	0,5	0,010450
0,116833	0,5	-0,000150
0,125167	0,5	0,007650
0,133500	0,5	0,005600
0,141833	0,5	0,008550
0,150167	0,5	0,015050
0,158500	0,5	0,019100
0,166833	0,5	-0,003850
0,175167	0,5	-0,000650
0,183500	0,5	0,005200
0,191833	0,5	0,026900
0,200167	0,5	0,033000
0,208500	0,5	0,030150
0,216833	0,5	0,032250
0,225167	0,5	0,031550
0,233500	0,5	0,030450
0,241833	0,5	0,024950
0,250167	0,5	0,030100
0,258500	0,5	0,020850
0,266833	0,5	0,026350
0,275167	0,5	0,031550
0,283500	0,5	0,032300
0,291833	0,5	0,019100
0,300167	0,5	0,060250
0,308500	0,5	0,046300
0,316833	0,5	0,024200
0,325167	0,5	0,014800
0,333500	0,5	0,017900
0,341833	0,5	0,035250
0,350167	0,5	0,039150
0,358500	0,5	0,037200
0,366833	0,5	0,040350
0,375167	0,5	0,045300
0,383500	0,5	0,045800
0,391833	0,5	0,042950
0,400167	0,5	0,039050
0,408500	0,5	0,042800
0,416833	0,5	0,038400
0,425167	0,5	0,044550
0,433500	0,5	0,031000
0,441833	0,5	0,027550
0,450167	0,5	0,052800
0,458500	0,5	0,039000
0,466833	0,5	0,039450
0,475167	0,5	0,046950
0,483500	0,5	0,045650
0,491833	0,5	0,077300
0,500167	0,5	0,064800
0,508500	0,5	0,073500
0,516833	0,5	0,064100
0,525167	0,5	0,073300
0,533500	0,5	0,071300
0,541833	0,5	0,073050
0,550167	0,5	0,069200
0,558500	0,5	0,072150
0,566833	0,5	0,081800
0,575167	0,5	0,081950
0,583500	0,5	0,076700
0,591833	0,5	0,080800
0,600167	0,5	0,100350
0,608500	0,5	0,073850
0,616833	0,5	0,075050
0,625167	0,5	0,080200
0,633500	0,5	0,097650
0,641833	0,5	0,113700
0,650167	0,5	0,115050
0,658500	0,5	0,113250
0,666833	0,5	0,120950
0,675167	0,5	0,112250
0,683500	0,5	0,115350
0,691833	0,5	0,114300
0,700167	0,5	0,118500
0,708500	0,5	0,117700
0,716833	0,5	0,119650
0,725167	0,5	0,127400
0,733500	0,5	0,127000
0,741833	0,5	0,133100
0,750167	0,5	0,137450
0,758500	0,5	0,125750
0,766833	0,5	0,126600
0,775167	0,5	0,136850
0,783500	0,5	0,151550
0,791833	0,5	0,168800
0,800167	0,5	0,155000
0,808500	0,5	0,163450
0,816833	0,5	0,163550
0,825167	0,5	0,171100
0,833500	0,5	0,165850
0,841833	0,5	0,168650
0,850167	0,5	0,169850
0,858500	0,5	0,177100
0,866833	0,5	0,173800
0,875167	0,5	0,178350
0,883500	0,5	0,168950
0,891833	0,5	0,190250
0,900167	0,5	0,180250
0,908500	0,5	0,174750
0,916833	0,5	0,177550
0,925167	0,5	0,190000
0,933500	0,5	0,206200
0,941833	0,5	0,219400
0,950167	0,5	0,227550
0,958500	0,5	0,221200
0,966833	0,5	0,219650
0,975167	0,5	0,218000
0,983500	0,5	0,221800
0,991833	0,5	0,217800
1,000167	0,5	0,225150
1,008500	0,5	0,227700
1,016833	0,5	0,233000
1,025167	0,5	0,218700
1,033500	0,5	0,226300
1,041833	0,5	0,236800
1,050167	0,5	0,227150
1,058500	0,5	0,227700
1,066833	0,5	0,233750
1,075167	0,5	0,242650
1,083500	0,5	0,260450
1,091833	0,5	0,268200
1,100167	0,5	0,269000
1,108500	0,5	0,267650
1,116833	0,5	0,266600
1,125167	0,5	0,268950
1,133500	0,5	0,271600
1,141833	0,5	0,273250
1,150167	0,5	0,271650
1,158500	0,5	0,274650
1,166833	0,5	0,267150
1,175167	0,5	0,267700
1,183500	0,5	0,280750
1,191833	0,5	0,284000
1,200167	0,5	0,267800
1,208500	0,5	0,271250
1,216833	0,5	0,268000
1,225167	0,5	0,290300
1,233500	0,5	0,301300
1,241833	0,5	0,305450
1,250167	0,5	0,299150
1,258500	0,5	0,304600
1,266833	0,5	0,301250
1,275167	0,5	0,299150
1,283500	0,5	0,293100
1,291833	0,5	0,288700
1,300167	0,5	0,291100
1,308500	0,5	0,289700
1,316833	0,5	0,295600
1,325167	0,5	0,283450
1,333500	0,5	0,306450
1,341833	0,5	0,287300
1,350167	0,5	0,277850
1,358500	0,5	0,272300
1,366833	0,5	0,279300
1,375167	0,5	0,294150
1,383500	0,5	0,299050
1,391833	0,5	0,287400
1,400167	0,5	0,292850
1,408500	0,5	0,284650
1,416833	0,5	0,285050
1,425167	0,5	0,286750
1,433500	0,5	0,286750
1,441833	0,5	0,276350
1,450167	0,5	0,275550
1,458500	0,5	0,275750
1,466833	0,5	0,265600
1,475167	0,5	0,260000
1,483500	0,5	0,281800
1,491833	0,5	0,259350
1,500167	0,5	0,255350
1,508500	0,5	0,255950
1,516833	0,5	0,256300
1,525167	0,5	0,280050
1,533500	0,5	0,265200
1,541833	0,5	0,266300
1,550167	0,5	0,255500
1,558500	0,5	0,240000
1,566833	0,5	0,146750
1,575167	0,5	-0,117050
1,583500	0,5	-0,583500
1,591833	0,5	-0,629750
1,600167	0,5	1,236000
1,608500	0,5	8,297250
1,616833	0,5	27,504550
1,625167	0,5	66,199351
1,633500	0,5	116,665702
1,641833	0,5	152,755602
1,650167	0,5	155,158652
1,658500	0,5	130,553502
1,666833	0,5	98,291951
1,675167	0,5	70,796401
1,683500	0,5	51,032351
1,691833	0,5	37,790551
1,700167	0,5	29,173900
1,708500	0,5	23,584400
1,716833	0,5	19,880700
1,725167	0,5	17,225800
1,733500	0,5	15,192850
1,741833	0,5	13,623800
1,750167	0,5	12,444100
1,758500	0,5	11,570250
1,766833	0,5	11,047250
1,775167	0,5	10,966300
1,783500	0,5	11,312550
1,791833	0,5	11,809750
1,800167	0,5	12,107750
1,808500	0,5	11,918250
1,816833	0,5	11,287850
1,825167	0,5	10,462400
1,833500	0,5	9,655000
1,841833	0,5	8,988750
1,850167	0,5	8,467950
1,858500	0,5	8,086000
1,866833	0,5	7,850300
1,875167	0,5	7,799700
1,883500	0,5	7,922250
1,891833	0,5	8,094100
1,900167	0,5	8,063750
1,908500	0,5	7,758200
1,916833	0,5	7,336700
1,925167	0,5	7,019000
1,933500	0,5	6,822650
1,941833	0,5	6,805100
1,950167	0,5	6,993500
1,958500	0,5	7,406400
1,966833	0,5	8,054800
1,975167	0,5	8,864300
1,983500	0,5	9,495100
1,991833	0,5	9,597500
2,000167	0,5	9,200650
2,008500	0,5	8,685850
2,016833	0,5	8,369000
2,025167	0,5	8,302550
2,033500	0,5	8,409100
2,041833	0,5	8,645400
2,050167	0,5	9,064400
2,058500	0,5	9,573600
2,066833	0,5	9,853950
2,075167	0,5	9,620750
2,083500	0,5	9,033650
2,091833	0,5	8,453250
2,100167	0,5	8,052700
2,108500	0,5	7,876350
2,116833	0,5	7,954250
2,125167	0,5	8,317850
2,133500	0,5	9,094250
2,141833	0,5	10,099300
2,150167	0,5	10,767050
2,158500	0,5	10,647550
2,166833	0,5	9,955900
2,175167	0,5	9,160150
2,183500	0,5	8,541050
2,191833	0,5	8,127950
2,200167	0,5	7,852800
2,208500	0,5	7,701800
2,216833	0,5	7,634300
2,225167	0,5	7,597200
2,233500	0,5	7,574700
2,241833	0,5	7,592850
2,250167	0,5	7,637300
2,258500	0,5	7,722550
2,266833	0,5	7,844600
2,275167	0,5	8,053800
2,283500	0,5	8,377600
2,291833	0,5	8,804350
2,300167	0,5	9,170900
2,308500	0,5	9,304600
2,316833	0,5	9,091850
2,325167	0,5	8,711550
2,333500	0,5	8,406650
2,341833	0,5	8,268900
2,350167	0,5	8,241450
2,358500	0,5	8,270950
2,366833	0,5	8,367450
2,375167	0,5	8,500850
2,383500	0,5	8,699600
2,391833	0,5	8,980800
2,400167	0,5	9,356650
2,408500	0,5	9,895250
2,416833	0,5	10,656900
2,425167	0,5	11,698150
2,433500	0,5	12,859800
2,441833	0,5	13,724800
2,450167	0,5	13,975850
2,458500	0,5	13,621300
2,466833	0,5	12,975550
2,475167	0,5	12,339700
2,483500	0,5	11,932800
2,491833	0,5	11,831750
2,500167	0,5	12,130100
2,508500	0,5	12,991150
2,516833	0,5	14,678550
2,525167	0,5	17,361700
2,533500	0,5	21,069050
2,541833	0,5	25,126050
2,550167	0,5	28,168200
2,558500	0,5	28,873250
2,566833	0,5	26,998500
2,575167	0,5	23,657650
2,583500	0,5	20,268600
2,591833	0,5	17,847700
2,600167	0,5	16,808200
2,608500	0,5	17,227700
2,616833	0,5	18,752400
2,625167	0,5	20,600800
2,633500	0,5	21,797700
2,641833	0,5	21,740800
2,650167	0,5	20,458100
2,658500	0,5	18,432050
2,666833	0,5	16,221750
2,675167	0,5	14,205400
2,683500	0,5	12,627500
2,691833	0,5	11,496400
2,700167	0,5	10,715150
2,708500	0,5	10,191950
2,716833	0,5	9,808950
2,725167	0,5	9,539100
2,733500	0,5	9,340150
2,741833	0,5	9,194000
2,750167	0,5	9,099200
2,758500	0,5	9,078100
2,766833	0,5	9,173700
2,775167	0,5	9,373950
2,783500	0,5	9,643450
2,791833	0,5	9,837050
2,800167	0,5	9,849450
2,808500	0,5	9,634550
2,816833	0,5	9,236150
2,825167	0,5	8,761000
2,833500	0,5	8,340100
2,841833	0,5	8,013100
2,850167	0,5	7,804400
2,858500	0,5	7,703400
2,866833	0,5	7,721200
2,875167	0,5	7,933400
2,883500	0,5	8,416900
2,891833	0,5	9,199450
2,900167	0,5	10,156250
2,908500	0,5	10,978500
2,916833	0,5	11,346650
2,925167	0,5	11,101250
2,933500	0,5	10,342100
2,941833	0,5	9,350050
2,950167	0,5	8,380150
2,958500	0,5	7,600550
2,966833	0,5	6,998150
2,975167	0,5	6,561600
2,983500	0,5	6,245050
2,991833	0,5	6,010600
3,000167	0,5	5,821550
3,008500	0,5	5,669550
3,016833	0,5	5,521150
3,025167	0,5	5,401100
3,033500	0,5	5,289600
3,041833	0,5	5,194650
3,050167	0,5	5,113600
3,058500	0,5	5,041100
3,066833	0,5	4,976750
3,075167	0,5	4,924100
3,083500	0,5	4,881650
3,091833	0,5	4,831100
3,100167	0,5	4,799250
3,108500	0,5	4,755800
3,116833	0,5	4,679550
3,125167	0,5	4,590450
3,133500	0,5	4,486400
3,141833	0,5	4,385850
3,150167	0,5	4,298300
3,158500	0,5	4,191200
3,166833	0,5	4,099750
3,175167	0,5	4,010450
3,183500	0,5	3,938400
3,191833	0,5	3,869350
3,200167	0,5	3,817350
3,208500	0,5	3,762750
3,216833	0,5	3,729200
3,225167	0,5	3,698950
3,233500	0,5	3,681950
3,241833	0,5	3,660800
3,250167	0,5	3,656250
3,258500	0,5	3,611500
3,266833	0,5	3,542850
3,275167	0,5	3,471400
3,283500	0,5	3,395600
3,291833	0,5	3,333750
3,300167	0,5	3,264950
3,308500	0,5	3,207100
3,316833	0,5	3,149250
3,325167	0,5	3,104900
3,333500	0,5	3,052700
3,341833	0,5	3,014500
3,350167	0,5	2,963950
3,358500	0,5	2,922700
3,366833	0,5	2,879350
3,375167	0,5	2,844500
3,383500	0,5	2,814250
3,391833	0,5	2,777500
3,400167	0,5	2,770500
3,408500	0,5	2,740600
3,416833	0,5	2,718250
3,425167	0,5	2,703000
3,433500	0,5	2,699800
3,441833	0,5	2,713800
3,450167	0,5	2,706400
3,458500	0,5	2,696850
3,466833	0,5	2,698150
3,475167	0,5	2,698250
3,483500	0,5	2,702000
3,491833	0,5	2,699600
3,500167	0,5	2,693400
3,508500	0,5	2,672650
3,516833	0,5	2,660150
3,525167	0,5	2,634400
3,533500	0,5	2,611250
3,541833	0,5	2,569650
3,550167	0,5	2,557400
3,558500	0,5	2,512000
3,566833	0,5	2,489200
3,575167	0,5	2,467900
3,583500	0,5	2,456850
3,591833	0,5	2,457450
3,600167	0,5	2,441000
3,608500	0,5	2,431700
3,616833	0,5	2,426800
3,625167	0,5	2,426900
3,633500	0,5	2,433350
3,641833	0,5	2,443200
3,650167	0,5	2,458800
3,658500	0,5	2,500050
3,666833	0,5	2,560200
3,675167	0,5	2,657200
3,683500	0,5	2,771400
3,691833	0,5	2,919300
3,700167	0,5	3,079500
3,708500	0,5	3,210400
3,716833	0,5	3,317150
3,725167	0,5	3,372800
3,733500	0,5	3,371500
3,741833	0,5	3,317950
3,750167	0,5	3,198600
3,758500	0,5	3,077000
3,766833	0,5	2,943650
3,775167	0,5	2,835450
3,783500	0,5	2,741000
3,791833	0,5	2,671500
3,800167	0,5	2,619600
3,808500	0,5	2,581100
3,816833	0,5	2,555450
3,825167	0,5	2,519350
3,833500	0,5	2,487800
3,841833	0,5	2,465900
3,850167	0,5	2,437050
3,858500	0,5	2,397000
3,866833	0,5	2,379650
3,875167	0,5	2,354950
3,883500	0,5	2,354400
3,891833	0,5	2,344100
3,900167	0,5	2,332200
3,908500	0,5	2,317200
3,916833	0,5	2,314750
3,925167	0,5	2,312650
3,933500	0,5	2,310850
3,941833	0,5	2,305000
3,950167	0,5	2,312550
3,958500	0,5	2,322700
3,966833	0,5	2,336050
3,975167	0,5	2,350100
3,983500	0,5	2,363650
3,991833	0,5	2,381300
4,000167	0,5	2,385250
4,008500	0,5	2,374650
4,016833	0,5	2,367250
4,025167	0,5	2,356900
4,033500	0,5	2,338150
4,041833	0,5	2,320900
4,050167	0,5	2,291150
4,058500	0,5	2,268950
4,066833	0,5	2,251800
4,075167	0,5	2,235250
4,083500	0,5	2,224950
4,091833	0,5	2,224450
4,100167	0,5	2,216500
4,108500	0,5	2,227000
4,116833	0,5	2,239450
4,125167	0,5	2,250750
4,133500	0,5	2,269850
4,141833	0,5	2,297300
4,150167	0,5	2,298250
4,158500	0,5	2,305350
4,166833	0,5	2,309550
4,175167	0,5	2,303250
4,183500	0,5	2,294150
4,191833	0,5	2,264800
4,200167	0,5	2,233900
4,208500	0,5	2,202950
4,216833	0,5	2,178050
4,225167	0,5	2,151150
4,233500	0,5	2,133800
4,241833	0,5	2,112900
4,250167	0,5	2,099450
4,258500	0,5	2,090750
4,266833	0,5	2,079650
4,275167	0,5	2,066850
4,283500	0,5	2,080000
4,291833	0,5	2,076950
4,300167	0,5	2,071150
4,308500	0,5	2,071950
4,316833	0,5	2,081750
4,325167	0,5	2,098750
4,333500	0,5	2,105300
4,341833	0,5	2,108800
4,350167	0,5	2,108450
4,358500	0,5	2,114900
4,366833	0,5	2,116200
4,375167	0,5	2,121900
4,383500	0,5	2,123050
4,391833	0,5	2,128000
4,400167	0,5	2,133650
4,408500	0,5	2,146900
4,416833	0,5	2,154250
4,425167	0,5	2,158250
4,433500	0,5	2,182000
4,441833	0,5	2,185000
4,450167	0,5	2,199050
4,458500	0,5	2,225650
4,466833	0,5	2,265900
4,475167	0,5	2,338850
4,483500	0,5	2,417500
4,491833	0,5	2,516650
4,500167	0,5	2,635750
4,508500	0,5	2,777150
4,516833	0,5	2,906150
4,525167	0,5	3,019800
4,533500	0,5	3,096100
4,541833	0,5	3,129300
4,550167	0,5	3,107000
4,558500	0,5	3,038100
4,566833	0,5	2,935500
4,575167	0,5	2,789650
4,583500	0,5	2,657150
4,591833	0,5	2,503050
4,600167	0,5	2,368950
4,608500	0,5	2,247900
4,616833	0,5	2,150150
4,625167	0,5	2,073800
4,633500	0,5	1,991900
4,641833	0,5	1,925550
4,650167	0,5	1,883600
4,658500	0,5	1,842700
4,666833	0,5	1,811550
4,675167	0,5	1,784500
4,683500	0,5	1,763450
4,691833	0,5	1,745750
4,700167	0,5	1,730050
4,708500	0,5	1,723750
4,716833	0,5	1,701500
4,725167	0,5	1,689650
4,733500	0,5	1,685750
4,741833	0,5	1,662050
4,750167	0,5	1,652550
4,758500	0,5	1,644300
4,766833	0,5	1,640150
4,775167	0,5	1,645800
4,783500	0,5	1,629350
4,791833	0,5	1,621550
4,800167	0,5	1,603650
4,808500	0,5	1,592800
4,816833	0,5	1,570350
4,825167	0,5	1,551750
4,833500	0,5	1,526800
4,841833	0,5	1,504450
4,850167	0,5	1,485500
4,858500	0,5	1,462650
4,866833	0,5	1,438100
4,875167	0,5	1,429700
4,883500	0,5	1,416050
4,891833	0,5	1,398150
4,900167	0,5	1,390200
4,908500	0,5	1,390450
4,916833	0,5	1,393150
4,925167	0,5	1,395900
4,933500	0,5	1,394100
4,941833	0,5	1,384950
4,950167	0,5	1,383850
4,958500	0,5	1,373000
4,966833	0,5	1,369800
4,975167	0,5	1,359550
4,983500	0,5	1,352650
4,991833	0,5	1,340450
5,000167	0,5	1,333350
5,008500	0,5	1,320050
5,016833	0,5	1,314550
5,025167	0,5	1,310300
5,033500	0,5	1,298600
5,041833	0,5	1,286700
5,050167	0,5	1,281150
5,058500	0,5	1,277050
5,066833	0,5	1,286950
5,075167	0,5	1,290700
5,083500	0,5	1,281700
5,091833	0,5	1,281800
5,100167	0,5	1,280150
5,108500	0,5	1,279350
5,116833	0,5	1,275950
5,125167	0,5	1,275900
5,133500	0,5	1,276850
5,141833	0,5	1,280900
5,150167	0,5	1,290550
5,158500	0,5	1,303750
5,166833	0,5	1,322900
5,175167	0,5	1,348650
5,183500	0,5	1,367000
5,191833	0,5	1,398700
5,200167	0,5	1,428700
5,208500	0,5	1,468400
5,216833	0,5	1,500400
5,225167	0,5	1,510500
5,233500	0,5	1,508700
5,241833	0,5	1,492750
5,250167	0,5	1,470550
5,258500	0,5	1,438550
5,266833	0,5	1,402550
5,275167	0,5	1,365050
5,283500	0,5	1,334300
5,291833	0,5	1,308300
5,300167	0,5	1,288950
5,308500	0,5	1,262850
5,316833	0,5	1,264250
5,325167	0,5	1,255400
5,333500	0,5	1,252400
5,341833	0,5	1,257450
5,350167	0,5	1,272500
5,358500	0,5	1,294100
5,366833	0,5	1,309150
5,375167	0,5	1,316900
5,383500	0,5	1,325600
5,391833	0,5	1,328500
5,400167	0,5	1,319900
5,408500	0,5	1,305200
5,416833	0,5	1,280250
5,425167	0,5	1,255050
5,433500	0,5	1,225850
5,441833	0,5	1,200400
5,450167	0,5	1,169450
5,458500	0,5	1,144150
5,466833	0,5	1,135750
5,475167	0,5	1,109200
5,483500	0,5	1,095550
5,491833	0,5	1,088800
5,500167	0,5	1,081300
5,508500	0,5	1,085100
5,516833	0,5	1,073650
5,525167	0,5	1,068500
5,533500	0,5	1,059450
5,541833	0,5	1,056450
5,550167	0,5	1,049350
5,558500	0,5	1,043250
5,566833	0,5	1,032950
5,575167	0,5	1,022900
5,583500	0,5	1,021350
5,591833	0,5	1,017600
5,600167	0,5	1,007400
5,608500	0,5	0,994800
5,616833	0,5	0,996650
5,625167	0,5	0,981150
5,633500	0,5	0,973600
5,641833	0,5	0,964600
5,650167	0,5	0,962050
5,658500	0,5	0,967800
5,666833	0,5	0,962500
5,675167	0,5	0,952700
5,683500	0,5	0,948950
5,691833	0,5	0,947900
5,700167	0,5	0,945250
5,708500	0,5	0,936750
5,716833	0,5	0,932100
5,725167	0,5	0,925400
5,733500	0,5	0,921400
5,741833	0,5	0,915250
5,750167	0,5	0,905750
5,758500	0,5	0,897250
5,766833	0,5	0,898500
5,775167	0,5	0,884900
5,783500	0,5	0,881150
5,791833	0,5	0,879050
5,800167	0,5	0,879450
5,808500	0,5	0,881100
5,816833	0,5	0,877450
5,825167	0,5	0,875400
5,833500	0,5	0,869350
5,841833	0,5	0,869900
5,850167	0,5	0,869200
5,858500	0,5	0,865200
5,866833	0,5	0,864150
5,875167	0,5	0,868650
5,883500	0,5	0,869350
5,891833	0,5	0,866450
5,900167	0,5	0,864150
5,908500	0,5	0,867400
5,916833	0,5	0,867500
5,925167	0,5	0,862850
5,933500	0,5	0,864700
5,941833	0,5	0,865000
5,950167	0,5	0,872950
5,958500	0,5	0,879400
5,966833	0,5	0,875600
5,975167	0,5	0,874450
5,983500	0,5	0,878650
5,991833	0,5	0,878150
6,000167	0,5	0,881450
6,008500	0,5	0,888050
6,016833	0,5	0,906450
6,025167	0,5	0,926650
6,033500	0,5	0,947100
6,041833	0,5	0,969800
6,050167	0,5	0,995800
6,058500	0,5	1,027750
6,066833	0,5	1,045850
6,075167	0,5	1,061100
6,083500	0,5	1,076150
6,091833	0,5	1,082600
6,100167	0,5	1,089250
6,108500	0,5	1,080700
6,116833	0,5	1,063550
6,125167	0,5	1,039450
6,133500	0,5	1,013950
6,141833	0,5	0,985300
6,150167	0,5	0,950900
6,158500	0,5	0,921500
6,166833	0,5	0,892950
6,175167	0,5	0,867950
6,183500	0,5	0,845400
6,191833	0,5	0,823350
6,200167	0,5	0,812000
6,208500	0,5	0,804400
6,216833	0,5	0,783900
6,225167	0,5	0,776800
6,233500	0,5	0,768700
6,241833	0,5	0,770950
6,250167	0,5	0,770300
6,258500	0,5	0,767900
6,266833	0,5	0,762800
6,275167	0,5	0,764300
6,283500	0,5	0,763250
6,291833	0,5	0,766600
6,300167	0,5	0,772950
6,308500	0,5	0,772700
6,316833	0,5	0,782300
6,325167	0,5	0,789600
6,333500	0,5	0,793100
6,341833	0,5	0,793550
6,350167	0,5	0,801650
6,358500	0,5	0,801800
6,366833	0,5	0,797950
6,375167	0,5	0,797150
6,383500	0,5	0,797750
6,391833	0,5	0,800700
6,400167	0,5	0,803750
6,408500	0,5	0,792200
6,416833	0,5	0,794150
6,425167	0,5	0,789750
6,433500	0,5	0,791650
6,441833	0,5	0,789400
6,450167	0,5	0,793600
6,458500	0,5	0,799550
6,466833	0,5	0,811850
6,475167	0,5	0,830650
6,483500	0,5	0,842800
6,491833	0,5	0,862650
6,500167	0,5	0,893250
6,508500	0,5	0,908950
6,516833	0,5	0,919350
6,525167	0,5	0,924100
6,533500	0,5	0,919350
6,541833	0,5	0,918950
6,550167	0,5	0,898550
6,558500	0,5	0,886800
6,566833	0,5	0,867600
6,575167	0,5	0,857200
6,583500	0,5	0,842650
6,591833	0,5	0,839800
6,600167	0,5	0,830550
6,608500	0,5	0,832950
6,616833	0,5	0,832200
6,625167	0,5	0,837250
6,633500	0,5	0,835050
6,641833	0,5	0,832400
6,650167	0,5	0,840100
6,658500	0,5	0,832950
6,666833	0,5	0,837000
6,675167	0,5	0,834700
6,683500	0,5	0,840300
6,691833	0,5	0,845800
6,700167	0,5	0,845450
6,708500	0,5	0,848150
6,716833	0,5	0,847900
6,725167	0,5	0,850550
6,733500	0,5	0,852150
6,741833	0,5	0,852300
6,750167	0,5	0,854700
6,758500	0,5	0,856000
6,766833	0,5	0,863250
6,775167	0,5	0,869100
6,783500	0,5	0,877500
6,791833	0,5	0,888000
6,800167	0,5	0,904600
6,808500	0,5	0,910500
6,816833	0,5	0,927250
6,825167	0,5	0,949950
6,833500	0,5	0,983650
6,841833	0,5	1,029150
6,850167	0,5	1,081450
6,858500	0,5	1,163900
6,866833	0,5	1,282350
6,875167	0,5	1,443500
6,883500	0,5	1,654650
6,891833	0,5	1,919300
6,900167	0,5	2,221000
6,908500	0,5	2,538100
6,916833	0,5	2,828550
6,925167	0,5	3,044650
6,933500	0,5	3,152500
6,941833	0,5	3,145500
6,950167	0,5	3,008150
6,958500	0,5	2,767000
6,966833	0,5	2,472150
6,975167	0,5	2,160400
6,983500	0,5	1,866900
6,991833	0,5	1,612750
7,000167	0,5	1,406500
7,008500	0,5	1,247900
7,016833	0,5	1,135200
7,025167	0,5	1,051650
7,033500	0,5	0,996000
7,041833	0,5	0,957000
7,050167	0,5	0,928550
7,058500	0,5	0,908900
7,066833	0,5	0,897850
7,075167	0,5	0,882050
7,083500	0,5	0,875750
7,091833	0,5	0,871850
7,100167	0,5	0,861050
7,108500	0,5	0,854350
7,116833	0,5	0,853000
7,125167	0,5	0,851450
7,133500	0,5	0,854100
7,141833	0,5	0,850800
7,150167	0,5	0,852200
7,158500	0,5	0,849200
7,166833	0,5	0,848550
7,175167	0,5	0,846550
7,183500	0,5	0,844100
7,191833	0,5	0,843850
7,200167	0,5	0,843650
7,208500	0,5	0,840800
7,216833	0,5	0,842350
7,225167	0,5	0,840100
7,233500	0,5	0,844650
7,241833	0,5	0,849900
7,250167	0,5	0,848450
7,258500	0,5	0,853450
7,266833	0,5	0,855800
7,275167	0,5	0,863050
7,283500	0,5	0,871250
7,291833	0,5	0,869400
7,300167	0,5	0,860400
7,308500	0,5	0,858850
7,316833	0,5	0,848150
7,325167	0,5	0,842900
7,333500	0,5	0,837550
7,341833	0,5	0,830950
7,350167	0,5	0,831650
7,358500	0,5	0,831800
7,366833	0,5	0,835750
7,375167	0,5	0,837650
7,383500	0,5	0,851200
7,391833	0,5	0,861500
7,400167	0,5	0,881500
7,408500	0,5	0,900500
7,416833	0,5	0,937550
7,425167	0,5	0,982500
7,433500	0,5	1,021250
7,441833	0,5	1,043200
7,450167	0,5	1,058500
7,458500	0,5	1,051400
7,466833	0,5	1,029650
7,475167	0,5	0,993850
7,483500	0,5	0,961000
7,491833	0,5	0,928750
7,500167	0,5	0,903100
7,508500	0,5	0,885150
7,516833	0,5	0,879150
7,525167	0,5	0,870000
7,533500	0,5	0,875900
7,541833	0,5	0,872700
7,550167	0,5	0,874500
7,558500	0,5	0,879250
7,566833	0,5	0,887750
7,575167	0,5	0,901000
7,583500	0,5	0,909900
7,591833	0,5	0,921050
7,600167	0,5	0,928600
7,608500	0,5	0,934100
7,616833	0,5	0,935250
7,625167	0,5	0,933350
7,633500	0,5	0,928750
7,641833	0,5	0,925900
7,650167	0,5	0,919850
7,658500	0,5	0,916550
7,666833	0,5	0,912000
7,675167	0,5	0,908950
7,683500	0,5	0,904150
7,691833	0,5	0,896500
7,700167	0,5	0,888950
7,708500	0,5	0,882000
7,716833	0,5	0,879650
7,725167	0,5	0,883100
7,733500	0,5	0,881500
7,741833	0,5	0,872100
7,750167	0,5	0,871600
7,758500	0,5	0,871850
7,766833	0,5	0,873700
7,775167	0,5	0,873850
7,783500	0,5	0,878650
7,791833	0,5	0,880650
7,800167	0,5	0,886150
7,808500	0,5	0,891350
7,816833	0,5	0,892200
7,825167	0,5	0,895850
7,833500	0,5	0,895750
7,841833	0,5	0,892650
7,850167	0,5	0,893200
7,858500	0,5	0,895700
7,866833	0,5	0,902450
7,875167	0,5	0,911100
7,883500	0,5	0,921050
7,891833	0,5	0,924350
7,900167	0,5	0,932800
7,908500	0,5	0,939400
7,916833	0,5	0,945050
7,925167	0,5	0,953250
7,933500	0,5	0,962500
7,941833	0,5	0,976950
7,950167	0,5	0,994400
7,958500	0,5	1,014500
7,966833	0,5	1,037100
7,975167	0,5	1,061400
7,983500	0,5	1,083900
7,991833	0,5	1,095700
8,000167	0,5	1,098250
8,008500	0,5	1,093500
8,016833	0,5	1,082250
8,025167	0,5	1,069200
8,033500	0,5	1,056100
8,041833	0,5	1,040150
8,050167	0,5	1,031850
8,058500	0,5	1,034250
8,066833	0,5	1,036450
8,075167	0,5	1,049950
8,083500	0,5	1,068450
8,091833	0,5	1,089250
8,100167	0,5	1,118000
8,108500	0,5	1,151650
8,116833	0,5	1,190300
8,125167	0,5	1,231300
8,133500	0,5	1,266500
8,141833	0,5	1,291150
8,150167	0,5	1,306550
8,158500	0,5	1,317400
8,166833	0,5	1,329600
8,175167	0,5	1,349800
8,183500	0,5	1,385550
8,191833	0,5	1,435100
8,200167	0,5	1,506050
8,208500	0,5	1,584200
8,216833	0,5	1,684850
8,225167	0,5	1,793050
8,233500	0,5	1,915250
8,241833	0,5	2,049000
8,250167	0,5	2,194000
8,258500	0,5	2,349850
8,266833	0,5	2,512600
8,275167	0,5	2,679000
8,283500	0,5	2,847200
8,291833	0,5	2,998500
8,300167	0,5	3,130250
8,308500	0,5	3,231050
8,316833	0,5	3,277300
8,325167	0,5	3,262800
8,333500	0,5	3,180300
8,341833	0,5	3,023050
8,350167	0,5	2,816400
8,358500	0,5	2,570950
8,366833	0,5	2,322650
8,375167	0,5	2,090950
8,383500	0,5	1,885700
8,391833	0,5	1,730550
8,400167	0,5	1,615900
8,408500	0,5	1,543350
8,416833	0,5	1,496150
8,425167	0,5	1,476550
8,433500	0,5	1,474050
8,441833	0,5	1,481300
8,450167	0,5	1,490750
8,458500	0,5	1,513450
8,466833	0,5	1,540850
8,475167	0,5	1,569350
8,483500	0,5	1,608650
8,491833	0,5	1,659750
8,500167	0,5	1,724900
8,508500	0,5	1,816600
8,516833	0,5	1,953850
8,525167	0,5	2,155250
8,533500	0,5	2,442750
8,541833	0,5	2,816550
8,550167	0,5	3,254600
8,558500	0,5	3,686750
8,566833	0,5	4,027600
8,575167	0,5	4,182650
8,583500	0,5	4,116900
8,591833	0,5	3,848750
8,600167	0,5	3,446600
8,608500	0,5	2,994100
8,616833	0,5	2,578300
8,625167	0,5	2,238650
8,633500	0,5	1,987850
8,641833	0,5	1,819700
8,650167	0,5	1,704550
8,658500	0,5	1,626300
8,666833	0,5	1,563700
8,675167	0,5	1,516250
8,683500	0,5	1,473600
8,691833	0,5	1,440000
8,700167	0,5	1,408200
8,708500	0,5	1,380900
8,716833	0,5	1,359500
8,725167	0,5	1,343450
8,733500	0,5	1,326450
8,741833	0,5	1,314450
8,750167	0,5	1,310900
8,758500	0,5	1,315350
8,766833	0,5	1,322500
8,775167	0,5	1,331200
8,783500	0,5	1,343800
8,791833	0,5	1,363200
8,800167	0,5	1,384300
8,808500	0,5	1,406400
8,816833	0,5	1,428300
8,825167	0,5	1,442950
8,833500	0,5	1,449550
8,841833	0,5	1,449000
8,850167	0,5	1,451300
8,858500	0,5	1,449300
8,866833	0,5	1,457050
8,875167	0,5	1,481750
8,883500	0,5	1,524050
8,891833	0,5	1,587850
8,900167	0,5	1,679200
8,908500	0,5	1,783550
8,916833	0,5	1,898200
8,925167	0,5	2,013600
8,933500	0,5	2,110800
8,941833	0,5	2,175550
8,950167	0,5	2,195550
8,958500	0,5	2,171050
8,966833	0,5	2,096500
8,975167	0,5	1,992500
8,983500	0,5	1,866250
8,991833	0,5	1,741250
9,000167	0,5	1,627000
9,008500	0,5	1,529300
9,016833	0,5	1,456600
9,025167	0,5	1,401500
9,033500	0,5	1,361750
9,041833	0,5	1,335850
9,050167	0,5	1,320850
9,058500	0,5	1,320250
9,066833	0,5	1,325600
9,075167	0,5	1,334100
9,083500	0,5	1,346150
9,091833	0,5	1,350750
9,100167	0,5	1,349300
9,108500	0,5	1,344150
9,116833	0,5	1,340550
9,125167	0,5	1,339350
9,133500	0,5	1,345350
9,141833	0,5	1,358150
9,150167	0,5	1,375350
9,158500	0,5	1,405250
9,166833	0,5	1,425350
9,175167	0,5	1,446250
9,183500	0,5	1,458050
9,191833	0,5	1,468500
9,200167	0,5	1,462750
9,208500	0,5	1,457850
9,216833	0,5	1,440150
9,225167	0,5	1,416150
9,233500	0,5	1,389750
9,241833	0,5	1,365850
9,250167	0,5	1,341400
9,258500	0,5	1,319700
9,266833	0,5	1,295950
9,275167	0,5	1,276850
9,283500	0,5	1,259200
9,291833	0,5	1,245200
9,300167	0,5	1,234500
9,308500	0,5	1,229850
9,316833	0,5	1,226800
9,325167	0,5	1,223850
9,333500	0,5	1,220500
9,341833	0,5	1,220100
9,350167	0,5	1,218900
9,358500	0,5	1,217250
9,366833	0,5	1,211250
9,375167	0,5	1,208650
9,383500	0,5	1,209650
9,391833	0,5	1,211600
9,400167	0,5	1,214500
9,408500	0,5	1,222400
9,416833	0,5	1,232900
9,425167	0,5	1,249000
9,433500	0,5	1,270050
9,441833	0,5	1,295200
9,450167	0,5	1,313350
9,458500	0,5	1,329200
9,466833	0,5	1,338300
9,475167	0,5	1,334400
9,483500	0,5	1,324600
9,491833	0,5	1,306450
9,500167	0,5	1,285150
9,508500	0,5	1,262750
9,516833	0,5	1,235900
9,525167	0,5	1,214600
9,533500	0,5	1,197000
9,541833	0,5	1,184850
9,550167	0,5	1,174250
9,558500	0,5	1,172700
9,566833	0,5	1,170600
9,575167	0,5	1,175850
9,583500	0,5	1,185350
9,591833	0,5	1,197600
9,600167	0,5	1,208550
9,608500	0,5	1,224150
9,616833	0,5	1,227950
9,625167	0,5	1,225700
9,633500	0,5	1,219750
9,641833	0,5	1,207550
9,650167	0,5	1,195800
9,658500	0,5	1,184350
9,666833	0,5	1,178150
9,675167	0,5	1,186350
9,683500	0,5	1,205600
9,691833	0,5	1,235500
9,700167	0,5	1,266800
9,708500	0,5	1,299050
9,716833	0,5	1,324050
9,725167	0,5	1,334800
9,733500	0,5	1,339800
9,741833	0,5	1,331200
9,750167	0,5	1,321950
9,758500	0,5	1,308000
9,766833	0,5	1,293150
9,775167	0,5	1,276650
9,783500	0,5	1,269050
9,791833	0,5	1,257250
9,800167	0,5	1,260700
9,808500	0,5	1,257900
9,816833	0,5	1,253650
9,825167	0,5	1,244650
9,833500	0,5	1,229200
9,841833	0,5	1,212050
9,850167	0,5	1,196050
9,858500	0,5	1,179350
9,866833	0,5	1,166100
9,875167	0,5	1,158650
9,883500	0,5	1,151750
9,891833	0,5	1,149650
9,900167	0,5	1,150100
9,908500	0,5	1,148050
9,916833	0,5	1,144250
9,925167	0,5	1,138400
9,933500	0,5	1,134000
9,941833	0,5	1,136350
9,950167	0,5	1,136300
9,958500	0,5	1,151200
9,966833	0,5	1,163350
9,975167	0,5	1,178800
9,983500	0,5	1,187850
9,991833	0,5	1,191750
10,000167	0,5	1,187850
10,008500	0,5	1,176500
10,016833	0,5	1,161550
10,025167	0,5	1,145200
10,033500	0,5	1,127200
10,041833	0,5	1,111350
10,050167	0,5	1,099750
10,058500	0,5	1,094000
10,066833	0,5	1,088100
10,075167	0,5	1,083800
10,083500	0,5	1,082250
10,091833	0,5	1,088750
10,100167	0,5	1,095900
10,108500	0,5	1,101250
10,116833	0,5	1,113250
10,125167	0,5	1,126800
10,133500	0,5	1,150600
10,141833	0,5	1,171700
10,150167	0,5	1,202400
10,158500	0,5	1,224350
10,166833	0,5	1,246600
10,175167	0,5	1,250900
10,183500	0,5	1,240950
10,191833	0,5	1,221000
10,200167	0,5	1,192950
10,208500	0,5	1,161050
10,216833	0,5	1,130100
10,225167	0,5	1,103700
10,233500	0,5	1,081200
10,241833	0,5	1,063800
10,250167	0,5	1,046500
10,258500	0,5	1,032300
10,266833	0,5	1,018450
10,275167	0,5	1,012000
10,283500	0,5	1,006750
10,291833	0,5	1,006250
10,300167	0,5	1,005300
10,308500	0,5	1,001850
10,316833	0,5	1,004550
10,325167	0,5	1,001150
10,333500	0,5	0,994650
10,341833	0,5	0,993600
10,350167	0,5	0,990550
10,358500	0,5	0,984050
10,366833	0,5	0,979050
10,375167	0,5	0,977200
10,383500	0,5	0,981700
10,391833	0,5	0,984300
10,400167	0,5	0,990600
10,408500	0,5	0,998650
10,416833	0,5	1,002400
10,425167	0,5	0,995250
10,433500	0,5	0,991250
10,441833	0,5	0,982400
10,450167	0,5	0,972000
10,458500	0,5	0,963100
10,466833	0,5	0,958050
10,475167	0,5	0,957050
10,483500	0,5	0,959000
10,491833	0,5	0,973450
10,500167	0,5	0,990300
10,508500	0,5	1,013050
10,516833	0,5	1,048250
10,525167	0,5	1,084850
10,533500	0,5	1,139750
10,541833	0,5	1,188000
10,550167	0,5	1,231800
10,558500	0,5	1,266650
10,566833	0,5	1,290650
10,575167	0,5	1,305950
10,583500	0,5	1,304850
10,591833	0,5	1,300900
10,600167	0,5	1,284550
10,608500	0,5	1,263050
10,616833	0,5	1,229150
10,625167	0,5	1,199700
10,633500	0,5	1,165400
10,641833	0,5	1,141400
10,650167	0,5	1,105350
10,658500	0,5	1,080650
10,666833	0,5	1,049600
10,675167	0,5	1,023250
10,683500	0,5	0,998900
10,691833	0,5	0,977900
10,700167	0,5	0,956000
10,708500	0,5	0,934450
10,716833	0,5	0,915950
10,725167	0,5	0,898000
10,733500	0,5	0,886900
10,741833	0,5	0,874850
10,750167	0,5	0,862300
10,758500	0,5	0,853900
10,766833	0,5	0,847050
10,775167	0,5	0,838450
10,783500	0,5	0,828100
10,791833	0,5	0,817650
10,800167	0,5	0,806950
10,808500	0,5	0,794100
10,816833	0,5	0,789300
10,825167	0,5	0,789250
10,833500	0,5	0,803700
10,841833	0,5	0,822250
10,850167	0,5	0,847550
10,858500	0,5	0,873500
10,866833	0,5	0,896550
10,875167	0,5	0,915000
10,883500	0,5	0,926600
10,891833	0,5	0,925800
10,900167	0,5	0,915150
10,908500	0,5	0,903650
10,916833	0,5	0,881950
10,925167	0,5	0,859600
10,933500	0,5	0,845000
10,941833	0,5	0,823500
10,950167	0,5	0,803650
10,958500	0,5	0,780500
10,966833	0,5	0,759250
10,975167	0,5	0,748750
10,983500	0,5	0,741150
10,991833	0,5	0,734950
11,000167	0,5	0,727850
11,008500	0,5	0,730450
11,016833	0,5	0,726350
11,025167	0,5	0,732750
11,033500	0,5	0,741500
11,041833	0,5	0,748000
11,050167	0,5	0,756150
11,058500	0,5	0,760400
11,066833	0,5	0,759900
11,075167	0,5	0,758350
11,083500	0,5	0,753650
11,091833	0,5	0,744650
11,100167	0,5	0,732450
11,108500	0,5	0,719350
11,116833	0,5	0,709200
11,125167	0,5	0,707450
11,133500	0,5	0,715150
11,141833	0,5	0,727000
11,150167	0,5	0,741900
11,158500	0,5	0,757750
11,166833	0,5	0,768050
11,175167	0,5	0,771050
11,183500	0,5	0,765650
11,191833	0,5	0,759500
11,200167	0,5	0,740800
11,208500	0,5	0,724350
11,216833	0,5	0,705200
11,225167	0,5	0,690350
11,233500	0,5	0,681000
11,241833	0,5	0,667900
11,250167	0,5	0,657900
11,258500	0,5	0,646750
11,266833	0,5	0,641700
11,275167	0,5	0,642150
11,283500	0,5	0,640000
11,291833	0,5	0,642800
11,300167	0,5	0,640600
11,308500	0,5	0,640400
11,316833	0,5	0,645800
11,325167	0,5	0,651600
11,333500	0,5	0,651950
11,341833	0,5	0,657550
11,350167	0,5	0,655400
11,358500	0,5	0,657200
11,366833	0,5	0,645800
11,375167	0,5	0,645150
11,383500	0,5	0,643800
11,391833	0,5	0,641250
11,400167	0,5	0,644600
11,408500	0,5	0,644300
11,416833	0,5	0,658850
11,425167	0,5	0,674000
11,433500	0,5	0,683150
11,441833	0,5	0,682650
11,450167	0,5	0,681950
11,458500	0,5	0,671550
11,466833	0,5	0,661550
11,475167	0,5	0,649600
11,483500	0,5	0,635800
11,491833	0,5	0,626250
11,500167	0,5	0,615700
11,508500	0,5	0,604650
11,516833	0,5	0,590800
11,525167	0,5	0,589850
11,533500	0,5	0,581150
11,541833	0,5	0,574650
11,550167	0,5	0,568150
11,558500	0,5	0,564750
11,566833	0,5	0,572350
11,575167	0,5	0,578250
11,583500	0,5	0,589650
11,591833	0,5	0,599300
11,600167	0,5	0,609950
11,608500	0,5	0,613450
11,616833	0,5	0,620600
11,625167	0,5	0,621350
11,633500	0,5	0,616050
11,641833	0,5	0,608900
11,650167	0,5	0,596350
11,658500	0,5	0,582150
11,666833	0,5	0,560700
11,675167	0,5	0,557850
11,683500	0,5	0,547650
11,691833	0,5	0,540650
11,700167	0,5	0,536350
11,708500	0,5	0,536600
11,716833	0,5	0,544150
11,725167	0,5	0,551400
11,733500	0,5	0,557350
11,741833	0,5	0,560200
11,750167	0,5	0,561500
11,758500	0,5	0,551050
11,766833	0,5	0,543550
11,775167	0,5	0,530950
11,783500	0,5	0,517300
11,791833	0,5	0,507500
11,800167	0,5	0,497350
11,808500	0,5	0,482350
11,816833	0,5	0,479900
11,825167	0,5	0,475100
11,833500	0,5	0,467300
11,841833	0,5	0,462900
11,850167	0,5	0,461150
11,858500	0,5	0,456000
11,866833	0,5	0,461750
11,875167	0,5	0,460750
11,883500	0,5	0,464900
11,891833	0,5	0,464250
11,900167	0,5	0,462350
11,908500	0,5	0,459400
11,916833	0,5	0,461500
11,925167	0,5	0,462700
11,933500	0,5	0,460050
11,941833	0,5	0,460900
11,950167	0,5	0,458200
11,958500	0,5	0,453100
11,966833	0,5	0,454500
11,975167	0,5	0,458100
11,983500	0,5	0,456300
11,991833	0,5	0,461500
12,000167	0,5	0,460000
12,008500	0,5	0,468900
12,016833	0,5	0,468450
12,025167	0,5	0,470350
12,033500	0,5	0,463300
12,041833	0,5	0,459050
12,050167	0,5	0,452800
12,058500	0,5	0,446650
12,066833	0,5	0,439950
12,075167	0,5	0,431550
12,083500	0,5	0,429050
12,091833	0,5	0,422850
12,100167	0,5	0,409350
12,108500	0,5	0,408200
12,116833	0,5	0,410650
12,125167	0,5	0,412550
12,133500	0,5	0,409950
12,141833	0,5	0,410750
12,150167	0,5	0,413750
12,158500	0,5	0,420700
12,166833	0,5	0,427800
12,175167	0,5	0,436650
12,183500	0,5	0,439050
12,191833	0,5	0,442850
12,200167	0,5	0,444100
12,208500	0,5	0,444400
12,216833	0,5	0,447350
12,225167	0,5	0,448900
12,233500	0,5	0,448650
12,241833	0,5	0,445950
12,250167	0,5	0,434300
12,258500	0,5	0,430800
12,266833	0,5	0,424250
12,275167	0,5	0,415500
12,283500	0,5	0,407000
12,291833	0,5	0,395200
12,300167	0,5	0,390300
12,308500	0,5	0,388550
12,316833	0,5	0,384400
12,325167	0,5	0,378400
12,333500	0,5	0,379650
12,341833	0,5	0,371500
12,350167	0,5	0,330400
12,358500	0,5	0,248250
12,366833	0,5	0,129800
12,375167	0,5	0,014300
12,383500	0,5	-0,078850
12,391833	0,5	-0,150250
12,400167	0,5	-0,209350
12,408500	0,5	-0,230450
12,416833	0,5	-0,248400
12,425167	0,5	-0,264700
12,433500	0,5	-0,281700
12,441833	0,5	-0,293500
12,450167	0,5	-0,300650
12,458500	0,5	-0,308050
12,466833	0,5	-0,315800
12,475167	0,5	-0,321050
12,483500	0,5	-0,324850
12,491833	0,5	-0,324650
12,500167	0,5	-0,326300
12,508500	0,5	-0,326050
12,516833	0,5	-0,327600
12,525167	0,5	-0,328250
12,533500	0,5	-0,322000
12,541833	0,5	-0,321650
12,550167	0,5	-0,326900
12,558500	0,5	-0,325300
12,566833	0,5	-0,326500
12,575167	0,5	-0,327150
12,583500	0,5	-0,333650
12,591833	0,5	-0,343200
12,600167	0,5	-0,339150
12,608500	0,5	-0,338000
12,616833	0,5	-0,335550
12,625167	0,5	-0,337200
12,633500	0,5	-0,334800
12,641833	0,5	-0,333900
12,650167	0,5	-0,328600
12,658500	0,5	-0,324050
12,666833	0,5	-0,322700
12,675167	0,5	-0,321600
12,683500	0,5	-0,314950
12,691833	0,5	-0,314250
12,700167	0,5	-0,310900
12,708500	0,5	-0,299950
12,716833	0,5	-0,304700
12,725167	0,5	-0,304400
12,733500	0,5	-0,309800
12,741833	0,5	-0,308700
12,750167	0,5	-0,309450
12,758500	0,5	-0,304550
12,766833	0,5	-0,309400
12,775167	0,5	-0,306400
12,783500	0,5	-0,306350
12,791833	0,5	-0,305700
12,800167	0,5	-0,301050
12,808500	0,5	-0,299200
12,816833	0,5	-0,293900
12,825167	0,5	-0,287950
12,833500	0,5	-0,284250
12,841833	0,5	-0,280300
12,850167	0,5	-0,270800
12,858500	0,5	-0,256900
12,866833	0,5	-0,247600
12,875167	0,5	-0,240800
12,883500	0,5	-0,234000
12,891833	0,5	-0,229850
12,900167	0,5	-0,208500
12,908500	0,5	-0,198000
12,916833	0,5	-0,181850
12,925167	0,5	-0,166100
12,933500	0,5	-0,151600
12,941833	0,5	-0,132450
12,950167	0,5	-0,114100
12,958500	0,5	-0,095750
12,966833	0,5	-0,078350
12,975167	0,5	-0,053300
12,983500	0,5	-0,038850
12,991833	0,5	-0,026900
13,000167	0,5	-0,007850
13,008500	0,5	0,004700
13,016833	0,5	0,011400
13,025167	0,5	0,018900
13,033500	0,5	0,024000
13,041833	0,5	0,032950
13,050167	0,5	0,041700
13,058500	0,5	0,050600
13,066833	0,5	0,052550
13,075167	0,5	0,062600
13,083500	0,5	0,066400
13,091833	0,5	0,072150
13,100167	0,5	0,079850
13,108500	0,5	0,088850
13,116833	0,5	0,095200
13,125167	0,5	0,102750
13,133500	0,5	0,099100
13,141833	0,5	0,107750
13,150167	0,5	0,119050
13,158500	0,5	0,123850
13,166833	0,5	0,128200
13,175167	0,5	0,128550
13,183500	0,5	0,131900
13,191833	0,5	0,137450
13,200167	0,5	0,149700
13,208500	0,5	0,155900
13,216833	0,5	0,169650
13,225167	0,5	0,177800
13,233500	0,5	0,187700
13,241833	0,5	0,195800
13,250167	0,5	0,207250
13,258500	0,5	0,217200
13,266833	0,5	0,226250
13,275167	0,5	0,237950
13,283500	0,5	0,238500
13,291833	0,5	0,253900
13,300167	0,5	0,268600
13,308500	0,5	0,274000
13,316833	0,5	0,279100
13,325167	0,5	0,274050
13,333500	0,5	0,274950
13,341833	0,5	0,277200
13,350167	0,5	0,275600
13,358500	0,5	0,274150
13,366833	0,5	0,273350
13,375167	0,5	0,275600
13,383500	0,5	0,274550
13,391833	0,5	0,275000
13,400167	0,5	0,279050
13,408500	0,5	0,286200
13,416833	0,5	0,287550
13,425167	0,5	0,294700
13,433500	0,5	0,290850
13,441833	0,5	0,291000
13,450167	0,5	0,298650
13,458500	0,5	0,294900
13,466833	0,5	0,298300
13,475167	0,5	0,291700
13,483500	0,5	0,298900
13,491833	0,5	0,312200
13,500167	0,5	0,315900
13,508500	0,5	0,320750
13,516833	0,5	0,315400
13,525167	0,5	0,309550
13,533500	0,5	0,299000
13,541833	0,5	0,289900
13,550167	0,5	0,281550
13,558500	0,5	0,272300
13,566833	0,5	0,273800
13,575167	0,5	0,270700
13,583500	0,5	0,264400
13,591833	0,5	0,274000
13,600167	0,5	0,275600
13,608500	0,5	0,276400
13,616833	0,5	0,285550
13,625167	0,5	0,287550
13,633500	0,5	0,304000
13,641833	0,5	0,304500
13,650167	0,5	0,308600
13,658500	0,5	0,298900
13,666833	0,5	0,288200
13,675167	0,5	0,275800
13,683500	0,5	0,267150
13,691833	0,5	0,252450
13,700167	0,5	0,248300
13,708500	0,5	0,250200
13,716833	0,5	0,254900
13,725167	0,5	0,254650
13,733500	0,5	0,265550
13,741833	0,5	0,283100
13,750167	0,5	0,293250
13,758500	0,5	0,298900
13,766833	0,5	0,297300
13,775167	0,5	0,293650
13,783500	0,5	0,282200
13,791833	0,5	0,275400
13,800167	0,5	0,260800
13,808500	0,5	0,249700
13,816833	0,5	0,238500
13,825167	0,5	0,237150
13,833500	0,5	0,235400
13,841833	0,5	0,240100
13,850167	0,5	0,243750
13,858500	0,5	0,251350
13,866833	0,5	0,254900
13,875167	0,5	0,252450
13,883500	0,5	0,255650
13,891833	0,5	0,255550
13,900167	0,5	0,245350
13,908500	0,5	0,229050
13,916833	0,5	0,213350
13,925167	0,5	0,199000
13,933500	0,5	0,195650
13,941833	0,5	0,190500
13,950167	0,5	0,193350
13,958500	0,5	0,198500
13,966833	0,5	0,203850
13,975167	0,5	0,203050
13,983500	0,5	0,206750
13,991833	0,5	0,201150
14,000167	0,5	0,196500
14,008500	0,5	0,190500
14,016833	0,5	0,181200
14,025167	0,5	0,175050
14,033500	0,5	0,171900
14,041833	0,5	0,164150
14,050167	0,5	0,157800
14,058500	0,5	0,150700
14,066833	0,5	0,147050
14,075167	0,5	0,145200
14,083500	0,5	0,142350
14,091833	0,5	0,141850
14,100167	0,5	0,134500
14,108500	0,5	0,132800
14,116833	0,5	0,122250
14,125167	0,5	0,120700
14,133500	0,5	0,114250
14,141833	0,5	0,113500
14,150167	0,5	0,116200
14,158500	0,5	0,116300
14,166833	0,5	0,103350
14,175167	0,5	0,110850
14,183500	0,5	0,111200
14,191833	0,5	0,113500
14,200167	0,5	0,106000
14,208500	0,5	0,088750
14,216833	0,5	0,087950
14,225167	0,5	0,083900
14,233500	0,5	0,079450
14,241833	0,5	0,072500
14,250167	0,5	0,069500
14,258500	0,5	0,067900
14,266833	0,5	0,068750
14,275167	0,5	0,061800
14,283500	0,5	0,059800
14,291833	0,5	0,057800
14,300167	0,5	0,060100
14,308500	0,5	0,057150
14,316833	0,5	0,050100
14,325167	0,5	0,057400
14,333500	0,5	0,056650
14,341833	0,5	0,049450
14,350167	0,5	0,045300
14,358500	0,5	0,035700
14,366833	0,5	0,038300
14,375167	0,5	0,034700
14,383500	0,5	0,034000
14,391833	0,5	0,030600
14,400167	0,5	0,026250
14,408500	0,5	0,024300
14,416833	0,5	0,019550
14,425167	0,5	0,017050
14,433500	0,5	0,011500
14,441833	0,5	0,006950
14,450167	0,5	0,004550
14,458500	0,5	-0,000300
14,466833	0,5	-0,009750
14,475167	0,5	0,001400
14,483500	0,5	-0,004300
14,491833	0,5	-0,006500
14,500167	0,5	-0,015450
14,508500	0,5	-0,023800
14,516833	0,5	-0,018800
14,525167	0,5	-0,029650
14,533500	0,5	-0,031700
14,541833	0,5	-0,035250
14,550167	0,5	-0,039150
14,558500	0,5	-0,042050
14,566833	0,5	-0,042700
14,575167	0,5	-0,047700
14,583500	0,5	-0,044700
14,591833	0,5	-0,052200
14,600167	0,5	-0,046600
14,608500	0,5	-0,055550
14,616833	0,5	-0,050300
14,625167	0,5	-0,053150
14,633500	0,5	-0,058350
14,641833	0,5	-0,066500
14,650167	0,5	-0,071600
14,658500	0,5	-0,079350
14,666833	0,5	-0,075500
14,675167	0,5	-0,077650
14,683500	0,5	-0,078300
14,691833	0,5	-0,081100
14,700167	0,5	-0,083300
14,708500	0,5	-0,087100
14,716833	0,5	-0,087400
14,725167	0,5	-0,093200
14,733500	0,5	-0,096500
14,741833	0,5	-0,092550
14,750167	0,5	-0,094600
14,758500	0,5	-0,100650
14,766833	0,5	-0,102100
14,775167	0,5	-0,100300
14,783500	0,5	-0,107400
14,791833	0,5	-0,111900
14,800167	0,5	-0,126050
14,808500	0,5	-0,121000
14,816833	0,5	-0,125300
14,825167	0,5	-0,119550
14,833500	0,5	-0,123400
14,841833	0,5	-0,124200
14,850167	0,5	-0,125400
14,858500	0,5	-0,120750
14,866833	0,5	-0,126850
14,875167	0,5	-0,123500
14,883500	0,5	-0,128050
14,891833	0,5	-0,133250
14,900167	0,5	-0,135600
14,908500	0,5	-0,140900
14,916833	0,5	-0,135050
14,925167	0,5	-0,138350
14,933500	0,5	-0,144150
14,941833	0,5	-0,154050
14,950167	0,5	-0,156950
14,958500	0,5	-0,160950
14,966833	0,5	-0,161500
14,975167	0,5	-0,164600
14,983500	0,5	-0,159150
14,991833	0,5	-0,161800
15,000167	0,5	-0,160300
15,008500	0,5	-0,162450
15,016833	0,5	-0,164150
15,025167	0,5	-0,165550
15,033500	0,5	-0,167900
15,041833	0,5	-0,168700
15,050167	0,5	-0,174800
15,058500	0,5	-0,173050
15,066833	0,5	-0,168450
15,075167	0,5	-0,172850
15,083500	0,5	-0,174950
15,091833	0,5	-0,186900
15,100167	0,5	-0,189550
15,108500	0,5	-0,188100
15,116833	0,5	-0,185800
15,125167	0,5	-0,186650
15,133500	0,5	-0,188550
15,141833	0,5	-0,186150
15,150167	0,5	-0,188500
15,158500	0,5	-0,186950
15,166833	0,5	-0,190200
15,175167	0,5	-0,186150
15,183500	0,5	-0,184200
15,191833	0,5	-0,187050
15,200167	0,5	-0,202850
15,208500	0,5	-0,190050
15,216833	0,5	-0,191900
15,225167	0,5	-0,188500
15,233500	0,5	-0,197100
15,241833	0,5	-0,204750
15,250167	0,5	-0,200700
15,258500	0,5	-0,205900
15,266833	0,5	-0,208400
15,275167	0,5	-0,207600
15,283500	0,5	-0,205700
15,291833	0,5	-0,208450
15,300167	0,5	-0,207100
15,308500	0,5	-0,208400
15,316833	0,5	-0,206400
15,325167	0,5	-0,212050
15,333500	0,5	-0,202000
15,341833	0,5	-0,210700
15,350167	0,5	-0,216350
15,358500	0,5	-0,213700
15,366833	0,5	-0,212950
15,375167	0,5	-0,217950
15,383500	0,5	-0,225500
15,391833	0,5	-0,230850
15,400167	0,5	-0,223100
15,408500	0,5	-0,224400
15,416833	0,5	-0,228500
15,425167	0,5	-0,231550
15,433500	0,5	-0,230900
15,441833	0,5	-0,233650
15,450167	0,5	-0,236550
15,458500	0,5	-0,236850
15,466833	0,5	-0,243050
15,475167	0,5	-0,237650
15,483500	0,5	-0,238900
15,491833	0,5	-0,248950
15,500167	0,5	-0,253650
15,508500	0,5	-0,250150
15,516833	0,5	-0,258600
15,525167	0,5	-0,266700
15,533500	0,5	-0,281950
15,541833	0,5	-0,281900
15,550167	0,5	-0,282300
15,558500	0,5	-0,287750
15,566833	0,5	-0,293800
15,575167	0,5	-0,293700
15,583500	0,5	-0,292450
15,591833	0,5	-0,292700
15,600167	0,5	-0,290950
15,608500	0,5	-0,296150
15,616833	0,5	-0,296600
15,625167	0,5	-0,298550
15,633500	0,5	-0,294350
15,641833	0,5	-0,304100
15,650167	0,5	-0,296100
15,658500	0,5	-0,300750
15,666833	0,5	-0,301150
15,675167	0,5	-0,313800
15,683500	0,5	-0,322750
15,691833	0,5	-0,325500
15,700167	0,5	-0,317250
15,708500	0,5	-0,321150
15,716833	0,5	-0,319050
15,725167	0,5	-0,322300
15,733500	0,5	-0,323300
15,741833	0,5	-0,324650
15,750167	0,5	-0,327350
15,758500	0,5	-0,329750
15,766833	0,5	-0,333400
15,775167	0,5	-0,327850
15,783500	0,5	-0,330950
15,791833	0,5	-0,334150
15,800167	0,5	-0,328300
15,808500	0,5	-0,330350
15,816833	0,5	-0,336150
15,825167	0,5	-0,346450
15,833500	0,5	-0,351250
15,841833	0,5	-0,345400
15,850167	0,5	-0,352600
15,858500	0,5	-0,351850
15,866833	0,5	-0,355800
15,875167	0,5	-0,352750
15,883500	0,5	-0,358100
15,891833	0,5	-0,358450
15,900167	0,5	-0,363850
15,908500	0,5	-0,367750
15,916833	0,5	-0,368550
15,925167	0,5	-0,370700
15,933500	0,5	-0,380600
15,941833	0,5	-0,380450
15,950167	0,5	-0,378450
15,958500	0,5	-0,384350
15,966833	0,5	-0,384700
15,975167	0,5	-0,400500
15,983500	0,5	-0,398850
15,991833	0,5	-0,404650
16,000167	0,5	-0,398700
16,008500	0,5	-0,401750
16,016833	0,5	-0,395900
16,025167	0,5	-0,391800
16,033500	0,5	-0,388450
16,041833	0,5	-0,387500
16,050167	0,5	-0,393750
16,058500	0,5	-0,395000
16,066833	0,5	-0,393050
16,075167	0,5	-0,397600
16,083500	0,5	-0,401550
16,091833	0,5	-0,394700
16,100167	0,5	-0,393750
16,108500	0,5	-0,396900
16,116833	0,5	-0,404500
16,125167	0,5	-0,409700
16,133500	0,5	-0,411750
16,141833	0,5	-0,403300
16,150167	0,5	-0,416100
16,158500	0,5	-0,411650
16,166833	0,5	-0,409200
16,175167	0,5	-0,410550
16,183500	0,5	-0,411350
16,191833	0,5	-0,416850
16,200167	0,5	-0,416650
16,208500	0,5	-0,418850
16,216833	0,5	-0,417400
16,225167	0,5	-0,423350
16,233500	0,5	-0,427400
16,241833	0,5	-0,413450
16,250167	0,5	-0,417450
16,258500	0,5	-0,421500
16,266833	0,5	-0,429050
16,275167	0,5	-0,436150
16,283500	0,5	-0,427550
16,291833	0,5	-0,429450
16,300167	0,5	-0,429800
16,308500	0,5	-0,430350
16,316833	0,5	-0,425600
16,325167	0,5	-0,428150
16,333500	0,5	-0,425950
16,341833	0,5	-0,428250
16,350167	0,5	-0,433400
16,358500	0,5	-0,436250
16,366833	0,5	-0,429000
16,375167	0,5	-0,445900
16,383500	0,5	-0,433250
16,391833	0,5	-0,430150
16,400167	0,5	-0,429200
16,408500	0,5	-0,433900
16,416833	0,5	-0,448650
16,425167	0,5	-0,443350
16,433500	0,5	-0,442850
16,441833	0,5	-0,441450
16,450167	0,5	-0,445250
16,458500	0,5	-0,442350
16,466833	0,5	-0,444250
16,475167	0,5	-0,440250
16,483500	0,5	-0,436200
16,491833	0,5	-0,439600
16,500167	0,5	-0,440900
16,508500	0,5	-0,433350
16,516833	0,5	-0,431150
16,525167	0,5	-0,440200
16,533500	0,5	-0,430300
16,541833	0,5	-0,430050
16,550167	0,5	-0,432900
16,558500	0,5	-0,434100
16,566833	0,5	-0,443650
16,575167	0,5	-0,434000
16,583500	0,5	-0,426850
16,591833	0,5	-0,424500
16,600167	0,5	-0,421200
16,608500	0,5	-0,419000
16,616833	0,5	-0,414750
16,625167	0,5	-0,412600
16,633500	0,5	-0,417200
16,641833	0,5	-0,422400
16,650167	0,5	-0,421000
16,658500	0,5	-0,422900
16,666833	0,5	-0,421650
16,675167	0,5	-0,426000
16,683500	0,5	-0,415450
16,691833	0,5	-0,416450
16,700167	0,5	-0,416650
16,708500	0,5	-0,429250
16,716833	0,5	-0,435450
16,725167	0,5	-0,430450
16,733500	0,5	-0,428100
16,741833	0,5	-0,433950
16,750167	0,5	-0,431450
16,758500	0,5	-0,427400
16,766833	0,5	-0,421950
16,775167	0,5	-0,424600
16,783500	0,5	-0,423550
16,791833	0,5	-0,423900
16,800167	0,5	-0,422700
16,808500	0,5	-0,417300
16,816833	0,5	-0,422050
16,825167	0,5	-0,422400
16,833500	0,5	-0,414850
16,841833	0,5	-0,423850
16,850167	0,5	-0,431300
16,858500	0,5	-0,437800
16,866833	0,5	-0,444000
16,875167	0,5	-0,436200
16,883500	0,5	-0,435450
16,891833	0,5	-0,431000
16,900167	0,5	-0,429450
16,908500	0,5	-0,420800
16,916833	0,5	-0,419500
16,925167	0,5	-0,412950
16,933500	0,5	-0,413450
16,941833	0,5	-0,415850
16,950167	0,5	-0,404000
16,958500	0,5	-0,404200
16,966833	0,5	-0,409000
16,975167	0,5	-0,399000
16,983500	0,5	-0,390700
16,991833	0,5	-0,393850
17,000167	0,5	-0,393200
17,008500	0,5	-0,401550
17,016833	0,5	-0,396150
17,025167	0,5	-0,393600
17,033500	0,5	-0,386750
17,041833	0,5	-0,387050
17,050167	0,5	-0,372850
17,058500	0,5	-0,370100
17,066833	0,5	-0,359400
17,075167	0,5	-0,351050
17,083500	0,5	-0,342350
17,091833	0,5	-0,333200
17,100167	0,5	-0,324100
17,108500	0,5	-0,320300
17,116833	0,5	-0,309350
17,125167	0,5	-0,293350
17,133500	0,5	-0,286100
17,141833	0,5	-0,283650
17,150167	0,5	-0,278300
17,158500	0,5	-0,258950
17,166833	0,5	-0,237750
17,175167	0,5	-0,202000
17,183500	0,5	-0,181750
17,191833	0,5	-0,152350
17,200167	0,5	-0,141600
17,208500	0,5	-0,128300
17,216833	0,5	-0,135250
17,225167	0,5	-0,154350
17,233500	0,5	-0,188900
17,241833	0,5	-0,214900
17,250167	0,5	-0,237450
17,258500	0,5	-0,273700
17,266833	0,5	-0,284450
17,275167	0,5	-0,295850
17,283500	0,5	-0,307950
17,291833	0,5	-0,321150
17,300167	0,5	-0,337900
17,308500	0,5	-0,339600
17,316833	0,5	-0,335650
17,325167	0,5	-0,343800
17,333500	0,5	-0,348500
17,341833	0,5	-0,349750
17,350167	0,5	-0,346050
17,358500	0,5	-0,346550
17,366833	0,5	-0,341900
17,375167	0,5	-0,346100
17,383500	0,5	-0,350300
17,391833	0,5	-0,351150
17,400167	0,5	-0,346250
17,408500	0,5	-0,367900
17,416833	0,5	-0,348250
17,425167	0,5	-0,351850
17,433500	0,5	-0,361100
17,441833	0,5	-0,368100
17,450167	0,5	-0,380850
17,458500	0,5	-0,371850
17,466833	0,5	-0,381150
17,475167	0,5	-0,377950
17,483500	0,5	-0,381500
17,491833	0,5	-0,378250
17,500167	0,5	-0,386000
17,508500	0,5	-0,381050
17,516833	0,5	-0,389950
17,525167	0,5	-0,390650
17,533500	0,5	-0,394900
17,541833	0,5	-0,387500
17,550167	0,5	-0,392250
17,558500	0,5	-0,398500
17,566833	0,5	-0,392900
17,575167	0,5	-0,390400
17,583500	0,5	-0,403600
17,591833	0,5	-0,410850
17,600167	0,5	-0,421800
17,608500	0,5	-0,423850
17,616833	0,5	-0,422450
17,625167	0,5	-0,426950
17,633500	0,5	-0,431450
17,641833	0,5	-0,431950
17,650167	0,5	-0,434400
17,658500	0,5	-0,437450
17,666833	0,5	-0,434200
17,675167	0,5	-0,444000
17,683500	0,5	-0,443150
17,691833	0,5	-0,445050
17,700167	0,5	-0,455300
17,708500	0,5	-0,457500
17,716833	0,5	-0,452650
17,725167	0,5	-0,459550
17,733500	0,5	-0,468500
17,741833	0,5	-0,485950
17,750167	0,5	-0,490950
17,758500	0,5	-0,488800
17,766833	0,5	-0,492300
17,775167	0,5	-0,494000
17,783500	0,5	-0,500250
17,791833	0,5	-0,501050
17,800167	0,5	-0,502600
17,808500	0,5	-0,503050
17,816833	0,5	-0,509200
17,825167	0,5	-0,518950
17,833500	0,5	-0,526000
17,841833	0,5	-0,525250
17,850167	0,5	-0,534600
17,858500	0,5	-0,528700
17,866833	0,5	-0,533350
17,875167	0,5	-0,535100
17,883500	0,5	-0,558400
17,891833	0,5	-0,567800
17,900167	0,5	-0,573750
17,908500	0,5	-0,573550
17,916833	0,5	-0,577150
17,925167	0,5	-0,586100
17,933500	0,5	-0,589800
17,941833	0,5	-0,590650
17,950167	0,5	-0,590300
17,958500	0,5	-0,593100
17,966833	0,5	-0,595850
17,975167	0,5	-0,598350
17,983500	0,5	-0,594950
17,991833	0,5	-0,603250
18,000167	0,5	-0,603900
18,008500	0,5	-0,602850
18,016833	0,5	-0,603450
18,025167	0,5	-0,614100
18,033500	0,5	-0,622700
18,041833	0,5	-0,623500
18,050167	0,5	-0,621800
18,058500	0,5	-0,621150
18,066833	0,5	-0,618750
18,075167	0,5	-0,616200
18,083500	0,5	-0,609500
18,091833	0,5	-0,607200
18,100167	0,5	-0,603450
18,108500	0,5	-0,596950
18,116833	0,5	-0,599800
18,125167	0,5	-0,594450
18,133500	0,5	-0,590250
18,141833	0,5	-0,595800
18,150167	0,5	-0,579350
18,158500	0,5	-0,572450
18,166833	0,5	-0,572950
18,175167	0,5	-0,572100
18,183500	0,5	-0,587850
18,191833	0,5	-0,584800
18,200167	0,5	-0,583050
18,208500	0,5	-0,578700
18,216833	0,5	-0,582900
18,225167	0,5	-0,583450
18,233500	0,5	-0,587000
18,241833	0,5	-0,586550
18,250167	0,5	-0,588950
18,258500	0,5	-0,589300
18,266833	0,5	-0,594500
18,275167	0,5	-0,596400
18,283500	0,5	-0,602200
18,291833	0,5	-0,614050
18,300167	0,5	-0,606850
18,308500	0,5	-0,608350
18,316833	0,5	-0,617750
18,325167	0,5	-0,631950
18,333500	0,5	-0,640150
18,341833	0,5	-0,637750
18,350167	0,5	-0,637150
18,358500	0,5	-0,649800
18,366833	0,5	-0,646000
18,375167	0,5	-0,650300
18,383500	0,5	-0,649650
18,391833	0,5	-0,651400
18,400167	0,5	-0,651700
18,408500	0,5	-0,654500
18,416833	0,5	-0,659000
18,425167	0,5	-0,654250
18,433500	0,5	-0,664700
18,441833	0,5	-0,664500
18,450167	0,5	-0,662500
18,458500	0,5	-0,663150
18,466833	0,5	-0,673200
18,475167	0,5	-0,684200
18,483500	0,5	-0,687750
18,491833	0,5	-0,686100
18,500167	0,5	-0,691300
18,508500	0,5	-0,690100
18,516833	0,5	-0,700750
18,525167	0,5	-0,695150
18,533500	0,5	-0,698050
18,541833	0,5	-0,696500
18,550167	0,5	-0,698550
18,558500	0,5	-0,698550
18,566833	0,5	-0,696350
18,575167	0,5	-0,688600
18,583500	0,5	-0,701400
18,591833	0,5	-0,689500
18,600167	0,5	-0,690350
18,608500	0,5	-0,692400
18,616833	0,5	-0,705700
18,625167	0,5	-0,719500
18,633500	0,5	-0,713400
18,641833	0,5	-0,712650
18,650167	0,5	-0,708200
18,658500	0,5	-0,713450
18,666833	0,5	-0,708700
18,675167	0,5	-0,715950
18,683500	0,5	-0,709900
18,691833	0,5	-0,712650
18,700167	0,5	-0,711000
18,708500	0,5	-0,711550
18,716833	0,5	-0,710000
18,725167	0,5	-0,710150
18,733500	0,5	-0,715150
18,741833	0,5	-0,703500
18,750167	0,5	-0,703050
18,758500	0,5	-0,706150
18,766833	0,5	-0,720950
18,775167	0,5	-0,731050
18,783500	0,5	-0,734950
18,791833	0,5	-0,730300
18,800167	0,5	-0,727800
18,808500	0,5	-0,728050
18,816833	0,5	-0,732750
18,825167	0,5	-0,729650
18,833500	0,5	-0,732850
18,841833	0,5	-0,729800
18,850167	0,5	-0,735800
18,858500	0,5	-0,731000
18,866833	0,5	-0,732500
18,875167	0,5	-0,741050
18,883500	0,5	-0,741500
18,891833	0,5	-0,732700
18,900167	0,5	-0,742750
18,908500	0,5	-0,752050
18,916833	0,5	-0,768850
18,925167	0,5	-0,776950
18,933500	0,5	-0,773150
18,941833	0,5	-0,776050
18,950167	0,5	-0,774900
18,958500	0,5	-0,778850
18,966833	0,5	-0,782200
18,975167	0,5	-0,786300
18,983500	0,5	-0,786850
18,991833	0,5	-0,790250
19,000167	0,5	-0,789450
19,008500	0,5	-0,789000
19,016833	0,5	-0,789650
19,025167	0,5	-0,802550
19,033500	0,5	-0,798250
19,041833	0,5	-0,801050
19,050167	0,5	-0,807500
19,058500	0,5	-0,818950
19,066833	0,5	-0,834500
19,075167	0,5	-0,836750
19,083500	0,5	-0,839200
19,091833	0,5	-0,840050
19,100167	0,5	-0,844550
19,108500	0,5	-0,850450
19,116833	0,5	-0,851750
19,125167	0,5	-0,845650
19,133500	0,5	-0,847800
19,141833	0,5	-0,856100
19,150167	0,5	-0,857500
19,158500	0,5	-0,849850
19,166833	0,5	-0,864250
19,175167	0,5	-0,863450
19,183500	0,5	-0,863800
19,191833	0,5	-0,865950
19,200167	0,5	-0,874450
19,208500	0,5	-0,892800
19,216833	0,5	-0,899100
19,225167	0,5	-0,896350
19,233500	0,5	-0,901950
19,241833	0,5	-0,904950
19,250167	0,5	-0,908250
19,258500	0,5	-0,914100
19,266833	0,5	-0,915600
19,275167	0,5	-0,919250
19,283500	0,5	-0,920850
19,291833	0,5	-0,924200
19,300167	0,5	-0,921400
19,308500	0,5	-0,924000
19,316833	0,5	-0,940150
19,325167	0,5	-0,934900
19,333500	0,5	-0,931900
19,341833	0,5	-0,933050
19,350167	0,5	-0,940700
19,358500	0,5	-0,963700
19,366833	0,5	-0,961500
19,375167	0,5	-0,959750
19,383500	0,5	-0,964600
19,391833	0,5	-0,968350
19,400167	0,5	-0,968750
19,408500	0,5	-0,973750
19,416833	0,5	-0,971700
19,425167	0,5	-0,969050
19,433500	0,5	-0,973500
19,441833	0,5	-0,975450
19,450167	0,5	-0,976850
19,458500	0,5	-0,971050
19,466833	0,5	-0,988350
19,475167	0,5	-0,974050
19,483500	0,5	-0,977850
19,491833	0,5	-0,977900
19,500167	0,5	-0,996100
19,508500	0,5	-1,009800
19,516833	0,5	-1,003850
19,525167	0,5	-1,001400
19,533500	0,5	-1,006800
19,541833	0,5	-1,006000
19,550167	0,5	-1,008000
19,558500	0,5	-1,008850
19,566833	0,5	-1,011300
19,575167	0,5	-1,010450
19,583500	0,5	-1,014200
19,591833	0,5	-1,019300
19,600167	0,5	-1,011300
19,608500	0,5	-1,018700
19,616833	0,5	-1,019600
19,625167	0,5	-1,012150
19,633500	0,5	-1,019750
19,641833	0,5	-1,025500
19,650167	0,5	-1,035950
19,658500	0,5	-1,046500
19,666833	0,5	-1,041250
19,675167	0,5	-1,040350
19,683500	0,5	-1,036450
19,691833	0,5	-1,040600
19,700167	0,5	-1,044450
19,708500	0,5	-1,044200
19,716833	0,5	-1,040600
19,725167	0,5	-1,039200
19,733500	0,5	-1,042700
19,741833	0,5	-1,037300
19,750167	0,5	-1,036650
19,758500	0,5	-1,049550
19,766833	0,5	-1,041850
19,775167	0,5	-1,035550
19,783500	0,5	-1,040050
19,791833	0,5	-1,042550
19,800167	0,5	-1,066550
19,808500	0,5	-1,065150
19,816833	0,5	-1,064050
19,825167	0,5	-1,057050
19,833500	0,5	-1,063350
19,841833	0,5	-1,057550
19,850167	0,5	-1,056900
19,858500	0,5	-1,053100
19,866833	0,5	-1,054100
19,875167	0,5	-1,059800
19,883500	0,5	-1,058300
19,891833	0,5	-1,052100
19,900167	0,5	-1,061600
19,908500	0,5	-1,062900
19,916833	0,5	-1,054100
19,925167	0,5	-1,053600
19,933500	0,5	-1,058100
19,941833	0,5	-1,071050
19,950167	0,5	-1,081400
19,958500	0,5	-1,083200
19,966833	0,5	-1,075100
19,975167	0,5	-1,076200
19,983500	0,5	-1,071400
19,991833	0,5	-1,083100
20,000167	0,5	-1,079500
20,008500	0,5	-1,080050
20,016833	0,5	-1,073750
20,025167	0,5	-1,078000
20,033500	0,5	-1,076550
20,041833	0,5	-1,071250
20,050167	0,5	-1,080550
20,058500	0,5	-1,069650
20,066833	0,5	-1,065550
20,075167	0,5	-1,069250
20,083500	0,5	-1,071600
20,091833	0,5	-1,093800
20,100167	0,5	-1,091250
20,108500	0,5	-1,078200
20,116833	0,5	-1,082500
20,125167	0,5	-1,073750
20,133500	0,5	-1,077300
20,141833	0,5	-1,069250
20,150167	0,5	-1,068600
20,158500	0,5	-1,065150
20,166833	0,5	-1,066450
20,175167	0,5	-1,066500
20,183500	0,5	-1,054150
20,191833	0,5	-1,054650
20,200167	0,5	-1,070300
20,208500	0,5	-1,060600
20,216833	0,5	-1,055200
20,225167	0,5	-1,060450
20,233500	0,5	-1,069550
20,241833	0,5	-1,090200
20,250167	0,5	-1,078900
20,258500	0,5	-1,084050
20,266833	0,5	-1,082500
20,275167	0,5	-1,089050
20,283500	0,5	-1,085150
20,291833	0,5	-1,091850
20,300167	0,5	-1,088300
20,308500	0,5	-1,086100
20,316833	0,5	-1,090350
20,325167	0,5	-1,088300
20,333500	0,5	-1,080500
20,341833	0,5	-1,086700
20,350167	0,5	-1,094350
20,358500	0,5	-1,087150
20,366833	0,5	-1,087850
20,375167	0,5	-1,094850
20,383500	0,5	-1,108400
20,391833	0,5	-1,120800
20,400167	0,5	-1,114950
20,408500	0,5	-1,112100
20,416833	0,5	-1,123450
20,425167	0,5	-1,116000
20,433500	0,5	-1,121250
20,441833	0,5	-1,114950
20,450167	0,5	-1,120100
20,458500	0,5	-1,122150
20,466833	0,5	-1,122450
20,475167	0,5	-1,113450
20,483500	0,5	-1,107050
20,491833	0,5	-1,121200
20,500167	0,5	-1,117350
20,508500	0,5	-1,116100
20,516833	0,5	-1,115800
20,525167	0,5	-1,123300
20,533500	0,5	-1,143050
20,541833	0,5	-1,139800
20,550167	0,5	-1,133200
20,558500	0,5	-1,142250
20,566833	0,5	-1,133100
20,575167	0,5	-1,138850
20,583500	0,5	-1,134300
20,591833	0,5	-1,139950
20,600167	0,5	-1,133350
20,608500	0,5	-1,134850
20,616833	0,5	-1,130700
20,625167	0,5	-1,115250
20,633500	0,5	-1,107750
20,641833	0,5	-1,116550
20,650167	0,5	-1,106150
20,658500	0,5	-1,113400
20,666833	0,5	-1,113500
20,675167	0,5	-1,125200
20,683500	0,5	-1,142850
20,691833	0,5	-1,130650
20,700167	0,5	-1,128750
20,708500	0,5	-1,126500
20,716833	0,5	-1,130850
20,725167	0,5	-1,129200
20,733500	0,5	-1,126100
20,741833	0,5	-1,119750
20,750167	0,5	-1,121400
20,758500	0,5	-1,118500
20,766833	0,5	-1,106750
20,775167	0,5	-1,090650
20,783500	0,5	-1,097500
20,791833	0,5	-1,100400
20,800167	0,5	-1,095250
20,808500	0,5	-1,102800
20,816833	0,5	-1,108700
20,825167	0,5	-1,118800
20,833500	0,5	-1,122300
20,841833	0,5	-1,123650
20,850167	0,5	-1,114900
20,858500	0,5	-1,115050
20,866833	0,5	-1,108000
20,875167	0,5	-1,105850
20,883500	0,5	-1,098450
20,891833	0,5	-1,100550
20,900167	0,5	-1,095050
20,908500	0,5	-1,092400
20,916833	0,5	-1,069150
20,925167	0,5	-1,060750
20,933500	0,5	-1,063900
20,941833	0,5	-1,061700
20,950167	0,5	-1,057000
20,958500	0,5	-1,063550
20,966833	0,5	-1,071700
20,975167	0,5	-1,074400
20,983500	0,5	-1,078600
20,991833	0,5	-1,068350
21,000167	0,5	-1,061000
21,008500	0,5	-1,052000
21,016833	0,5	-1,050450
21,025167	0,5	-1,041950
21,033500	0,5	-1,040050
21,041833	0,5	-1,032650
21,050167	0,5	-1,030050
21,058500	0,5	-1,018400
21,066833	0,5	-1,003700
21,075167	0,5	-0,994800
21,083500	0,5	-1,004750
21,091833	0,5	-1,000150
21,100167	0,5	-1,000900
21,108500	0,5	-1,008350
21,116833	0,5	-1,021500
21,125167	0,5	-1,016600
21,133500	0,5	-1,012200
21,141833	0,5	-1,011100
21,150167	0,5	-1,007450
21,158500	0,5	-1,005450
21,166833	0,5	-0,994750
21,175167	0,5	-0,992350
21,183500	0,5	-0,984650
21,191833	0,5	-0,984000
21,200167	0,5	-0,978850
21,208500	0,5	-0,954450
21,216833	0,5	-0,932950
21,225167	0,5	-0,931750
21,233500	0,5	-0,934550
21,241833	0,5	-0,929800
21,250167	0,5	-0,935900
21,258500	0,5	-0,941900
21,266833	0,5	-0,948550
21,275167	0,5	-0,941050
21,283500	0,5	-0,938150
21,291833	0,5	-0,932050
21,300167	0,5	-0,923850
21,308500	0,5	-0,913700
21,316833	0,5	-0,911450
21,325167	0,5	-0,895050
21,333500	0,5	-0,889800
21,341833	0,5	-0,877300
21,350167	0,5	-0,865050
21,358500	0,5	-0,832750
21,366833	0,5	-0,810850
21,375167	0,5	-0,809200
21,383500	0,5	-0,799950
21,391833	0,5	-0,782500
21,400167	0,5	-0,770400
21,408500	0,5	-0,756900
21,416833	0,5	-0,734350
21,425167	0,5	-0,719050
21,433500	0,5	-0,715700
21,441833	0,5	-0,720000
21,450167	0,5	-0,725300
21,458500	0,5	-0,727300
21,466833	0,5	-0,717400
21,475167	0,5	-0,720400
21,483500	0,5	-0,708850
21,491833	0,5	-0,703550
21,500167	0,5	-0,678300
21,508500	0,5	-0,662600
21,516833	0,5	-0,664900
21,525167	0,5	-0,665700
21,533500	0,5	-0,667100
21,541833	0,5	-0,671600
21,550167	0,5	-0,681450
21,558500	0,5	-0,684950
21,566833	0,5	-0,678900
21,575167	0,5	-0,667600
21,583500	0,5	-0,661100
21,591833	0,5	-0,645600
21,600167	0,5	-0,631450
21,608500	0,5	-0,610700
21,616833	0,5	-0,599300
21,625167	0,5	-0,584600
21,633500	0,5	-0,578950
21,641833	0,5	-0,563450
21,650167	0,5	-0,532000
21,658500	0,5	-0,512850
21,666833	0,5	-0,512650
21,675167	0,5	-0,504400
21,683500	0,5	-0,503450
21,691833	0,5	-0,493900
21,700167	0,5	-0,495650
21,708500	0,5	-0,493000
21,716833	0,5	-0,473300
21,725167	0,5	-0,458100
21,733500	0,5	-0,436650
21,741833	0,5	-0,425400
21,750167	0,5	-0,407950
21,758500	0,5	-0,400000
21,766833	0,5	-0,382850
21,775167	0,5	-0,377100
21,783500	0,5	-0,358900
21,791833	0,5	-0,336150
21,800167	0,5	-0,313700
21,808500	0,5	-0,306750
21,816833	0,5	-0,290900
21,825167	0,5	-0,275950
21,833500	0,5	-0,263750
21,841833	0,5	-0,260900
21,850167	0,5	-0,251850
21,858500	0,5	-0,236950
21,866833	0,5	-0,215250
21,875167	0,5	-0,196950
21,883500	0,5	-0,177650
21,891833	0,5	-0,150450
21,900167	0,5	-0,135250
21,908500	0,5	-0,105900
21,916833	0,5	-0,085400
21,925167	0,5	-0,061400
21,933500	0,5	-0,035600
21,941833	0,5	0,009100
21,950167	0,5	0,033100
21,958500	0,5	0,064350
21,966833	0,5	0,095650
21,975167	0,5	0,115350
21,983500	0,5	0,140050
21,991833	0,5	0,146600
22,000167	0,5	0,166850
22,008500	0,5	0,182650
22,016833	0,5	0,206150
22,025167	0,5	0,219050
22,033500	0,5	0,236900
22,041833	0,5	0,253350
22,050167	0,5	0,274550
22,058500	0,5	0,298550
22,066833	0,5	0,317450
22,075167	0,5	0,339300
22,083500	0,5	0,372850
22,091833	0,5	0,398100
22,100167	0,5	0,415100
22,108500	0,5	0,450700
22,116833	0,5	0,486400
22,125167	0,5	0,506700
22,133500	0,5	0,535900
22,141833	0,5	0,553700
22,150167	0,5	0,591700
22,158500	0,5	0,629300
22,166833	0,5	0,660400
22,175167	0,5	0,705700
22,183500	0,5	0,742900
22,191833	0,5	0,783800
22,200167	0,5	0,815450
22,208500	0,5	0,851550
22,216833	0,5	0,881400
22,225167	0,5	0,913850
22,233500	0,5	0,942600
22,241833	0,5	0,983900
22,250167	0,5	1,028100
22,258500	0,5	1,083400
22,266833	0,5	1,126100
22,275167	0,5	1,167800
22,283500	0,5	1,196250
22,291833	0,5	1,233450
22,300167	0,5	1,278950
22,308500	0,5	1,320250
22,316833	0,5	1,363500
22,325167	0,5	1,406000
22,333500	0,5	1,451650
22,341833	0,5	1,494800
22,350167	0,5	1,542150
22,358500	0,5	1,580600
22,366833	0,5	1,636100
22,375167	0,5	1,673350
22,383500	0,5	1,730700
22,391833	0,5	1,769350
22,400167	0,5	1,852700
22,408500	0,5	1,908600
22,416833	0,5	1,967350
22,425167	0,5	2,012600
22,433500	0,5	2,052700
22,441833	0,5	2,119300
22,450167	0,5	2,177900
22,458500	0,5	2,230950
22,466833	0,5	2,280650
22,475167	0,5	2,343550
22,483500	0,5	2,397050
22,491833	0,5	2,456450
22,500167	0,5	2,512950
22,508500	0,5	2,566050
22,516833	0,5	2,615350
22,525167	0,5	2,640600
22,533500	0,5	2,706250
22,541833	0,5	2,780250
22,550167	0,5	2,854300
22,558500	0,5	2,901400
22,566833	0,5	2,955550
22,575167	0,5	3,000650
22,583500	0,5	3,034050
22,591833	0,5	3,083400
22,600167	0,5	3,130450
22,608500	0,5	3,162050
22,616833	0,5	3,198000
22,625167	0,5	3,222150
22,633500	0,5	3,252000
22,641833	0,5	3,265750
22,650167	0,5	3,276100
22,658500	0,5	3,276400
22,666833	0,5	3,253400
22,675167	0,5	3,223450
22,683500	0,5	3,221500
22,691833	0,5	3,197700
22,700167	0,5	3,163500
22,708500	0,5	3,103050
22,716833	0,5	3,036650
22,725167	0,5	2,951350
22,733500	0,5	2,874300
22,741833	0,5	2,801050
22,750167	0,5	2,713100
22,758500	0,5	2,629250
22,766833	0,5	2,537400
22,775167	0,5	2,444500
22,783500	0,5	2,344900
22,791833	0,5	2,238200
22,800167	0,5	2,129700
22,808500	0,5	2,012000
22,816833	0,5	1,855350
22,825167	0,5	1,735100
22,833500	0,5	1,614300
22,841833	0,5	1,488250
22,850167	0,5	1,344600
22,858500	0,5	1,199250
22,866833	0,5	1,062450
22,875167	0,5	0,922750
22,883500	0,5	0,777200
22,891833	0,5	0,643800
22,900167	0,5	0,503150
22,908500	0,5	0,376400
22,916833	0,5	0,247750
22,925167	0,5	0,131750
22,933500	0,5	0,008050
22,941833	0,5	-0,104500
22,950167	0,5	-0,223550
22,958500	0,5	-0,325050
22,966833	0,5	-0,440000
22,975167	0,5	-0,547800
22,983500	0,5	-0,675350
22,991833	0,5	-0,797600
23,000167	0,5	-0,894900
23,008500	0,5	-0,983150
23,016833	0,5	-1,059150
23,025167	0,5	-1,150000
23,033500	0,5	-1,222050
23,041833	0,5	-1,296550
23,050167	0,5	-1,360350
23,058500	0,5	-1,420200
23,066833	0,5	-1,468850
23,075167	0,5	-1,523450
23,083500	0,5	-1,573400
23,091833	0,5	-1,620150
23,100167	0,5	-1,663350
23,108500	0,5	-1,682900
23,116833	0,5	-1,731150
23,125167	0,5	-1,774750
23,133500	0,5	-1,845800
23,141833	0,5	-1,905050
23,150167	0,5	-1,929100
23,158500	0,5	-1,957450
23,166833	0,5	-1,973100
23,175167	0,5	-2,005550
23,183500	0,5	-2,022000
23,191833	0,5	-2,035150
23,200167	0,5	-2,037800
23,208500	0,5	-2,043850
23,216833	0,5	-2,043350
23,225167	0,5	-2,042000
23,233500	0,5	-2,044050
23,241833	0,5	-2,041900
23,250167	0,5	-2,043650
23,258500	0,5	-2,055550
23,266833	0,5	-2,032500
23,275167	0,5	-2,033550
23,283500	0,5	-2,065200
23,291833	0,5	-2,083150
23,300167	0,5	-2,087800
23,308500	0,5	-2,084100
23,316833	0,5	-2,075450
23,325167	0,5	-2,070550
23,333500	0,5	-2,069350
23,341833	0,5	-2,054900
23,350167	0,5	-2,043000
23,358500	0,5	-2,024050
23,366833	0,5	-2,009000
23,375167	0,5	-1,988050
23,383500	0,5	-1,969500
23,391833	0,5	-1,948500
23,400167	0,5	-1,933650
23,408500	0,5	-1,944450
23,416833	0,5	-1,910200
23,425167	0,5	-1,871400
23,433500	0,5	-1,875050
23,441833	0,5	-1,878150
23,450167	0,5	-1,863650
23,458500	0,5	-1,856600
23,466833	0,5	-1,841450
23,475167	0,5	-1,837300
23,483500	0,5	-1,825800
23,491833	0,5	-1,813100
23,500167	0,5	-1,793650
23,508500	0,5	-1,779050
23,516833	0,5	-1,756650
23,525167	0,5	-1,740450
23,533500	0,5	-1,724500
23,541833	0,5	-1,702800
23,550167	0,5	-1,758650
23,558500	0,5	-1,725800
23,566833	0,5	-1,683200
23,575167	0,5	-1,626550
23,583500	0,5	-1,613100
23,591833	0,5	-1,601000
23,600167	0,5	-1,587150
23,608500	0,5	-1,570250
23,616833	0,5	-1,555900
23,625167	0,5	-1,542150
23,633500	0,5	-1,525850
23,641833	0,5	-1,506600
23,650167	0,5	-1,489800
23,658500	0,5	-1,471350
23,666833	0,5	-1,455800
23,675167	0,5	-1,442900
23,683500	0,5	-1,424650
23,691833	0,5	-1,416350
23,700167	0,5	-1,513450
23,708500	0,5	-1,458800
23,716833	0,5	-1,415850
23,725167	0,5	-1,361350
23,733500	0,5	-1,343150
23,741833	0,5	-1,328250
23,750167	0,5	-1,316150
23,758500	0,5	-1,302700
23,766833	0,5	-1,290450
23,775167	0,5	-1,265000
23,783500	0,5	-1,246350
23,791833	0,5	-1,221300
23,800167	0,5	-1,203550
23,808500	0,5	-1,182150
23,816833	0,5	-1,165450
23,825167	0,5	-1,143350
23,833500	0,5	-1,126600
23,841833	0,5	-1,173250
23,850167	0,5	-1,214500
23,858500	0,5	-1,170150
23,866833	0,5	-1,114200
23,875167	0,5	-1,071700
23,883500	0,5	-1,057150
23,891833	0,5	-1,041450
23,900167	0,5	-1,037050
23,908500	0,5	-1,030050
23,916833	0,5	-1,012050
23,925167	0,5	-0,998150
23,933500	0,5	-0,976750
23,941833	0,5	-0,958950
23,950167	0,5	-0,939000
23,958500	0,5	-0,919550
23,966833	0,5	-0,897150
23,975167	0,5	-0,879000
23,983500	0,5	-0,863400
23,991833	0,5	-0,956000
24,000167	0,5	-0,931800
24,008500	0,5	-0,904750
24,016833	0,5	-0,839800
24,025167	0,5	-0,800950
24,033500	0,5	-0,779150
24,041833	0,5	-0,768100
24,050167	0,5	-0,765300
24,058500	0,5	-0,746050
24,066833	0,5	-0,729450
24,075167	0,5	-0,713000
24,083500	0,5	-0,698750
24,091833	0,5	-0,678350
24,100167	0,5	-0,665550
24,108500	0,5	-0,652150
24,116833	0,5	-0,641950
24,125167	0,5	-0,625250
24,133500	0,5	-0,634350
24,141833	0,5	-0,702650
24,150167	0,5	-0,677250
24,158500	0,5	-0,636550
24,166833	0,5	-0,589350
24,175167	0,5	-0,564300
24,183500	0,5	-0,553050
24,191833	0,5	-0,537800
24,200167	0,5	-0,543250
24,208500	0,5	-0,520050
24,216833	0,5	-0,503550
24,225167	0,5	-0,484450
24,233500	0,5	-0,470750
24,241833	0,5	-0,453850
24,250167	0,5	-0,436750
24,258500	0,5	-0,422150
24,266833	0,5	-0,401800
24,275167	0,5	-0,397100
24,283500	0,5	-0,438600
24,291833	0,5	-0,455100
24,300167	0,5	-0,437850
24,308500	0,5	-0,406050
24,316833	0,5	-0,368750
24,325167	0,5	-0,354400
24,333500	0,5	-0,345950
24,341833	0,5	-0,350700
24,350167	0,5	-0,339900
24,358500	0,5	-0,329350
24,366833	0,5	-0,313950
24,375167	0,5	-0,304100
24,383500	0,5	-0,286850
24,391833	0,5	-0,276300
24,400167	0,5	-0,267200
24,408500	0,5	-0,249950
24,416833	0,5	-0,240500
24,425167	0,5	-0,229700
24,433500	0,5	-0,290400
24,441833	0,5	-0,260900
24,450167	0,5	-0,253550
24,458500	0,5	-0,214550
24,466833	0,5	-0,198550
24,475167	0,5	-0,186050
24,483500	0,5	-0,182550
24,491833	0,5	-0,189050
24,500167	0,5	-0,187300
24,508500	0,5	-0,169900
24,516833	0,5	-0,162500
24,525167	0,5	-0,152250
24,533500	0,5	-0,150150
24,541833	0,5	-0,137350
24,550167	0,5	-0,129700
24,558500	0,5	-0,122550
24,566833	0,5	-0,113350
24,575167	0,5	-0,114300
24,583500	0,5	-0,152700
24,591833	0,5	-0,135000
24,600167	0,5	-0,119550
24,608500	0,5	-0,089650
24,616833	0,5	-0,077900
24,625167	0,5	-0,066750
24,633500	0,5	-0,066500
24,641833	0,5	-0,071600
24,650167	0,5	-0,061600
24,658500	0,5	-0,054850
24,666833	0,5	-0,043200
24,675167	0,5	-0,038350
24,683500	0,5	-0,027500
24,691833	0,5	-0,029300
24,700167	0,5	-0,020950
24,708500	0,5	-0,016250
24,716833	0,5	-0,010900
24,725167	0,5	-0,029850
24,733500	0,5	-0,035100
24,741833	0,5	-0,026400
24,750167	0,5	-0,013200
24,758500	0,5	0,003300
24,766833	0,5	0,014400
24,775167	0,5	0,016450
24,783500	0,5	0,016650
24,791833	0,5	0,008600
24,800167	0,5	0,014750
24,808500	0,5	0,027350
24,816833	0,5	0,031850
24,825167	0,5	0,040250
24,833500	0,5	0,046600
24,841833	0,5	0,048750
24,850167	0,5	0,054300
24,858500	0,5	0,060600
24,866833	0,5	0,062600
24,875167	0,5	0,046800
24,883500	0,5	0,048650
24,891833	0,5	0,055250
24,900167	0,5	0,063800
24,908500	0,5	0,078000
24,916833	0,5	0,079450
24,925167	0,5	0,079200
24,933500	0,5	0,074750
24,941833	0,5	0,076700
24,950167	0,5	0,084250
24,958500	0,5	0,084950
24,966833	0,5	0,091000
24,975167	0,5	0,093500
24,983500	0,5	0,094850
24,991833	0,5	0,099600
25,000167	0,5	0,109250
25,008500	0,5	0,109750
25,016833	0,5	0,111800
25,025167	0,5	0,103850
25,033500	0,5	0,112000
25,041833	0,5	0,113550
25,050167	0,5	0,124550
25,058500	0,5	0,130300
25,066833	0,5	0,130650
25,075167	0,5	0,128800
25,083500	0,5	0,125450
25,091833	0,5	0,128100
25,100167	0,5	0,128450
25,108500	0,5	0,129000
25,116833	0,5	0,128550
25,125167	0,5	0,133000
25,133500	0,5	0,134400
25,141833	0,5	0,137550
25,150167	0,5	0,142200
25,158500	0,5	0,139400
25,166833	0,5	0,140300
25,175167	0,5	0,140350
25,183500	0,5	0,142750
25,191833	0,5	0,149200
25,200167	0,5	0,151900
25,208500	0,5	0,154100
25,216833	0,5	0,157400
25,225167	0,5	0,156400
25,233500	0,5	0,154500
25,241833	0,5	0,158300
25,250167	0,5	0,157800
25,258500	0,5	0,159950
25,266833	0,5	0,156250
25,275167	0,5	0,157800
25,283500	0,5	0,156550
25,291833	0,5	0,159100
25,300167	0,5	0,159900
25,308500	0,5	0,162150
25,316833	0,5	0,156350
25,325167	0,5	0,163050
25,333500	0,5	0,162450
25,341833	0,5	0,165200
25,350167	0,5	0,165150
25,358500	0,5	0,168450
25,366833	0,5	0,168700
25,375167	0,5	0,166050
25,383500	0,5	0,169000
25,391833	0,5	0,168800
25,400167	0,5	0,167700
25,408500	0,5	0,170700
25,416833	0,5	0,172150
25,425167	0,5	0,171300
25,433500	0,5	0,171500
25,441833	0,5	0,172700
25,450167	0,5	0,173750
25,458500	0,5	0,171600
25,466833	0,5	0,173850
25,475167	0,5	0,171650
25,483500	0,5	0,172800
25,491833	0,5	0,167600
25,500167	0,5	0,171100
25,508500	0,5	0,172050
25,516833	0,5	0,172950
25,525167	0,5	0,176250
25,533500	0,5	0,176000
25,541833	0,5	0,174450
25,550167	0,5	0,175800
25,558500	0,5	0,175100
25,566833	0,5	0,178850
25,575167	0,5	0,176200
25,583500	0,5	0,177350
25,591833	0,5	0,177250
25,600167	0,5	0,178650
25,608500	0,5	0,180100
25,616833	0,5	0,181300
25,625167	0,5	0,181700
25,633500	0,5	0,182300
25,641833	0,5	0,174800
25,650167	0,5	0,175800
25,658500	0,5	0,176100
25,666833	0,5	0,176150
25,675167	0,5	0,181850
25,683500	0,5	0,179450
25,691833	0,5	0,181250
25,700167	0,5	0,177550
25,708500	0,5	0,178500
25,716833	0,5	0,176800
25,725167	0,5	0,180100
25,733500	0,5	0,179600
25,741833	0,5	0,180100
25,750167	0,5	0,181350
25,758500	0,5	0,184350
25,766833	0,5	0,186600
25,775167	0,5	0,188750
25,783500	0,5	0,183200
25,791833	0,5	0,181700
25,800167	0,5	0,182450
25,808500	0,5	0,180650
25,816833	0,5	0,183600
25,825167	0,5	0,187350
25,833500	0,5	0,188350
25,841833	0,5	0,184850
25,850167	0,5	0,186100
25,858500	0,5	0,185300
25,866833	0,5	0,185950
25,875167	0,5	0,186750
25,883500	0,5	0,184100
25,891833	0,5	0,187550
25,900167	0,5	0,184250
25,908500	0,5	0,186450
25,916833	0,5	0,190600
25,925167	0,5	0,193800
25,933500	0,5	0,188850
25,941833	0,5	0,188450
25,950167	0,5	0,190250
25,958500	0,5	0,192350
25,966833	0,5	0,200800
25,975167	0,5	0,201450
25,983500	0,5	0,200550
25,991833	0,5	0,200100
26,000167	0,5	0,199750
