File Path	chrom://chromeleon01/ikbm_chromeleon/2022/ICS-5000/ED1/Esteban/20220612_Cell_7_4_eg.seq/540.smp/ED_1.channel/ED_1.chm
Channel	ED_1

Injection Information:
Data Vault	ikbm_chromeleon
Injection	7_24h-NT_3
Injection Number	40
Position	RE1
Comment	
Processing Method	Stop sequence after Cell Death
Instrument Method	ICS5000_PA200_FullNative_Ox_26min_ED1
Type	Unknown
Status	Finished
Injection Date	13.06.2022
Injection Time	10:37:04
Injection Volume (µl)	5,0
Dilution Factor	1,0000
Weight	1,0000

Chromatogram Data Information:
Time Min. (min)	0,000333
Time Max. (min)	26,000333
Data Points	3121
Detector	EDet1
Generating Data System	Chromeleon 7.2.9.11323
Exporting Data System	Chromeleon 7.2.9.0
Operator	Instrument Controller
Signal Quantity	
Signal Unit	nC
Signal Min.	-1,119900
Signal Max.	626,843559
Channel	ED_1
Driver Name	DC-5000
Channel Type	Evaluation
Min. Step (s)	0,5
Max. Step (s)	0,5
Average Step (s)	0,5

Signal Parameter Information:
Signal Info	

Chromatogram Data:
Time (min)	Step (s)	Value (nC)
0,000333	n.a.	-0,040050
0,008667	0,5	-0,052900
0,017000	0,5	-0,049300
0,025333	0,5	-0,040650
0,033667	0,5	-0,038050
0,042000	0,5	-0,026550
0,050333	0,5	-0,031000
0,058667	0,5	-0,019700
0,067000	0,5	-0,027900
0,075333	0,5	-0,009100
0,083667	0,5	-0,013050
0,092000	0,5	-0,023000
0,100333	0,5	-0,033950
0,108667	0,5	-0,022250
0,117000	0,5	-0,012650
0,125333	0,5	0,001650
0,133667	0,5	-0,005000
0,142000	0,5	-0,011250
0,150333	0,5	-0,006100
0,158667	0,5	-0,012900
0,167000	0,5	-0,009600
0,175333	0,5	-0,009500
0,183667	0,5	-0,013750
0,192000	0,5	-0,011200
0,200333	0,5	-0,006950
0,208667	0,5	-0,008450
0,217000	0,5	-0,014100
0,225333	0,5	-0,006200
0,233667	0,5	-0,006500
0,242000	0,5	-0,024250
0,250333	0,5	-0,023200
0,258667	0,5	-0,025150
0,267000	0,5	-0,007200
0,275333	0,5	-0,004150
0,283667	0,5	-0,005600
0,292000	0,5	0,012350
0,300333	0,5	0,036050
0,308667	0,5	0,029350
0,317000	0,5	0,003150
0,325333	0,5	-0,016800
0,333667	0,5	-0,027200
0,342000	0,5	-0,026150
0,350333	0,5	-0,025000
0,358667	0,5	-0,015550
0,367000	0,5	-0,033250
0,375333	0,5	-0,009450
0,383667	0,5	-0,025900
0,392000	0,5	-0,026750
0,400333	0,5	-0,032700
0,408667	0,5	-0,019100
0,417000	0,5	-0,005400
0,425333	0,5	-0,005850
0,433667	0,5	-0,013600
0,442000	0,5	-0,008600
0,450333	0,5	-0,014300
0,458667	0,5	-0,014500
0,467000	0,5	-0,015600
0,475333	0,5	-0,014900
0,483667	0,5	-0,013200
0,492000	0,5	-0,016000
0,500333	0,5	-0,013950
0,508667	0,5	-0,026000
0,517000	0,5	-0,026600
0,525333	0,5	-0,007500
0,533667	0,5	-0,025650
0,542000	0,5	-0,027150
0,550333	0,5	-0,021600
0,558667	0,5	-0,015500
0,567000	0,5	0,004850
0,575333	0,5	0,008200
0,583667	0,5	0,011150
0,592000	0,5	0,004350
0,600333	0,5	0,008750
0,608667	0,5	-0,000600
0,617000	0,5	0,003750
0,625333	0,5	-0,005900
0,633667	0,5	-0,005950
0,642000	0,5	-0,005400
0,650333	0,5	-0,006850
0,658667	0,5	-0,010750
0,667000	0,5	0,004900
0,675333	0,5	0,008800
0,683667	0,5	-0,011900
0,692000	0,5	-0,010550
0,700333	0,5	-0,008250
0,708667	0,5	0,007900
0,717000	0,5	0,021700
0,725333	0,5	0,024650
0,733667	0,5	0,016450
0,742000	0,5	0,017850
0,750333	0,5	0,014650
0,758667	0,5	0,016850
0,767000	0,5	0,013800
0,775333	0,5	0,014650
0,783667	0,5	0,010200
0,792000	0,5	0,015150
0,800333	0,5	0,013800
0,808667	0,5	0,017800
0,817000	0,5	0,026950
0,825333	0,5	0,017600
0,833667	0,5	0,003800
0,842000	0,5	0,010100
0,850333	0,5	0,012800
0,858667	0,5	0,034450
0,867000	0,5	0,043700
0,875333	0,5	0,036550
0,883667	0,5	0,037650
0,892000	0,5	0,037300
0,900333	0,5	0,038450
0,908667	0,5	0,036400
0,917000	0,5	0,036100
0,925333	0,5	0,032850
0,933667	0,5	0,036850
0,942000	0,5	0,031750
0,950333	0,5	0,028400
0,958667	0,5	0,034600
0,967000	0,5	0,053400
0,975333	0,5	0,033350
0,983667	0,5	0,026450
0,992000	0,5	0,030650
1,000333	0,5	0,040850
1,008667	0,5	0,056650
1,017000	0,5	0,056200
1,025333	0,5	0,052800
1,033667	0,5	0,055150
1,042000	0,5	0,057350
1,050333	0,5	0,061600
1,058667	0,5	0,058450
1,067000	0,5	0,053550
1,075333	0,5	0,054900
1,083667	0,5	0,052000
1,092000	0,5	0,056050
1,100333	0,5	0,042150
1,108667	0,5	0,051500
1,117000	0,5	0,060500
1,125333	0,5	0,051650
1,133667	0,5	0,044800
1,142000	0,5	0,054100
1,150333	0,5	0,066800
1,158667	0,5	0,080600
1,167000	0,5	0,069100
1,175333	0,5	0,070150
1,183667	0,5	0,067450
1,192000	0,5	0,067550
1,200333	0,5	0,066200
1,208667	0,5	0,068400
1,217000	0,5	0,064750
1,225333	0,5	0,059050
1,233667	0,5	0,065350
1,242000	0,5	0,064000
1,250333	0,5	0,056400
1,258667	0,5	0,065950
1,267000	0,5	0,060250
1,275333	0,5	0,049400
1,283667	0,5	0,045600
1,292000	0,5	0,047100
1,300333	0,5	0,063700
1,308667	0,5	0,063500
1,317000	0,5	0,060300
1,325333	0,5	0,054650
1,333667	0,5	0,058650
1,342000	0,5	0,055750
1,350333	0,5	0,051350
1,358667	0,5	0,047750
1,367000	0,5	0,045950
1,375333	0,5	0,039950
1,383667	0,5	0,036300
1,392000	0,5	0,045850
1,400333	0,5	0,032900
1,408667	0,5	0,043200
1,417000	0,5	0,021450
1,425333	0,5	0,018150
1,433667	0,5	0,011550
1,442000	0,5	0,018450
1,450333	0,5	0,031450
1,458667	0,5	0,031250
1,467000	0,5	0,017350
1,475333	0,5	0,018750
1,483667	0,5	0,011750
1,492000	0,5	0,011450
1,500333	0,5	0,005400
1,508667	0,5	-0,001550
1,517000	0,5	-0,008250
1,525333	0,5	-0,009100
1,533667	0,5	-0,011450
1,542000	0,5	-0,017100
1,550333	0,5	-0,017450
1,558667	0,5	0,011650
1,567000	0,5	0,024450
1,575333	0,5	0,022600
1,583667	0,5	0,316400
1,592000	0,5	3,333800
1,600333	0,5	16,666100
1,608667	0,5	61,207151
1,617000	0,5	176,155103
1,625333	0,5	367,632305
1,633667	0,5	551,238958
1,642000	0,5	626,843559
1,650333	0,5	574,858759
1,658667	0,5	452,341107
1,667000	0,5	326,817055
1,675333	0,5	230,210503
1,683667	0,5	165,067952
1,692000	0,5	124,106652
1,700333	0,5	100,146201
1,708667	0,5	86,674851
1,717000	0,5	77,588051
1,725333	0,5	69,414051
1,733667	0,5	61,619201
1,742000	0,5	55,025651
1,750333	0,5	50,880651
1,758667	0,5	50,065801
1,767000	0,5	51,866101
1,775333	0,5	54,272751
1,783667	0,5	55,504251
1,792000	0,5	54,809651
1,800333	0,5	52,374801
1,808667	0,5	48,983501
1,817000	0,5	45,424251
1,825333	0,5	42,195151
1,833667	0,5	39,481001
1,842000	0,5	37,456701
1,850333	0,5	36,145801
1,858667	0,5	35,363651
1,867000	0,5	34,712151
1,875333	0,5	33,742601
1,883667	0,5	32,306700
1,892000	0,5	30,772500
1,900333	0,5	29,522900
1,908667	0,5	28,901000
1,917000	0,5	29,227600
1,925333	0,5	30,919100
1,933667	0,5	34,321851
1,942000	0,5	39,468751
1,950333	0,5	45,020901
1,958667	0,5	48,136651
1,967000	0,5	46,936301
1,975333	0,5	42,609551
1,983667	0,5	38,328901
1,992000	0,5	36,198401
2,000333	0,5	35,508451
2,008667	0,5	34,146401
2,017000	0,5	31,862650
2,025333	0,5	29,658900
2,033667	0,5	27,711250
2,042000	0,5	25,686800
2,050333	0,5	23,722400
2,058667	0,5	22,063950
2,067000	0,5	20,745650
2,075333	0,5	19,740100
2,083667	0,5	19,058800
2,092000	0,5	18,714200
2,100333	0,5	18,604100
2,108667	0,5	18,335500
2,117000	0,5	17,699550
2,125333	0,5	16,934400
2,133667	0,5	16,270800
2,142000	0,5	15,818800
2,150333	0,5	15,505350
2,158667	0,5	15,286300
2,167000	0,5	15,120150
2,175333	0,5	14,939750
2,183667	0,5	14,712550
2,192000	0,5	14,509750
2,200333	0,5	14,333500
2,208667	0,5	14,241450
2,217000	0,5	14,256750
2,225333	0,5	14,577700
2,233667	0,5	15,645900
2,242000	0,5	16,708750
2,250333	0,5	16,244050
2,258667	0,5	15,033100
2,267000	0,5	14,294750
2,275333	0,5	13,990600
2,283667	0,5	13,882550
2,292000	0,5	13,900600
2,300333	0,5	13,990050
2,308667	0,5	14,187950
2,317000	0,5	14,548750
2,325333	0,5	15,180350
2,333667	0,5	16,378650
2,342000	0,5	18,525850
2,350333	0,5	21,835750
2,358667	0,5	25,727750
2,367000	0,5	29,043850
2,375333	0,5	30,746500
2,383667	0,5	30,666150
2,392000	0,5	29,375700
2,400333	0,5	27,837900
2,408667	0,5	26,858050
2,417000	0,5	26,852550
2,425333	0,5	27,933700
2,433667	0,5	30,482650
2,442000	0,5	35,872901
2,450333	0,5	45,857751
2,458667	0,5	59,898801
2,467000	0,5	72,823901
2,475333	0,5	78,196401
2,483667	0,5	74,062951
2,492000	0,5	63,693251
2,500333	0,5	52,001451
2,508667	0,5	42,465051
2,517000	0,5	36,538001
2,525333	0,5	34,389451
2,533667	0,5	35,243851
2,542000	0,5	37,584301
2,550333	0,5	39,661601
2,558667	0,5	40,238951
2,567000	0,5	38,780951
2,575333	0,5	35,494651
2,583667	0,5	31,179250
2,592000	0,5	26,840950
2,600333	0,5	23,159750
2,608667	0,5	20,447700
2,617000	0,5	18,580100
2,625333	0,5	17,340550
2,633667	0,5	16,501950
2,642000	0,5	15,900750
2,650333	0,5	15,486250
2,658667	0,5	15,242800
2,667000	0,5	15,199500
2,675333	0,5	15,406100
2,683667	0,5	15,795550
2,692000	0,5	16,174300
2,700333	0,5	16,294150
2,708667	0,5	16,005750
2,717000	0,5	15,379950
2,725333	0,5	14,613750
2,733667	0,5	13,937300
2,742000	0,5	13,421300
2,750333	0,5	13,104900
2,758667	0,5	13,007450
2,767000	0,5	13,145300
2,775333	0,5	13,645850
2,783667	0,5	14,695500
2,792000	0,5	16,425600
2,800333	0,5	18,596300
2,808667	0,5	20,454850
2,817000	0,5	21,190600
2,825333	0,5	20,473850
2,833667	0,5	18,667700
2,842000	0,5	16,476550
2,850333	0,5	14,500150
2,858667	0,5	13,009000
2,867000	0,5	11,980450
2,875333	0,5	11,302150
2,883667	0,5	10,860400
2,892000	0,5	10,548600
2,900333	0,5	10,322850
2,908667	0,5	10,162650
2,917000	0,5	10,013100
2,925333	0,5	9,890500
2,933667	0,5	9,747250
2,942000	0,5	9,598600
2,950333	0,5	9,423350
2,958667	0,5	9,248350
2,967000	0,5	9,057800
2,975333	0,5	8,874500
2,983667	0,5	8,698100
2,992000	0,5	8,544100
3,000333	0,5	8,405150
3,008667	0,5	8,273150
3,017000	0,5	8,143550
3,025333	0,5	8,020800
3,033667	0,5	7,906900
3,042000	0,5	7,782300
3,050333	0,5	7,685050
3,058667	0,5	7,623750
3,067000	0,5	7,586100
3,075333	0,5	7,549700
3,083667	0,5	7,484600
3,092000	0,5	7,382850
3,100333	0,5	7,262200
3,108667	0,5	7,115900
3,117000	0,5	6,982150
3,125333	0,5	6,853100
3,133667	0,5	6,744900
3,142000	0,5	6,641000
3,150333	0,5	6,557050
3,158667	0,5	6,477800
3,167000	0,5	6,394300
3,175333	0,5	6,331300
3,183667	0,5	6,278550
3,192000	0,5	6,207250
3,200333	0,5	6,143200
3,208667	0,5	6,078000
3,217000	0,5	6,006150
3,225333	0,5	5,927000
3,233667	0,5	5,819650
3,242000	0,5	5,726600
3,250333	0,5	5,641050
3,258667	0,5	5,564200
3,267000	0,5	5,487100
3,275333	0,5	5,421600
3,283667	0,5	5,351500
3,292000	0,5	5,294800
3,300333	0,5	5,239700
3,308667	0,5	5,181900
3,317000	0,5	5,119950
3,325333	0,5	5,081900
3,333667	0,5	5,032150
3,342000	0,5	4,987000
3,350333	0,5	4,949200
3,358667	0,5	4,920100
3,367000	0,5	4,906150
3,375333	0,5	4,887650
3,383667	0,5	4,866700
3,392000	0,5	4,846350
3,400333	0,5	4,834700
3,408667	0,5	4,815700
3,417000	0,5	4,798600
3,425333	0,5	4,776700
3,433667	0,5	4,760850
3,442000	0,5	4,741600
3,450333	0,5	4,728350
3,458667	0,5	4,709650
3,467000	0,5	4,695650
3,475333	0,5	4,701000
3,483667	0,5	4,707850
3,492000	0,5	4,746550
3,500333	0,5	4,829800
3,508667	0,5	4,972100
3,517000	0,5	5,194000
3,525333	0,5	5,452850
3,533667	0,5	5,750650
3,542000	0,5	6,062000
3,550333	0,5	6,353650
3,558667	0,5	6,616300
3,567000	0,5	6,877550
3,575333	0,5	7,191250
3,583667	0,5	7,604000
3,592000	0,5	8,156200
3,600333	0,5	8,793850
3,608667	0,5	9,413100
3,617000	0,5	9,850150
3,625333	0,5	9,981200
3,633667	0,5	9,712050
3,642000	0,5	9,114400
3,650333	0,5	8,274050
3,658667	0,5	7,368500
3,667000	0,5	6,514800
3,675333	0,5	5,787300
3,683667	0,5	5,227450
3,692000	0,5	4,832050
3,700333	0,5	4,565700
3,708667	0,5	4,394500
3,717000	0,5	4,283950
3,725333	0,5	4,208300
3,733667	0,5	4,161800
3,742000	0,5	4,113350
3,750333	0,5	4,067750
3,758667	0,5	4,016500
3,767000	0,5	3,984550
3,775333	0,5	3,936200
3,783667	0,5	3,891200
3,792000	0,5	3,857950
3,800333	0,5	3,836300
3,808667	0,5	3,827950
3,817000	0,5	3,820200
3,825333	0,5	3,810050
3,833667	0,5	3,803100
3,842000	0,5	3,782150
3,850333	0,5	3,762450
3,858667	0,5	3,735650
3,867000	0,5	3,716600
3,875333	0,5	3,692550
3,883667	0,5	3,681050
3,892000	0,5	3,673150
3,900333	0,5	3,666750
3,908667	0,5	3,674900
3,917000	0,5	3,710550
3,925333	0,5	3,735350
3,933667	0,5	3,765100
3,942000	0,5	3,810800
3,950333	0,5	3,843600
3,958667	0,5	3,884900
3,967000	0,5	3,884400
3,975333	0,5	3,873350
3,983667	0,5	3,843000
3,992000	0,5	3,808600
4,000333	0,5	3,767700
4,008667	0,5	3,727700
4,017000	0,5	3,688100
4,025333	0,5	3,660900
4,033667	0,5	3,631100
4,042000	0,5	3,605100
4,050333	0,5	3,565650
4,058667	0,5	3,535650
4,067000	0,5	3,494900
4,075333	0,5	3,431100
4,083667	0,5	3,355850
4,092000	0,5	3,288750
4,100333	0,5	3,231150
4,108667	0,5	3,188550
4,117000	0,5	3,143600
4,125333	0,5	3,110700
4,133667	0,5	3,085000
4,142000	0,5	3,057850
4,150333	0,5	3,038500
4,158667	0,5	3,013900
4,167000	0,5	2,997700
4,175333	0,5	2,981400
4,183667	0,5	2,972400
4,192000	0,5	2,965550
4,200333	0,5	2,953450
4,208667	0,5	2,952650
4,217000	0,5	2,952000
4,225333	0,5	2,940050
4,233667	0,5	2,932800
4,242000	0,5	2,936450
4,250333	0,5	2,948850
4,258667	0,5	2,966600
4,267000	0,5	2,971950
4,275333	0,5	2,988350
4,283667	0,5	3,010150
4,292000	0,5	3,027800
4,300333	0,5	3,038350
4,308667	0,5	3,051700
4,317000	0,5	3,051200
4,325333	0,5	3,048850
4,333667	0,5	3,027100
4,342000	0,5	3,010650
4,350333	0,5	2,975100
4,358667	0,5	2,958500
4,367000	0,5	2,930100
4,375333	0,5	2,903550
4,383667	0,5	2,878200
4,392000	0,5	2,865700
4,400333	0,5	2,862550
4,408667	0,5	2,853700
4,417000	0,5	2,842100
4,425333	0,5	2,833850
4,433667	0,5	2,826700
4,442000	0,5	2,820000
4,450333	0,5	2,811650
4,458667	0,5	2,809900
4,467000	0,5	2,802550
4,475333	0,5	2,794500
4,483667	0,5	2,794850
4,492000	0,5	2,785000
4,500333	0,5	2,779350
4,508667	0,5	2,790550
4,517000	0,5	2,790150
4,525333	0,5	2,788450
4,533667	0,5	2,794600
4,542000	0,5	2,797250
4,550333	0,5	2,812400
4,558667	0,5	2,809050
4,567000	0,5	2,808550
4,575333	0,5	2,794050
4,583667	0,5	2,782650
4,592000	0,5	2,760200
4,600333	0,5	2,740000
4,608667	0,5	2,721000
4,617000	0,5	2,698100
4,625333	0,5	2,678550
4,633667	0,5	2,658550
4,642000	0,5	2,636150
4,650333	0,5	2,621900
4,658667	0,5	2,610250
4,667000	0,5	2,591050
4,675333	0,5	2,580900
4,683667	0,5	2,570250
4,692000	0,5	2,572600
4,700333	0,5	2,570850
4,708667	0,5	2,575150
4,717000	0,5	2,568000
4,725333	0,5	2,571000
4,733667	0,5	2,561050
4,742000	0,5	2,560150
4,750333	0,5	2,555850
4,758667	0,5	2,548300
4,767000	0,5	2,540550
4,775333	0,5	2,533250
4,783667	0,5	2,518900
4,792000	0,5	2,510150
4,800333	0,5	2,502150
4,808667	0,5	2,493950
4,817000	0,5	2,474000
4,825333	0,5	2,464950
4,833667	0,5	2,453300
4,842000	0,5	2,449450
4,850333	0,5	2,451550
4,858667	0,5	2,439500
4,867000	0,5	2,435400
4,875333	0,5	2,426450
4,883667	0,5	2,423550
4,892000	0,5	2,410750
4,900333	0,5	2,409050
4,908667	0,5	2,399800
4,917000	0,5	2,404550
4,925333	0,5	2,404700
4,933667	0,5	2,405950
4,942000	0,5	2,419450
4,950333	0,5	2,456400
4,958667	0,5	2,480900
4,967000	0,5	2,520600
4,975333	0,5	2,571650
4,983667	0,5	2,626950
4,992000	0,5	2,690500
5,000333	0,5	2,734500
5,008667	0,5	2,768200
5,017000	0,5	2,777250
5,025333	0,5	2,780700
5,033667	0,5	2,765400
5,042000	0,5	2,741800
5,050333	0,5	2,721800
5,058667	0,5	2,719350
5,067000	0,5	2,734800
5,075333	0,5	2,789150
5,083667	0,5	2,871300
5,092000	0,5	3,014700
5,100333	0,5	3,211550
5,108667	0,5	3,425150
5,117000	0,5	3,661000
5,125333	0,5	3,899050
5,133667	0,5	4,109550
5,142000	0,5	4,265450
5,150333	0,5	4,336150
5,158667	0,5	4,323600
5,167000	0,5	4,232900
5,175333	0,5	4,068700
5,183667	0,5	3,855950
5,192000	0,5	3,618100
5,200333	0,5	3,381250
5,208667	0,5	3,148700
5,217000	0,5	2,947050
5,225333	0,5	2,769150
5,233667	0,5	2,622250
5,242000	0,5	2,506950
5,250333	0,5	2,422050
5,258667	0,5	2,334300
5,267000	0,5	2,279650
5,275333	0,5	2,234650
5,283667	0,5	2,208000
5,292000	0,5	2,182700
5,300333	0,5	2,157650
5,308667	0,5	2,130050
5,317000	0,5	2,113200
5,325333	0,5	2,090400
5,333667	0,5	2,079700
5,342000	0,5	2,064900
5,350333	0,5	2,051400
5,358667	0,5	2,040150
5,367000	0,5	2,031800
5,375333	0,5	2,018550
5,383667	0,5	2,006250
5,392000	0,5	2,004750
5,400333	0,5	1,993650
5,408667	0,5	1,984250
5,417000	0,5	1,972700
5,425333	0,5	1,974550
5,433667	0,5	1,971000
5,442000	0,5	1,971350
5,450333	0,5	1,955850
5,458667	0,5	1,951050
5,467000	0,5	1,938050
5,475333	0,5	1,931200
5,483667	0,5	1,917100
5,492000	0,5	1,910100
5,500333	0,5	1,896750
5,508667	0,5	1,886550
5,517000	0,5	1,883200
5,525333	0,5	1,866950
5,533667	0,5	1,860600
5,542000	0,5	1,866400
5,550333	0,5	1,862050
5,558667	0,5	1,862600
5,567000	0,5	1,868100
5,575333	0,5	1,881550
5,583667	0,5	1,895100
5,592000	0,5	1,909950
5,600333	0,5	1,919850
5,608667	0,5	1,924600
5,617000	0,5	1,935850
5,625333	0,5	1,944850
5,633667	0,5	1,962150
5,642000	0,5	1,977850
5,650333	0,5	2,003850
5,658667	0,5	2,039700
5,667000	0,5	2,083000
5,675333	0,5	2,133300
5,683667	0,5	2,202050
5,692000	0,5	2,281300
5,700333	0,5	2,356750
5,708667	0,5	2,447200
5,717000	0,5	2,538200
5,725333	0,5	2,644650
5,733667	0,5	2,743950
5,742000	0,5	2,839100
5,750333	0,5	2,925700
5,758667	0,5	3,001200
5,767000	0,5	3,069500
5,775333	0,5	3,117000
5,783667	0,5	3,134000
5,792000	0,5	3,121400
5,800333	0,5	3,066300
5,808667	0,5	2,978600
5,817000	0,5	2,849400
5,825333	0,5	2,697450
5,833667	0,5	2,532450
5,842000	0,5	2,373150
5,850333	0,5	2,211750
5,858667	0,5	2,075350
5,867000	0,5	1,964250
5,875333	0,5	1,881800
5,883667	0,5	1,825350
5,892000	0,5	1,773050
5,900333	0,5	1,743250
5,908667	0,5	1,721750
5,917000	0,5	1,716350
5,925333	0,5	1,713250
5,933667	0,5	1,713850
5,942000	0,5	1,716900
5,950333	0,5	1,734650
5,958667	0,5	1,753100
5,967000	0,5	1,779850
5,975333	0,5	1,805500
5,983667	0,5	1,850650
5,992000	0,5	1,876600
6,000333	0,5	1,899950
6,008667	0,5	1,919700
6,017000	0,5	1,929350
6,025333	0,5	1,935350
6,033667	0,5	1,921350
6,042000	0,5	1,891700
6,050333	0,5	1,854750
6,058667	0,5	1,813100
6,067000	0,5	1,769250
6,075333	0,5	1,727550
6,083667	0,5	1,688900
6,092000	0,5	1,649650
6,100333	0,5	1,620750
6,108667	0,5	1,593250
6,117000	0,5	1,565900
6,125333	0,5	1,551050
6,133667	0,5	1,540800
6,142000	0,5	1,518550
6,150333	0,5	1,506600
6,158667	0,5	1,494700
6,167000	0,5	1,491200
6,175333	0,5	1,488600
6,183667	0,5	1,475100
6,192000	0,5	1,468300
6,200333	0,5	1,459800
6,208667	0,5	1,456650
6,217000	0,5	1,448150
6,225333	0,5	1,440500
6,233667	0,5	1,433100
6,242000	0,5	1,428700
6,250333	0,5	1,428550
6,258667	0,5	1,424750
6,267000	0,5	1,421100
6,275333	0,5	1,422550
6,283667	0,5	1,427150
6,292000	0,5	1,416950
6,300333	0,5	1,417000
6,308667	0,5	1,423450
6,317000	0,5	1,432750
6,325333	0,5	1,451800
6,333667	0,5	1,466750
6,342000	0,5	1,483950
6,350333	0,5	1,514250
6,358667	0,5	1,545050
6,367000	0,5	1,578900
6,375333	0,5	1,611250
6,383667	0,5	1,638900
6,392000	0,5	1,647950
6,400333	0,5	1,649750
6,408667	0,5	1,635550
6,417000	0,5	1,607100
6,425333	0,5	1,573800
6,433667	0,5	1,533400
6,442000	0,5	1,492700
6,450333	0,5	1,460100
6,458667	0,5	1,436650
6,467000	0,5	1,422200
6,475333	0,5	1,417800
6,483667	0,5	1,410900
6,492000	0,5	1,410150
6,500333	0,5	1,414850
6,508667	0,5	1,423700
6,517000	0,5	1,427450
6,525333	0,5	1,436800
6,533667	0,5	1,438700
6,542000	0,5	1,441850
6,550333	0,5	1,441550
6,558667	0,5	1,436750
6,567000	0,5	1,431500
6,575333	0,5	1,435450
6,583667	0,5	1,426600
6,592000	0,5	1,425600
6,600333	0,5	1,428200
6,608667	0,5	1,439200
6,617000	0,5	1,459450
6,625333	0,5	1,471350
6,633667	0,5	1,482550
6,642000	0,5	1,491100
6,650333	0,5	1,501800
6,658667	0,5	1,507950
6,667000	0,5	1,515650
6,675333	0,5	1,522950
6,683667	0,5	1,535200
6,692000	0,5	1,542350
6,700333	0,5	1,557100
6,708667	0,5	1,561800
6,717000	0,5	1,567150
6,725333	0,5	1,558200
6,733667	0,5	1,544600
6,742000	0,5	1,524300
6,750333	0,5	1,495050
6,758667	0,5	1,470600
6,767000	0,5	1,447350
6,775333	0,5	1,422200
6,783667	0,5	1,397800
6,792000	0,5	1,376350
6,800333	0,5	1,362400
6,808667	0,5	1,351400
6,817000	0,5	1,343350
6,825333	0,5	1,337200
6,833667	0,5	1,332100
6,842000	0,5	1,329350
6,850333	0,5	1,321700
6,858667	0,5	1,319000
6,867000	0,5	1,324750
6,875333	0,5	1,324100
6,883667	0,5	1,318100
6,892000	0,5	1,319300
6,900333	0,5	1,320300
6,908667	0,5	1,328100
6,917000	0,5	1,330650
6,925333	0,5	1,331600
6,933667	0,5	1,334900
6,942000	0,5	1,331750
6,950333	0,5	1,331850
6,958667	0,5	1,330900
6,967000	0,5	1,332400
6,975333	0,5	1,325400
6,983667	0,5	1,330700
6,992000	0,5	1,327000
7,000333	0,5	1,327450
7,008667	0,5	1,324100
7,017000	0,5	1,331200
7,025333	0,5	1,321400
7,033667	0,5	1,310050
7,042000	0,5	1,304750
7,050333	0,5	1,299750
7,058667	0,5	1,299250
7,067000	0,5	1,295950
7,075333	0,5	1,286200
7,083667	0,5	1,284600
7,092000	0,5	1,279300
7,100333	0,5	1,278600
7,108667	0,5	1,276900
7,117000	0,5	1,276700
7,125333	0,5	1,273800
7,133667	0,5	1,273600
7,142000	0,5	1,274250
7,150333	0,5	1,269250
7,158667	0,5	1,268550
7,167000	0,5	1,275850
7,175333	0,5	1,269800
7,183667	0,5	1,270250
7,192000	0,5	1,270650
7,200333	0,5	1,270950
7,208667	0,5	1,274800
7,217000	0,5	1,270500
7,225333	0,5	1,266700
7,233667	0,5	1,265400
7,242000	0,5	1,269250
7,250333	0,5	1,268850
7,258667	0,5	1,273650
7,267000	0,5	1,280400
7,275333	0,5	1,286500
7,283667	0,5	1,295250
7,292000	0,5	1,305150
7,300333	0,5	1,312150
7,308667	0,5	1,321550
7,317000	0,5	1,326350
7,325333	0,5	1,325750
7,333667	0,5	1,326800
7,342000	0,5	1,326950
7,350333	0,5	1,341350
7,358667	0,5	1,364750
7,367000	0,5	1,397850
7,375333	0,5	1,435400
7,383667	0,5	1,479300
7,392000	0,5	1,513550
7,400333	0,5	1,533650
7,408667	0,5	1,530350
7,417000	0,5	1,510650
7,425333	0,5	1,474600
7,433667	0,5	1,434600
7,442000	0,5	1,392150
7,450333	0,5	1,357900
7,458667	0,5	1,339100
7,467000	0,5	1,326550
7,475333	0,5	1,324400
7,483667	0,5	1,326950
7,492000	0,5	1,331000
7,500333	0,5	1,338450
7,508667	0,5	1,345600
7,517000	0,5	1,349800
7,525333	0,5	1,356450
7,533667	0,5	1,366950
7,542000	0,5	1,388150
7,550333	0,5	1,415950
7,558667	0,5	1,443300
7,567000	0,5	1,472300
7,575333	0,5	1,499950
7,583667	0,5	1,520950
7,592000	0,5	1,530800
7,600333	0,5	1,524900
7,608667	0,5	1,508500
7,617000	0,5	1,472200
7,625333	0,5	1,433500
7,633667	0,5	1,395350
7,642000	0,5	1,370100
7,650333	0,5	1,344600
7,658667	0,5	1,331800
7,667000	0,5	1,317350
7,675333	0,5	1,308900
7,683667	0,5	1,303800
7,692000	0,5	1,301350
7,700333	0,5	1,295600
7,708667	0,5	1,295200
7,717000	0,5	1,295900
7,725333	0,5	1,297350
7,733667	0,5	1,295750
7,742000	0,5	1,295250
7,750333	0,5	1,301800
7,758667	0,5	1,306350
7,767000	0,5	1,311550
7,775333	0,5	1,318450
7,783667	0,5	1,328850
7,792000	0,5	1,345950
7,800333	0,5	1,361400
7,808667	0,5	1,377200
7,817000	0,5	1,396800
7,825333	0,5	1,418150
7,833667	0,5	1,449750
7,842000	0,5	1,481750
7,850333	0,5	1,523650
7,858667	0,5	1,576550
7,867000	0,5	1,641000
7,875333	0,5	1,718600
7,883667	0,5	1,813050
7,892000	0,5	1,923550
7,900333	0,5	2,058600
7,908667	0,5	2,208750
7,917000	0,5	2,375650
7,925333	0,5	2,558150
7,933667	0,5	2,755600
7,942000	0,5	2,960200
7,950333	0,5	3,161500
7,958667	0,5	3,337800
7,967000	0,5	3,474000
7,975333	0,5	3,561800
7,983667	0,5	3,579750
7,992000	0,5	3,517950
8,000333	0,5	3,387400
8,008667	0,5	3,198500
8,017000	0,5	2,971400
8,025333	0,5	2,728000
8,033667	0,5	2,500800
8,042000	0,5	2,285200
8,050333	0,5	2,109100
8,058667	0,5	1,972250
8,067000	0,5	1,870950
8,075333	0,5	1,815150
8,083667	0,5	1,793550
8,092000	0,5	1,826400
8,100333	0,5	1,897550
8,108667	0,5	2,013550
8,117000	0,5	2,159150
8,125333	0,5	2,316500
8,133667	0,5	2,446350
8,142000	0,5	2,529800
8,150333	0,5	2,550850
8,158667	0,5	2,508550
8,167000	0,5	2,425100
8,175333	0,5	2,320300
8,183667	0,5	2,209300
8,192000	0,5	2,111300
8,200333	0,5	2,018850
8,208667	0,5	1,939850
8,217000	0,5	1,874500
8,225333	0,5	1,820600
8,233667	0,5	1,779750
8,242000	0,5	1,748400
8,250333	0,5	1,721300
8,258667	0,5	1,705400
8,267000	0,5	1,695000
8,275333	0,5	1,686050
8,283667	0,5	1,675750
8,292000	0,5	1,665250
8,300333	0,5	1,651600
8,308667	0,5	1,629400
8,317000	0,5	1,608300
8,325333	0,5	1,598050
8,333667	0,5	1,589300
8,342000	0,5	1,590800
8,350333	0,5	1,604200
8,358667	0,5	1,626100
8,367000	0,5	1,647500
8,375333	0,5	1,673100
8,383667	0,5	1,697800
8,392000	0,5	1,724950
8,400333	0,5	1,744300
8,408667	0,5	1,764250
8,417000	0,5	1,790800
8,425333	0,5	1,841250
8,433667	0,5	1,922800
8,442000	0,5	2,058300
8,450333	0,5	2,247050
8,458667	0,5	2,470900
8,467000	0,5	2,701600
8,475333	0,5	2,898700
8,483667	0,5	3,012400
8,492000	0,5	3,025900
8,500333	0,5	2,942500
8,508667	0,5	2,795700
8,517000	0,5	2,617400
8,525333	0,5	2,454700
8,533667	0,5	2,328900
8,542000	0,5	2,257450
8,550333	0,5	2,239100
8,558667	0,5	2,263800
8,567000	0,5	2,343350
8,575333	0,5	2,468800
8,583667	0,5	2,651850
8,592000	0,5	2,888550
8,600333	0,5	3,182100
8,608667	0,5	3,533250
8,617000	0,5	3,939750
8,625333	0,5	4,390500
8,633667	0,5	4,854600
8,642000	0,5	5,304000
8,650333	0,5	5,713300
8,658667	0,5	6,070800
8,667000	0,5	6,381400
8,675333	0,5	6,642800
8,683667	0,5	6,827100
8,692000	0,5	6,888200
8,700333	0,5	6,771350
8,708667	0,5	6,433200
8,717000	0,5	5,879150
8,725333	0,5	5,171700
8,733667	0,5	4,399450
8,742000	0,5	3,680800
8,750333	0,5	3,070100
8,758667	0,5	2,601400
8,767000	0,5	2,262550
8,775333	0,5	2,025300
8,783667	0,5	1,864600
8,792000	0,5	1,757050
8,800333	0,5	1,683250
8,808667	0,5	1,635000
8,817000	0,5	1,600800
8,825333	0,5	1,574200
8,833667	0,5	1,556850
8,842000	0,5	1,537450
8,850333	0,5	1,523100
8,858667	0,5	1,509050
8,867000	0,5	1,497750
8,875333	0,5	1,490050
8,883667	0,5	1,481200
8,892000	0,5	1,470100
8,900333	0,5	1,456300
8,908667	0,5	1,445400
8,917000	0,5	1,427900
8,925333	0,5	1,412900
8,933667	0,5	1,402800
8,942000	0,5	1,394400
8,950333	0,5	1,387000
8,958667	0,5	1,379200
8,967000	0,5	1,378250
8,975333	0,5	1,385150
8,983667	0,5	1,402100
8,992000	0,5	1,430150
9,000333	0,5	1,475300
9,008667	0,5	1,534950
9,017000	0,5	1,616000
9,025333	0,5	1,702900
9,033667	0,5	1,779300
9,042000	0,5	1,821750
9,050333	0,5	1,811700
9,058667	0,5	1,763300
9,067000	0,5	1,691300
9,075333	0,5	1,611700
9,083667	0,5	1,549600
9,092000	0,5	1,506100
9,100333	0,5	1,488850
9,108667	0,5	1,487950
9,117000	0,5	1,500550
9,125333	0,5	1,521900
9,133667	0,5	1,554300
9,142000	0,5	1,594500
9,150333	0,5	1,635200
9,158667	0,5	1,690300
9,167000	0,5	1,761850
9,175333	0,5	1,837600
9,183667	0,5	1,910700
9,192000	0,5	1,963900
9,200333	0,5	1,984000
9,208667	0,5	1,977800
9,217000	0,5	1,945700
9,225333	0,5	1,885050
9,233667	0,5	1,823800
9,242000	0,5	1,757400
9,250333	0,5	1,700100
9,258667	0,5	1,654500
9,267000	0,5	1,629250
9,275333	0,5	1,608150
9,283667	0,5	1,590300
9,292000	0,5	1,572750
9,300333	0,5	1,550900
9,308667	0,5	1,524300
9,317000	0,5	1,501000
9,325333	0,5	1,482100
9,333667	0,5	1,471700
9,342000	0,5	1,466700
9,350333	0,5	1,482000
9,358667	0,5	1,514550
9,367000	0,5	1,559650
9,375333	0,5	1,609050
9,383667	0,5	1,647900
9,392000	0,5	1,662600
9,400333	0,5	1,648750
9,408667	0,5	1,612250
9,417000	0,5	1,568200
9,425333	0,5	1,530250
9,433667	0,5	1,501100
9,442000	0,5	1,477450
9,450333	0,5	1,463750
9,458667	0,5	1,463650
9,467000	0,5	1,472000
9,475333	0,5	1,494450
9,483667	0,5	1,528950
9,492000	0,5	1,565450
9,500333	0,5	1,603950
9,508667	0,5	1,630250
9,517000	0,5	1,634250
9,525333	0,5	1,629150
9,533667	0,5	1,610600
9,542000	0,5	1,579400
9,550333	0,5	1,547850
9,558667	0,5	1,510800
9,567000	0,5	1,482900
9,575333	0,5	1,466500
9,583667	0,5	1,457750
9,592000	0,5	1,472750
9,600333	0,5	1,521800
9,608667	0,5	1,616750
9,617000	0,5	1,780150
9,625333	0,5	2,038450
9,633667	0,5	2,378650
9,642000	0,5	2,772850
9,650333	0,5	3,167700
9,658667	0,5	3,468600
9,667000	0,5	3,620700
9,675333	0,5	3,589700
9,683667	0,5	3,392950
9,692000	0,5	3,073300
9,700333	0,5	2,714350
9,708667	0,5	2,363250
9,717000	0,5	2,063150
9,725333	0,5	1,835450
9,733667	0,5	1,667100
9,742000	0,5	1,541200
9,750333	0,5	1,452600
9,758667	0,5	1,385900
9,767000	0,5	1,337100
9,775333	0,5	1,306900
9,783667	0,5	1,283050
9,792000	0,5	1,264100
9,800333	0,5	1,255700
9,808667	0,5	1,246350
9,817000	0,5	1,234700
9,825333	0,5	1,235350
9,833667	0,5	1,235550
9,842000	0,5	1,240800
9,850333	0,5	1,255000
9,858667	0,5	1,284850
9,867000	0,5	1,328500
9,875333	0,5	1,381700
9,883667	0,5	1,430550
9,892000	0,5	1,469100
9,900333	0,5	1,476550
9,908667	0,5	1,464850
9,917000	0,5	1,433950
9,925333	0,5	1,394650
9,933667	0,5	1,360350
9,942000	0,5	1,333600
9,950333	0,5	1,315750
9,958667	0,5	1,307050
9,967000	0,5	1,291250
9,975333	0,5	1,291200
9,983667	0,5	1,283900
9,992000	0,5	1,269650
10,000333	0,5	1,262400
10,008667	0,5	1,253900
10,017000	0,5	1,268900
10,025333	0,5	1,282100
10,033667	0,5	1,314050
10,042000	0,5	1,346650
10,050333	0,5	1,382600
10,058667	0,5	1,424550
10,067000	0,5	1,469800
10,075333	0,5	1,517150
10,083667	0,5	1,583850
10,092000	0,5	1,671350
10,100333	0,5	1,802200
10,108667	0,5	1,991050
10,117000	0,5	2,253150
10,125333	0,5	2,575400
10,133667	0,5	2,922800
10,142000	0,5	3,243450
10,150333	0,5	3,496650
10,158667	0,5	3,651450
10,167000	0,5	3,702700
10,175333	0,5	3,662200
10,183667	0,5	3,559550
10,192000	0,5	3,418300
10,200333	0,5	3,252750
10,208667	0,5	3,071950
10,217000	0,5	2,866650
10,225333	0,5	2,645500
10,233667	0,5	2,410900
10,242000	0,5	2,175800
10,250333	0,5	1,956400
10,258667	0,5	1,767400
10,267000	0,5	1,606900
10,275333	0,5	1,482650
10,283667	0,5	1,381850
10,292000	0,5	1,302100
10,300333	0,5	1,241750
10,308667	0,5	1,207100
10,317000	0,5	1,190550
10,325333	0,5	1,179900
10,333667	0,5	1,184900
10,342000	0,5	1,197050
10,350333	0,5	1,211600
10,358667	0,5	1,232700
10,367000	0,5	1,253300
10,375333	0,5	1,274150
10,383667	0,5	1,294850
10,392000	0,5	1,320350
10,400333	0,5	1,343550
10,408667	0,5	1,373900
10,417000	0,5	1,415650
10,425333	0,5	1,461800
10,433667	0,5	1,517350
10,442000	0,5	1,570450
10,450333	0,5	1,623450
10,458667	0,5	1,665550
10,467000	0,5	1,693500
10,475333	0,5	1,700500
10,483667	0,5	1,673050
10,492000	0,5	1,627600
10,500333	0,5	1,565500
10,508667	0,5	1,506750
10,517000	0,5	1,453850
10,525333	0,5	1,421350
10,533667	0,5	1,410450
10,542000	0,5	1,425000
10,550333	0,5	1,453700
10,558667	0,5	1,485350
10,567000	0,5	1,524100
10,575333	0,5	1,550250
10,583667	0,5	1,555100
10,592000	0,5	1,544100
10,600333	0,5	1,519250
10,608667	0,5	1,487150
10,617000	0,5	1,452000
10,625333	0,5	1,425150
10,633667	0,5	1,407350
10,642000	0,5	1,420700
10,650333	0,5	1,450950
10,658667	0,5	1,492900
10,667000	0,5	1,524200
10,675333	0,5	1,528250
10,683667	0,5	1,504100
10,692000	0,5	1,462750
10,700333	0,5	1,405950
10,708667	0,5	1,363200
10,717000	0,5	1,348600
10,725333	0,5	1,351700
10,733667	0,5	1,368000
10,742000	0,5	1,396100
10,750333	0,5	1,456150
10,758667	0,5	1,537950
10,767000	0,5	1,651050
10,775333	0,5	1,760500
10,783667	0,5	1,867250
10,792000	0,5	1,976500
10,800333	0,5	2,169850
10,808667	0,5	2,538800
10,817000	0,5	2,973750
10,825333	0,5	3,154450
10,833667	0,5	3,040950
10,842000	0,5	2,688700
10,850333	0,5	2,139400
10,858667	0,5	1,494250
10,867000	0,5	0,954100
10,875333	0,5	0,630800
10,883667	0,5	0,442450
10,892000	0,5	0,322350
10,900333	0,5	0,239200
10,908667	0,5	0,180750
10,917000	0,5	0,121750
10,925333	0,5	0,077700
10,933667	0,5	0,035200
10,942000	0,5	-0,004400
10,950333	0,5	-0,038750
10,958667	0,5	-0,062000
10,967000	0,5	-0,083050
10,975333	0,5	-0,102950
10,983667	0,5	-0,111700
10,992000	0,5	-0,122400
11,000333	0,5	-0,132750
11,008667	0,5	-0,129500
11,017000	0,5	-0,132400
11,025333	0,5	-0,132650
11,033667	0,5	-0,133700
11,042000	0,5	-0,139600
11,050333	0,5	-0,138650
11,058667	0,5	-0,145000
11,067000	0,5	-0,153550
11,075333	0,5	-0,165650
11,083667	0,5	-0,182400
11,092000	0,5	-0,199500
11,100333	0,5	-0,214350
11,108667	0,5	-0,231100
11,117000	0,5	-0,249250
11,125333	0,5	-0,261500
11,133667	0,5	-0,272100
11,142000	0,5	-0,291850
11,150333	0,5	-0,302600
11,158667	0,5	-0,305500
11,167000	0,5	-0,316600
11,175333	0,5	-0,329450
11,183667	0,5	-0,342650
11,192000	0,5	-0,350950
11,200333	0,5	-0,354900
11,208667	0,5	-0,361300
11,217000	0,5	-0,368200
11,225333	0,5	-0,371650
11,233667	0,5	-0,372900
11,242000	0,5	-0,377900
11,250333	0,5	-0,380850
11,258667	0,5	-0,380100
11,267000	0,5	-0,381100
11,275333	0,5	-0,378500
11,283667	0,5	-0,381200
11,292000	0,5	-0,385250
11,300333	0,5	-0,377700
11,308667	0,5	-0,376600
11,317000	0,5	-0,380500
11,325333	0,5	-0,382250
11,333667	0,5	-0,386850
11,342000	0,5	-0,383700
11,350333	0,5	-0,380850
11,358667	0,5	-0,380450
11,367000	0,5	-0,380250
11,375333	0,5	-0,384500
11,383667	0,5	-0,383250
11,392000	0,5	-0,383300
11,400333	0,5	-0,383550
11,408667	0,5	-0,384250
11,417000	0,5	-0,387500
11,425333	0,5	-0,390500
11,433667	0,5	-0,390800
11,442000	0,5	-0,400400
11,450333	0,5	-0,398000
11,458667	0,5	-0,402250
11,467000	0,5	-0,408950
11,475333	0,5	-0,416400
11,483667	0,5	-0,418600
11,492000	0,5	-0,419750
11,500333	0,5	-0,415750
11,508667	0,5	-0,421950
11,517000	0,5	-0,419100
11,525333	0,5	-0,422050
11,533667	0,5	-0,419450
11,542000	0,5	-0,421200
11,550333	0,5	-0,421800
11,558667	0,5	-0,419700
11,567000	0,5	-0,420400
11,575333	0,5	-0,417250
11,583667	0,5	-0,416800
11,592000	0,5	-0,419450
11,600333	0,5	-0,416850
11,608667	0,5	-0,416100
11,617000	0,5	-0,417800
11,625333	0,5	-0,421850
11,633667	0,5	-0,418450
11,642000	0,5	-0,413750
11,650333	0,5	-0,406150
11,658667	0,5	-0,396250
11,667000	0,5	-0,395250
11,675333	0,5	-0,389550
11,683667	0,5	-0,384600
11,692000	0,5	-0,374550
11,700333	0,5	-0,366900
11,708667	0,5	-0,355850
11,717000	0,5	-0,351750
11,725333	0,5	-0,343500
11,733667	0,5	-0,342350
11,742000	0,5	-0,332650
11,750333	0,5	-0,328150
11,758667	0,5	-0,326150
11,767000	0,5	-0,321250
11,775333	0,5	-0,324150
11,783667	0,5	-0,320350
11,792000	0,5	-0,319250
11,800333	0,5	-0,317550
11,808667	0,5	-0,319000
11,817000	0,5	-0,315850
11,825333	0,5	-0,318800
11,833667	0,5	-0,318700
11,842000	0,5	-0,326700
11,850333	0,5	-0,326500
11,858667	0,5	-0,329850
11,867000	0,5	-0,330400
11,875333	0,5	-0,333150
11,883667	0,5	-0,340500
11,892000	0,5	-0,339150
11,900333	0,5	-0,334850
11,908667	0,5	-0,338850
11,917000	0,5	-0,342550
11,925333	0,5	-0,343550
11,933667	0,5	-0,344300
11,942000	0,5	-0,338550
11,950333	0,5	-0,334600
11,958667	0,5	-0,335400
11,967000	0,5	-0,334800
11,975333	0,5	-0,327100
11,983667	0,5	-0,325000
11,992000	0,5	-0,319600
12,000333	0,5	-0,314400
12,008667	0,5	-0,307000
12,017000	0,5	-0,302850
12,025333	0,5	-0,293350
12,033667	0,5	-0,290450
12,042000	0,5	-0,275900
12,050333	0,5	-0,268500
12,058667	0,5	-0,261900
12,067000	0,5	-0,254400
12,075333	0,5	-0,243700
12,083667	0,5	-0,220650
12,092000	0,5	-0,204100
12,100333	0,5	-0,186450
12,108667	0,5	-0,165900
12,117000	0,5	-0,143450
12,125333	0,5	-0,118000
12,133667	0,5	-0,092050
12,142000	0,5	-0,065500
12,150333	0,5	-0,037950
12,158667	0,5	-0,013600
12,167000	0,5	0,015050
12,175333	0,5	0,037900
12,183667	0,5	0,067850
12,192000	0,5	0,094550
12,200333	0,5	0,123150
12,208667	0,5	0,141100
12,217000	0,5	0,157100
12,225333	0,5	0,179050
12,233667	0,5	0,207850
12,242000	0,5	0,230050
12,250333	0,5	0,249950
12,258667	0,5	0,270250
12,267000	0,5	0,289850
12,275333	0,5	0,316350
12,283667	0,5	0,338750
12,292000	0,5	0,364550
12,300333	0,5	0,389200
12,308667	0,5	0,419450
12,317000	0,5	0,448550
12,325333	0,5	0,466550
12,333667	0,5	0,491550
12,342000	0,5	0,513850
12,350333	0,5	0,531350
12,358667	0,5	0,540200
12,367000	0,5	0,546650
12,375333	0,5	0,559700
12,383667	0,5	0,562800
12,392000	0,5	0,569850
12,400333	0,5	0,573400
12,408667	0,5	0,573350
12,417000	0,5	0,576000
12,425333	0,5	0,579800
12,433667	0,5	0,583500
12,442000	0,5	0,589850
12,450333	0,5	0,598350
12,458667	0,5	0,596850
12,467000	0,5	0,607100
12,475333	0,5	0,607950
12,483667	0,5	0,618750
12,492000	0,5	0,624850
12,500333	0,5	0,630600
12,508667	0,5	0,631300
12,517000	0,5	0,636800
12,525333	0,5	0,647750
12,533667	0,5	0,659900
12,542000	0,5	0,666250
12,550333	0,5	0,675200
12,558667	0,5	0,682950
12,567000	0,5	0,691500
12,575333	0,5	0,700500
12,583667	0,5	0,712050
12,592000	0,5	0,713550
12,600333	0,5	0,719450
12,608667	0,5	0,724450
12,617000	0,5	0,727050
12,625333	0,5	0,731950
12,633667	0,5	0,744700
12,642000	0,5	0,748000
12,650333	0,5	0,755250
12,658667	0,5	0,757650
12,667000	0,5	0,759650
12,675333	0,5	0,771450
12,683667	0,5	0,774500
12,692000	0,5	0,779300
12,700333	0,5	0,774000
12,708667	0,5	0,776550
12,717000	0,5	0,775500
12,725333	0,5	0,772800
12,733667	0,5	0,770900
12,742000	0,5	0,771700
12,750333	0,5	0,774000
12,758667	0,5	0,776850
12,767000	0,5	0,773900
12,775333	0,5	0,779150
12,783667	0,5	0,786250
12,792000	0,5	0,785000
12,800333	0,5	0,790050
12,808667	0,5	0,784950
12,817000	0,5	0,793550
12,825333	0,5	0,794500
12,833667	0,5	0,805550
12,842000	0,5	0,810750
12,850333	0,5	0,813750
12,858667	0,5	0,821900
12,867000	0,5	0,833000
12,875333	0,5	0,840700
12,883667	0,5	0,850700
12,892000	0,5	0,854700
12,900333	0,5	0,864250
12,908667	0,5	0,868100
12,917000	0,5	0,872100
12,925333	0,5	0,881200
12,933667	0,5	0,888000
12,942000	0,5	0,886300
12,950333	0,5	0,888300
12,958667	0,5	0,887350
12,967000	0,5	0,893900
12,975333	0,5	0,893850
12,983667	0,5	0,895900
12,992000	0,5	0,893250
13,000333	0,5	0,896900
13,008667	0,5	0,896200
13,017000	0,5	0,893550
13,025333	0,5	0,897400
13,033667	0,5	0,900100
13,042000	0,5	0,896750
13,050333	0,5	0,894550
13,058667	0,5	0,895350
13,067000	0,5	0,894400
13,075333	0,5	0,900550
13,083667	0,5	0,902450
13,092000	0,5	0,900100
13,100333	0,5	0,894550
13,108667	0,5	0,892100
13,117000	0,5	0,898050
13,125333	0,5	0,897550
13,133667	0,5	0,893750
13,142000	0,5	0,890900
13,150333	0,5	0,894300
13,158667	0,5	0,898350
13,167000	0,5	0,900900
13,175333	0,5	0,904400
13,183667	0,5	0,908700
13,192000	0,5	0,907550
13,200333	0,5	0,914600
13,208667	0,5	0,905100
13,217000	0,5	0,911250
13,225333	0,5	0,907900
13,233667	0,5	0,909100
13,242000	0,5	0,901600
13,250333	0,5	0,895350
13,258667	0,5	0,894900
13,267000	0,5	0,900450
13,275333	0,5	0,895350
13,283667	0,5	0,893000
13,292000	0,5	0,891050
13,300333	0,5	0,884300
13,308667	0,5	0,886600
13,317000	0,5	0,885950
13,325333	0,5	0,881400
13,333667	0,5	0,880300
13,342000	0,5	0,880650
13,350333	0,5	0,881900
13,358667	0,5	0,874300
13,367000	0,5	0,880700
13,375333	0,5	0,883550
13,383667	0,5	0,887500
13,392000	0,5	0,887450
13,400333	0,5	0,883750
13,408667	0,5	0,890150
13,417000	0,5	0,889550
13,425333	0,5	0,890050
13,433667	0,5	0,881950
13,442000	0,5	0,874100
13,450333	0,5	0,865850
13,458667	0,5	0,861150
13,467000	0,5	0,854600
13,475333	0,5	0,853400
13,483667	0,5	0,858750
13,492000	0,5	0,862250
13,500333	0,5	0,873650
13,508667	0,5	0,879800
13,517000	0,5	0,900550
13,525333	0,5	0,910400
13,533667	0,5	0,913100
13,542000	0,5	0,906100
13,550333	0,5	0,899950
13,558667	0,5	0,889350
13,567000	0,5	0,882650
13,575333	0,5	0,870150
13,583667	0,5	0,861900
13,592000	0,5	0,852200
13,600333	0,5	0,847300
13,608667	0,5	0,842050
13,617000	0,5	0,839350
13,625333	0,5	0,834050
13,633667	0,5	0,827300
13,642000	0,5	0,824000
13,650333	0,5	0,822600
13,658667	0,5	0,832650
13,667000	0,5	0,851950
13,675333	0,5	0,870200
13,683667	0,5	0,891650
13,692000	0,5	0,900500
13,700333	0,5	0,900450
13,708667	0,5	0,901000
13,717000	0,5	0,887400
13,725333	0,5	0,879250
13,733667	0,5	0,864200
13,742000	0,5	0,856600
13,750333	0,5	0,846350
13,758667	0,5	0,847350
13,767000	0,5	0,843400
13,775333	0,5	0,845500
13,783667	0,5	0,854300
13,792000	0,5	0,858650
13,800333	0,5	0,858250
13,808667	0,5	0,884150
13,817000	0,5	0,909850
13,825333	0,5	0,939350
13,833667	0,5	0,967950
13,842000	0,5	0,986450
13,850333	0,5	0,999950
13,858667	0,5	0,980500
13,867000	0,5	0,951700
13,875333	0,5	0,912900
13,883667	0,5	0,878200
13,892000	0,5	0,851100
13,900333	0,5	0,836550
13,908667	0,5	0,828300
13,917000	0,5	0,831350
13,925333	0,5	0,835150
13,933667	0,5	0,851900
13,942000	0,5	0,864150
13,950333	0,5	0,889950
13,958667	0,5	0,931700
13,967000	0,5	0,956300
13,975333	0,5	0,968050
13,983667	0,5	0,961200
13,992000	0,5	0,938700
14,000333	0,5	0,910050
14,008667	0,5	0,870300
14,017000	0,5	0,827400
14,025333	0,5	0,797600
14,033667	0,5	0,781950
14,042000	0,5	0,786200
14,050333	0,5	0,798800
14,058667	0,5	0,825800
14,067000	0,5	0,854100
14,075333	0,5	0,878950
14,083667	0,5	0,899450
14,092000	0,5	0,898900
14,100333	0,5	0,898150
14,108667	0,5	0,879800
14,117000	0,5	0,850400
14,125333	0,5	0,810500
14,133667	0,5	0,768550
14,142000	0,5	0,743550
14,150333	0,5	0,727400
14,158667	0,5	0,721750
14,167000	0,5	0,726250
14,175333	0,5	0,740150
14,183667	0,5	0,757400
14,192000	0,5	0,764250
14,200333	0,5	0,767750
14,208667	0,5	0,761000
14,217000	0,5	0,745800
14,225333	0,5	0,714700
14,233667	0,5	0,691900
14,242000	0,5	0,659100
14,250333	0,5	0,648550
14,258667	0,5	0,639750
14,267000	0,5	0,643500
14,275333	0,5	0,650200
14,283667	0,5	0,663200
14,292000	0,5	0,683150
14,300333	0,5	0,699850
14,308667	0,5	0,704750
14,317000	0,5	0,703650
14,325333	0,5	0,687550
14,333667	0,5	0,669600
14,342000	0,5	0,650400
14,350333	0,5	0,626500
14,358667	0,5	0,608900
14,367000	0,5	0,596150
14,375333	0,5	0,592050
14,383667	0,5	0,586750
14,392000	0,5	0,574800
14,400333	0,5	0,575300
14,408667	0,5	0,569550
14,417000	0,5	0,555850
14,425333	0,5	0,537950
14,433667	0,5	0,521050
14,442000	0,5	0,518900
14,450333	0,5	0,511950
14,458667	0,5	0,512250
14,467000	0,5	0,505500
14,475333	0,5	0,504300
14,483667	0,5	0,499400
14,492000	0,5	0,491250
14,500333	0,5	0,485350
14,508667	0,5	0,478300
14,517000	0,5	0,470900
14,525333	0,5	0,465900
14,533667	0,5	0,457700
14,542000	0,5	0,456450
14,550333	0,5	0,462050
14,558667	0,5	0,458550
14,567000	0,5	0,454600
14,575333	0,5	0,441250
14,583667	0,5	0,436200
14,592000	0,5	0,428700
14,600333	0,5	0,428150
14,608667	0,5	0,419350
14,617000	0,5	0,413750
14,625333	0,5	0,408450
14,633667	0,5	0,412700
14,642000	0,5	0,412650
14,650333	0,5	0,411650
14,658667	0,5	0,410800
14,667000	0,5	0,410950
14,675333	0,5	0,408350
14,683667	0,5	0,399950
14,692000	0,5	0,399500
14,700333	0,5	0,396600
14,708667	0,5	0,387300
14,717000	0,5	0,371200
14,725333	0,5	0,361750
14,733667	0,5	0,357500
14,742000	0,5	0,368200
14,750333	0,5	0,364600
14,758667	0,5	0,373150
14,767000	0,5	0,371500
14,775333	0,5	0,368950
14,783667	0,5	0,365350
14,792000	0,5	0,357700
14,800333	0,5	0,350850
14,808667	0,5	0,345900
14,817000	0,5	0,344650
14,825333	0,5	0,336450
14,833667	0,5	0,333700
14,842000	0,5	0,339600
14,850333	0,5	0,341900
14,858667	0,5	0,335100
14,867000	0,5	0,320500
14,875333	0,5	0,312650
14,883667	0,5	0,316750
14,892000	0,5	0,311350
14,900333	0,5	0,312800
14,908667	0,5	0,309400
14,917000	0,5	0,313750
14,925333	0,5	0,313050
14,933667	0,5	0,317750
14,942000	0,5	0,314600
14,950333	0,5	0,313000
14,958667	0,5	0,313050
14,967000	0,5	0,316550
14,975333	0,5	0,299900
14,983667	0,5	0,301950
14,992000	0,5	0,300150
15,000333	0,5	0,295900
15,008667	0,5	0,280600
15,017000	0,5	0,263000
15,025333	0,5	0,264100
15,033667	0,5	0,259600
15,042000	0,5	0,257950
15,050333	0,5	0,248150
15,058667	0,5	0,250950
15,067000	0,5	0,252300
15,075333	0,5	0,253550
15,083667	0,5	0,247650
15,092000	0,5	0,251000
15,100333	0,5	0,248050
15,108667	0,5	0,247050
15,117000	0,5	0,247200
15,125333	0,5	0,234200
15,133667	0,5	0,241350
15,142000	0,5	0,240750
15,150333	0,5	0,235700
15,158667	0,5	0,232600
15,167000	0,5	0,215200
15,175333	0,5	0,220200
15,183667	0,5	0,219550
15,192000	0,5	0,219550
15,200333	0,5	0,219550
15,208667	0,5	0,215400
15,217000	0,5	0,220600
15,225333	0,5	0,219800
15,233667	0,5	0,223500
15,242000	0,5	0,223250
15,250333	0,5	0,220500
15,258667	0,5	0,219050
15,267000	0,5	0,226350
15,275333	0,5	0,213700
15,283667	0,5	0,228350
15,292000	0,5	0,224350
15,300333	0,5	0,221900
15,308667	0,5	0,214450
15,317000	0,5	0,210250
15,325333	0,5	0,221550
15,333667	0,5	0,225850
15,342000	0,5	0,228400
15,350333	0,5	0,228150
15,358667	0,5	0,231000
15,367000	0,5	0,236150
15,375333	0,5	0,239500
15,383667	0,5	0,241650
15,392000	0,5	0,247050
15,400333	0,5	0,250600
15,408667	0,5	0,255050
15,417000	0,5	0,253350
15,425333	0,5	0,258950
15,433667	0,5	0,262050
15,442000	0,5	0,262300
15,450333	0,5	0,255150
15,458667	0,5	0,249900
15,467000	0,5	0,244700
15,475333	0,5	0,253750
15,483667	0,5	0,259650
15,492000	0,5	0,266600
15,500333	0,5	0,265250
15,508667	0,5	0,270000
15,517000	0,5	0,271550
15,525333	0,5	0,273850
15,533667	0,5	0,272550
15,542000	0,5	0,273750
15,550333	0,5	0,283800
15,558667	0,5	0,290000
15,567000	0,5	0,285500
15,575333	0,5	0,289050
15,583667	0,5	0,289100
15,592000	0,5	0,269150
15,600333	0,5	0,246750
15,608667	0,5	0,225700
15,617000	0,5	0,212850
15,625333	0,5	0,201200
15,633667	0,5	0,197650
15,642000	0,5	0,194450
15,650333	0,5	0,194300
15,658667	0,5	0,187250
15,667000	0,5	0,187450
15,675333	0,5	0,183500
15,683667	0,5	0,174900
15,692000	0,5	0,171400
15,700333	0,5	0,167550
15,708667	0,5	0,156600
15,717000	0,5	0,150700
15,725333	0,5	0,155600
15,733667	0,5	0,151250
15,742000	0,5	0,146750
15,750333	0,5	0,134300
15,758667	0,5	0,125050
15,767000	0,5	0,120850
15,775333	0,5	0,123650
15,783667	0,5	0,121350
15,792000	0,5	0,119450
15,800333	0,5	0,115300
15,808667	0,5	0,119800
15,817000	0,5	0,116500
15,825333	0,5	0,120300
15,833667	0,5	0,116950
15,842000	0,5	0,117900
15,850333	0,5	0,115450
15,858667	0,5	0,110250
15,867000	0,5	0,112000
15,875333	0,5	0,114750
15,883667	0,5	0,113950
15,892000	0,5	0,102900
15,900333	0,5	0,090250
15,908667	0,5	0,094450
15,917000	0,5	0,097200
15,925333	0,5	0,095700
15,933667	0,5	0,091150
15,942000	0,5	0,085300
15,950333	0,5	0,084050
15,958667	0,5	0,080200
15,967000	0,5	0,080950
15,975333	0,5	0,070450
15,983667	0,5	0,073850
15,992000	0,5	0,070850
16,000333	0,5	0,073550
16,008667	0,5	0,054550
16,017000	0,5	0,065100
16,025333	0,5	0,063300
16,033667	0,5	0,059500
16,042000	0,5	0,055550
16,050333	0,5	0,042400
16,058667	0,5	0,053550
16,067000	0,5	0,056300
16,075333	0,5	0,059550
16,083667	0,5	0,064250
16,092000	0,5	0,070200
16,100333	0,5	0,077700
16,108667	0,5	0,088550
16,117000	0,5	0,095900
16,125333	0,5	0,103750
16,133667	0,5	0,108850
16,142000	0,5	0,117600
16,150333	0,5	0,116400
16,158667	0,5	0,103650
16,167000	0,5	0,101900
16,175333	0,5	0,095250
16,183667	0,5	0,085950
16,192000	0,5	0,076400
16,200333	0,5	0,068300
16,208667	0,5	0,082350
16,217000	0,5	0,093250
16,225333	0,5	0,097350
16,233667	0,5	0,100400
16,242000	0,5	0,102950
16,250333	0,5	0,103000
16,258667	0,5	0,097550
16,267000	0,5	0,093700
16,275333	0,5	0,089250
16,283667	0,5	0,091100
16,292000	0,5	0,091600
16,300333	0,5	0,092050
16,308667	0,5	0,091200
16,317000	0,5	0,104350
16,325333	0,5	0,108900
16,333667	0,5	0,110950
16,342000	0,5	0,108200
16,350333	0,5	0,114650
16,358667	0,5	0,125350
16,367000	0,5	0,137250
16,375333	0,5	0,140650
16,383667	0,5	0,150550
16,392000	0,5	0,156750
16,400333	0,5	0,166750
16,408667	0,5	0,178650
16,417000	0,5	0,187600
16,425333	0,5	0,199200
16,433667	0,5	0,216350
16,442000	0,5	0,231450
16,450333	0,5	0,238500
16,458667	0,5	0,255050
16,467000	0,5	0,266750
16,475333	0,5	0,270500
16,483667	0,5	0,256950
16,492000	0,5	0,246150
16,500333	0,5	0,244350
16,508667	0,5	0,245650
16,517000	0,5	0,237050
16,525333	0,5	0,238700
16,533667	0,5	0,236400
16,542000	0,5	0,236700
16,550333	0,5	0,238400
16,558667	0,5	0,237050
16,567000	0,5	0,239850
16,575333	0,5	0,243250
16,583667	0,5	0,250450
16,592000	0,5	0,251800
16,600333	0,5	0,250750
16,608667	0,5	0,266050
16,617000	0,5	0,266850
16,625333	0,5	0,266100
16,633667	0,5	0,260200
16,642000	0,5	0,250900
16,650333	0,5	0,253600
16,658667	0,5	0,250750
16,667000	0,5	0,254600
16,675333	0,5	0,251050
16,683667	0,5	0,255250
16,692000	0,5	0,257350
16,700333	0,5	0,261400
16,708667	0,5	0,271600
16,717000	0,5	0,269850
16,725333	0,5	0,274550
16,733667	0,5	0,280900
16,742000	0,5	0,268200
16,750333	0,5	0,271100
16,758667	0,5	0,272550
16,767000	0,5	0,267600
16,775333	0,5	0,259250
16,783667	0,5	0,241100
16,792000	0,5	0,238750
16,800333	0,5	0,239700
16,808667	0,5	0,240400
16,817000	0,5	0,235500
16,825333	0,5	0,241250
16,833667	0,5	0,240750
16,842000	0,5	0,243300
16,850333	0,5	0,242200
16,858667	0,5	0,248050
16,867000	0,5	0,247600
16,875333	0,5	0,250050
16,883667	0,5	0,247800
16,892000	0,5	0,235200
16,900333	0,5	0,242850
16,908667	0,5	0,246150
16,917000	0,5	0,241700
16,925333	0,5	0,233300
16,933667	0,5	0,219300
16,942000	0,5	0,223450
16,950333	0,5	0,228550
16,958667	0,5	0,222550
16,967000	0,5	0,221250
16,975333	0,5	0,209750
16,983667	0,5	0,212600
16,992000	0,5	0,207050
17,000333	0,5	0,209550
17,008667	0,5	0,203850
17,017000	0,5	0,207350
17,025333	0,5	0,211850
17,033667	0,5	0,215700
17,042000	0,5	0,207400
17,050333	0,5	0,225250
17,058667	0,5	0,220300
17,067000	0,5	0,211200
17,075333	0,5	0,192750
17,083667	0,5	0,169450
17,092000	0,5	0,169350
17,100333	0,5	0,152300
17,108667	0,5	0,140200
17,117000	0,5	0,129200
17,125333	0,5	0,124950
17,133667	0,5	0,111400
17,142000	0,5	0,114050
17,150333	0,5	0,103850
17,158667	0,5	0,098200
17,167000	0,5	0,095400
17,175333	0,5	0,095350
17,183667	0,5	0,081250
17,192000	0,5	0,085200
17,200333	0,5	0,083550
17,208667	0,5	0,075600
17,217000	0,5	0,065350
17,225333	0,5	0,055700
17,233667	0,5	0,052250
17,242000	0,5	0,051550
17,250333	0,5	0,050600
17,258667	0,5	0,045850
17,267000	0,5	0,042750
17,275333	0,5	0,034900
17,283667	0,5	0,038350
17,292000	0,5	0,033200
17,300333	0,5	0,034000
17,308667	0,5	0,024450
17,317000	0,5	0,025500
17,325333	0,5	0,025600
17,333667	0,5	0,013100
17,342000	0,5	0,019700
17,350333	0,5	0,015600
17,358667	0,5	0,013750
17,367000	0,5	0,000850
17,375333	0,5	-0,011100
17,383667	0,5	-0,014650
17,392000	0,5	-0,010100
17,400333	0,5	-0,013050
17,408667	0,5	-0,017250
17,417000	0,5	-0,018500
17,425333	0,5	-0,013800
17,433667	0,5	-0,015850
17,442000	0,5	-0,017700
17,450333	0,5	-0,023250
17,458667	0,5	-0,020550
17,467000	0,5	-0,030550
17,475333	0,5	-0,028950
17,483667	0,5	-0,035750
17,492000	0,5	-0,029050
17,500333	0,5	-0,034650
17,508667	0,5	-0,035450
17,517000	0,5	-0,053250
17,525333	0,5	-0,060700
17,533667	0,5	-0,065300
17,542000	0,5	-0,064950
17,550333	0,5	-0,068100
17,558667	0,5	-0,067300
17,567000	0,5	-0,076700
17,575333	0,5	-0,077000
17,583667	0,5	-0,074800
17,592000	0,5	-0,082400
17,600333	0,5	-0,080850
17,608667	0,5	-0,086250
17,617000	0,5	-0,085200
17,625333	0,5	-0,099050
17,633667	0,5	-0,098500
17,642000	0,5	-0,097450
17,650333	0,5	-0,101800
17,658667	0,5	-0,112000
17,667000	0,5	-0,128100
17,675333	0,5	-0,129850
17,683667	0,5	-0,127850
17,692000	0,5	-0,130750
17,700333	0,5	-0,130600
17,708667	0,5	-0,136000
17,717000	0,5	-0,129450
17,725333	0,5	-0,133400
17,733667	0,5	-0,133850
17,742000	0,5	-0,133700
17,750333	0,5	-0,137200
17,758667	0,5	-0,139750
17,767000	0,5	-0,144600
17,775333	0,5	-0,156150
17,783667	0,5	-0,141450
17,792000	0,5	-0,137600
17,800333	0,5	-0,146000
17,808667	0,5	-0,150800
17,817000	0,5	-0,166600
17,825333	0,5	-0,163600
17,833667	0,5	-0,165300
17,842000	0,5	-0,158700
17,850333	0,5	-0,164350
17,858667	0,5	-0,164000
17,867000	0,5	-0,163650
17,875333	0,5	-0,156500
17,883667	0,5	-0,154750
17,892000	0,5	-0,155000
17,900333	0,5	-0,147500
17,908667	0,5	-0,139450
17,917000	0,5	-0,149250
17,925333	0,5	-0,140750
17,933667	0,5	-0,120950
17,942000	0,5	-0,112700
17,950333	0,5	-0,102700
17,958667	0,5	-0,112650
17,967000	0,5	-0,106200
17,975333	0,5	-0,090200
17,983667	0,5	-0,081300
17,992000	0,5	-0,073850
18,000333	0,5	-0,064650
18,008667	0,5	-0,061450
18,017000	0,5	-0,048900
18,025333	0,5	-0,047350
18,033667	0,5	-0,033950
18,042000	0,5	-0,035000
18,050333	0,5	-0,030400
18,058667	0,5	-0,027000
18,067000	0,5	-0,037250
18,075333	0,5	-0,028550
18,083667	0,5	-0,025750
18,092000	0,5	-0,028400
18,100333	0,5	-0,036450
18,108667	0,5	-0,049250
18,117000	0,5	-0,053250
18,125333	0,5	-0,045100
18,133667	0,5	-0,052700
18,142000	0,5	-0,055050
18,150333	0,5	-0,060350
18,158667	0,5	-0,056500
18,167000	0,5	-0,054500
18,175333	0,5	-0,045600
18,183667	0,5	-0,046050
18,192000	0,5	-0,041550
18,200333	0,5	-0,029950
18,208667	0,5	-0,026450
18,217000	0,5	-0,039650
18,225333	0,5	-0,029250
18,233667	0,5	-0,038050
18,242000	0,5	-0,050950
18,250333	0,5	-0,074900
18,258667	0,5	-0,102400
18,267000	0,5	-0,104050
18,275333	0,5	-0,117950
18,283667	0,5	-0,123900
18,292000	0,5	-0,138650
18,300333	0,5	-0,145350
18,308667	0,5	-0,164750
18,317000	0,5	-0,166950
18,325333	0,5	-0,174350
18,333667	0,5	-0,184050
18,342000	0,5	-0,187400
18,350333	0,5	-0,187500
18,358667	0,5	-0,198600
18,367000	0,5	-0,204900
18,375333	0,5	-0,198200
18,383667	0,5	-0,203300
18,392000	0,5	-0,213400
18,400333	0,5	-0,223000
18,408667	0,5	-0,235550
18,417000	0,5	-0,236350
18,425333	0,5	-0,232350
18,433667	0,5	-0,232800
18,442000	0,5	-0,233650
18,450333	0,5	-0,241300
18,458667	0,5	-0,236800
18,467000	0,5	-0,236700
18,475333	0,5	-0,232950
18,483667	0,5	-0,238550
18,492000	0,5	-0,234250
18,500333	0,5	-0,235150
18,508667	0,5	-0,243900
18,517000	0,5	-0,237450
18,525333	0,5	-0,229500
18,533667	0,5	-0,238600
18,542000	0,5	-0,242350
18,550333	0,5	-0,261550
18,558667	0,5	-0,259300
18,567000	0,5	-0,255950
18,575333	0,5	-0,253900
18,583667	0,5	-0,252450
18,592000	0,5	-0,247650
18,600333	0,5	-0,243750
18,608667	0,5	-0,244600
18,617000	0,5	-0,241700
18,625333	0,5	-0,242950
18,633667	0,5	-0,238300
18,642000	0,5	-0,240450
18,650333	0,5	-0,242250
18,658667	0,5	-0,243050
18,667000	0,5	-0,235550
18,675333	0,5	-0,233200
18,683667	0,5	-0,234200
18,692000	0,5	-0,246700
18,700333	0,5	-0,249950
18,708667	0,5	-0,252450
18,717000	0,5	-0,249700
18,725333	0,5	-0,253450
18,733667	0,5	-0,253500
18,742000	0,5	-0,255150
18,750333	0,5	-0,260150
18,758667	0,5	-0,257500
18,767000	0,5	-0,258150
18,775333	0,5	-0,256950
18,783667	0,5	-0,262000
18,792000	0,5	-0,254300
18,800333	0,5	-0,266500
18,808667	0,5	-0,262000
18,817000	0,5	-0,263000
18,825333	0,5	-0,262650
18,833667	0,5	-0,268550
18,842000	0,5	-0,286150
18,850333	0,5	-0,285600
18,858667	0,5	-0,284050
18,867000	0,5	-0,282750
18,875333	0,5	-0,283700
18,883667	0,5	-0,288550
18,892000	0,5	-0,284600
18,900333	0,5	-0,287050
18,908667	0,5	-0,288550
18,917000	0,5	-0,291550
18,925333	0,5	-0,295900
18,933667	0,5	-0,292650
18,942000	0,5	-0,293550
18,950333	0,5	-0,310800
18,958667	0,5	-0,292750
18,967000	0,5	-0,291050
18,975333	0,5	-0,293600
18,983667	0,5	-0,296350
18,992000	0,5	-0,317800
19,000333	0,5	-0,306800
19,008667	0,5	-0,310050
19,017000	0,5	-0,305200
19,025333	0,5	-0,313650
19,033667	0,5	-0,318850
19,042000	0,5	-0,324300
19,050333	0,5	-0,324350
19,058667	0,5	-0,323950
19,067000	0,5	-0,332500
19,075333	0,5	-0,333700
19,083667	0,5	-0,333200
19,092000	0,5	-0,335650
19,100333	0,5	-0,350350
19,108667	0,5	-0,335200
19,117000	0,5	-0,337100
19,125333	0,5	-0,342500
19,133667	0,5	-0,356550
19,142000	0,5	-0,368950
19,150333	0,5	-0,360750
19,158667	0,5	-0,360750
19,167000	0,5	-0,365500
19,175333	0,5	-0,363250
19,183667	0,5	-0,366950
19,192000	0,5	-0,365550
19,200333	0,5	-0,361400
19,208667	0,5	-0,360400
19,217000	0,5	-0,363200
19,225333	0,5	-0,367000
19,233667	0,5	-0,358750
19,242000	0,5	-0,363350
19,250333	0,5	-0,366750
19,258667	0,5	-0,360900
19,267000	0,5	-0,356200
19,275333	0,5	-0,367400
19,283667	0,5	-0,371400
19,292000	0,5	-0,379550
19,300333	0,5	-0,370900
19,308667	0,5	-0,375400
19,317000	0,5	-0,368200
19,325333	0,5	-0,370750
19,333667	0,5	-0,373500
19,342000	0,5	-0,374050
19,350333	0,5	-0,368100
19,358667	0,5	-0,364050
19,367000	0,5	-0,368850
19,375333	0,5	-0,361300
19,383667	0,5	-0,354400
19,392000	0,5	-0,363500
19,400333	0,5	-0,360750
19,408667	0,5	-0,355800
19,417000	0,5	-0,360150
19,425333	0,5	-0,367650
19,433667	0,5	-0,379350
19,442000	0,5	-0,371400
19,450333	0,5	-0,373900
19,458667	0,5	-0,368450
19,467000	0,5	-0,372050
19,475333	0,5	-0,366850
19,483667	0,5	-0,368800
19,492000	0,5	-0,360750
19,500333	0,5	-0,361750
19,508667	0,5	-0,357400
19,517000	0,5	-0,354350
19,525333	0,5	-0,346150
19,533667	0,5	-0,357400
19,542000	0,5	-0,356100
19,550333	0,5	-0,347200
19,558667	0,5	-0,352900
19,567000	0,5	-0,356900
19,575333	0,5	-0,369300
19,583667	0,5	-0,377350
19,592000	0,5	-0,381300
19,600333	0,5	-0,376250
19,608667	0,5	-0,376800
19,617000	0,5	-0,367350
19,625333	0,5	-0,371950
19,633667	0,5	-0,368700
19,642000	0,5	-0,366550
19,650333	0,5	-0,364700
19,658667	0,5	-0,363950
19,667000	0,5	-0,359550
19,675333	0,5	-0,361700
19,683667	0,5	-0,365850
19,692000	0,5	-0,364100
19,700333	0,5	-0,361600
19,708667	0,5	-0,363600
19,717000	0,5	-0,368650
19,725333	0,5	-0,387750
19,733667	0,5	-0,389000
19,742000	0,5	-0,378650
19,750333	0,5	-0,380100
19,758667	0,5	-0,376150
19,767000	0,5	-0,381050
19,775333	0,5	-0,377300
19,783667	0,5	-0,378250
19,792000	0,5	-0,372000
19,800333	0,5	-0,371800
19,808667	0,5	-0,372200
19,817000	0,5	-0,365800
19,825333	0,5	-0,366650
19,833667	0,5	-0,374850
19,842000	0,5	-0,362000
19,850333	0,5	-0,362200
19,858667	0,5	-0,369600
19,867000	0,5	-0,366950
19,875333	0,5	-0,383000
19,883667	0,5	-0,371000
19,892000	0,5	-0,374850
19,900333	0,5	-0,367750
19,908667	0,5	-0,368050
19,917000	0,5	-0,364800
19,925333	0,5	-0,369150
19,933667	0,5	-0,361250
19,942000	0,5	-0,360600
19,950333	0,5	-0,354950
19,958667	0,5	-0,354700
19,967000	0,5	-0,342500
19,975333	0,5	-0,353000
19,983667	0,5	-0,349600
19,992000	0,5	-0,342100
20,000333	0,5	-0,337950
20,008667	0,5	-0,338900
20,017000	0,5	-0,354600
20,025333	0,5	-0,353800
20,033667	0,5	-0,345850
20,042000	0,5	-0,339750
20,050333	0,5	-0,338550
20,058667	0,5	-0,336450
20,067000	0,5	-0,334900
20,075333	0,5	-0,327950
20,083667	0,5	-0,326550
20,092000	0,5	-0,319650
20,100333	0,5	-0,320050
20,108667	0,5	-0,314700
20,117000	0,5	-0,311200
20,125333	0,5	-0,323850
20,133667	0,5	-0,309750
20,142000	0,5	-0,306900
20,150333	0,5	-0,309050
20,158667	0,5	-0,315950
20,167000	0,5	-0,335600
20,175333	0,5	-0,329450
20,183667	0,5	-0,329200
20,192000	0,5	-0,327750
20,200333	0,5	-0,324550
20,208667	0,5	-0,328100
20,217000	0,5	-0,329600
20,225333	0,5	-0,325400
20,233667	0,5	-0,314850
20,242000	0,5	-0,318850
20,250333	0,5	-0,314550
20,258667	0,5	-0,314600
20,267000	0,5	-0,308550
20,275333	0,5	-0,320200
20,283667	0,5	-0,307150
20,292000	0,5	-0,311600
20,300333	0,5	-0,311450
20,308667	0,5	-0,321900
20,317000	0,5	-0,341000
20,325333	0,5	-0,335100
20,333667	0,5	-0,333250
20,342000	0,5	-0,331950
20,350333	0,5	-0,330750
20,358667	0,5	-0,330050
20,367000	0,5	-0,328100
20,375333	0,5	-0,322650
20,383667	0,5	-0,326300
20,392000	0,5	-0,322150
20,400333	0,5	-0,315150
20,408667	0,5	-0,307450
20,417000	0,5	-0,321050
20,425333	0,5	-0,316050
20,433667	0,5	-0,309100
20,442000	0,5	-0,310050
20,450333	0,5	-0,320350
20,458667	0,5	-0,330800
20,467000	0,5	-0,335900
20,475333	0,5	-0,325450
20,483667	0,5	-0,320600
20,492000	0,5	-0,319900
20,500333	0,5	-0,316700
20,508667	0,5	-0,317800
20,517000	0,5	-0,314800
20,525333	0,5	-0,311550
20,533667	0,5	-0,303600
20,542000	0,5	-0,302450
20,550333	0,5	-0,286200
20,558667	0,5	-0,281350
20,567000	0,5	-0,287050
20,575333	0,5	-0,280900
20,583667	0,5	-0,275950
20,592000	0,5	-0,278800
20,600333	0,5	-0,287850
20,608667	0,5	-0,303050
20,617000	0,5	-0,295750
20,625333	0,5	-0,297250
20,633667	0,5	-0,289250
20,642000	0,5	-0,286250
20,650333	0,5	-0,279100
20,658667	0,5	-0,278150
20,667000	0,5	-0,273300
20,675333	0,5	-0,269050
20,683667	0,5	-0,268850
20,692000	0,5	-0,254900
20,700333	0,5	-0,238150
20,708667	0,5	-0,246150
20,717000	0,5	-0,247900
20,725333	0,5	-0,242500
20,733667	0,5	-0,245050
20,742000	0,5	-0,243950
20,750333	0,5	-0,260850
20,758667	0,5	-0,252650
20,767000	0,5	-0,253400
20,775333	0,5	-0,243250
20,783667	0,5	-0,242800
20,792000	0,5	-0,237100
20,800333	0,5	-0,234000
20,808667	0,5	-0,230550
20,817000	0,5	-0,223250
20,825333	0,5	-0,218050
20,833667	0,5	-0,210600
20,842000	0,5	-0,190800
20,850333	0,5	-0,173550
20,858667	0,5	-0,182200
20,867000	0,5	-0,176850
20,875333	0,5	-0,172800
20,883667	0,5	-0,171700
20,892000	0,5	-0,177850
20,900333	0,5	-0,183900
20,908667	0,5	-0,176950
20,917000	0,5	-0,171550
20,925333	0,5	-0,162800
20,933667	0,5	-0,154400
20,942000	0,5	-0,147550
20,950333	0,5	-0,142500
20,958667	0,5	-0,133350
20,967000	0,5	-0,128000
20,975333	0,5	-0,125050
20,983667	0,5	-0,115950
20,992000	0,5	-0,092850
21,000333	0,5	-0,081450
21,008667	0,5	-0,087950
21,017000	0,5	-0,083500
21,025333	0,5	-0,080700
21,033667	0,5	-0,086850
21,042000	0,5	-0,086500
21,050333	0,5	-0,090500
21,058667	0,5	-0,076050
21,067000	0,5	-0,072850
21,075333	0,5	-0,060650
21,083667	0,5	-0,056700
21,092000	0,5	-0,046750
21,100333	0,5	-0,045750
21,108667	0,5	-0,038350
21,117000	0,5	-0,028450
21,125333	0,5	-0,022700
21,133667	0,5	-0,001700
21,142000	0,5	0,018200
21,150333	0,5	0,023400
21,158667	0,5	0,024100
21,167000	0,5	0,023800
21,175333	0,5	0,022750
21,183667	0,5	0,021400
21,192000	0,5	0,010550
21,200333	0,5	0,017600
21,208667	0,5	0,025850
21,217000	0,5	0,037000
21,225333	0,5	0,039300
21,233667	0,5	0,048300
21,242000	0,5	0,060950
21,250333	0,5	0,068750
21,258667	0,5	0,077850
21,267000	0,5	0,085350
21,275333	0,5	0,098400
21,283667	0,5	0,127400
21,292000	0,5	0,150000
21,300333	0,5	0,153500
21,308667	0,5	0,164750
21,317000	0,5	0,172600
21,325333	0,5	0,188050
21,333667	0,5	0,193300
21,342000	0,5	0,215750
21,350333	0,5	0,239500
21,358667	0,5	0,272350
21,367000	0,5	0,289750
21,375333	0,5	0,299300
21,383667	0,5	0,304150
21,392000	0,5	0,304750
21,400333	0,5	0,301500
21,408667	0,5	0,301700
21,417000	0,5	0,305500
21,425333	0,5	0,325400
21,433667	0,5	0,348050
21,442000	0,5	0,362500
21,450333	0,5	0,363450
21,458667	0,5	0,363700
21,467000	0,5	0,357000
21,475333	0,5	0,347250
21,483667	0,5	0,343450
21,492000	0,5	0,345750
21,500333	0,5	0,348050
21,508667	0,5	0,358200
21,517000	0,5	0,369650
21,525333	0,5	0,377950
21,533667	0,5	0,389050
21,542000	0,5	0,399550
21,550333	0,5	0,416850
21,558667	0,5	0,438150
21,567000	0,5	0,449150
21,575333	0,5	0,485650
21,583667	0,5	0,509400
21,592000	0,5	0,511900
21,600333	0,5	0,518550
21,608667	0,5	0,528500
21,617000	0,5	0,527950
21,625333	0,5	0,530100
21,633667	0,5	0,535850
21,642000	0,5	0,551900
21,650333	0,5	0,566100
21,658667	0,5	0,583200
21,667000	0,5	0,597750
21,675333	0,5	0,616600
21,683667	0,5	0,632700
21,692000	0,5	0,646350
21,700333	0,5	0,665150
21,708667	0,5	0,678300
21,717000	0,5	0,711650
21,725333	0,5	0,736600
21,733667	0,5	0,754400
21,742000	0,5	0,767550
21,750333	0,5	0,781850
21,758667	0,5	0,791350
21,767000	0,5	0,802150
21,775333	0,5	0,804900
21,783667	0,5	0,830350
21,792000	0,5	0,845850
21,800333	0,5	0,864600
21,808667	0,5	0,882800
21,817000	0,5	0,906800
21,825333	0,5	0,925350
21,833667	0,5	0,945800
21,842000	0,5	0,975750
21,850333	0,5	0,995750
21,858667	0,5	1,024650
21,867000	0,5	1,067350
21,875333	0,5	1,100800
21,883667	0,5	1,115500
21,892000	0,5	1,143300
21,900333	0,5	1,175200
21,908667	0,5	1,202850
21,917000	0,5	1,217550
21,925333	0,5	1,236800
21,933667	0,5	1,263700
21,942000	0,5	1,285700
21,950333	0,5	1,301050
21,958667	0,5	1,323450
21,967000	0,5	1,341050
21,975333	0,5	1,358250
21,983667	0,5	1,377300
21,992000	0,5	1,390500
22,000333	0,5	1,411400
22,008667	0,5	1,433900
22,017000	0,5	1,468500
22,025333	0,5	1,480050
22,033667	0,5	1,508450
22,042000	0,5	1,534400
22,050333	0,5	1,559250
22,058667	0,5	1,576300
22,067000	0,5	1,592850
22,075333	0,5	1,616100
22,083667	0,5	1,653350
22,092000	0,5	1,678750
22,100333	0,5	1,713900
22,108667	0,5	1,744600
22,117000	0,5	1,779100
22,125333	0,5	1,813150
22,133667	0,5	1,843950
22,142000	0,5	1,870750
22,150333	0,5	1,905700
22,158667	0,5	1,940400
22,167000	0,5	1,967150
22,175333	0,5	1,993300
22,183667	0,5	2,037500
22,192000	0,5	2,067450
22,200333	0,5	2,101100
22,208667	0,5	2,132750
22,217000	0,5	2,160000
22,225333	0,5	2,205800
22,233667	0,5	2,248650
22,242000	0,5	2,292450
22,250333	0,5	2,332750
22,258667	0,5	2,382100
22,267000	0,5	2,429400
22,275333	0,5	2,477400
22,283667	0,5	2,525200
22,292000	0,5	2,569450
22,300333	0,5	2,616350
22,308667	0,5	2,648550
22,317000	0,5	2,695300
22,325333	0,5	2,746850
22,333667	0,5	2,793750
22,342000	0,5	2,837650
22,350333	0,5	2,876350
22,358667	0,5	2,915450
22,367000	0,5	2,962550
22,375333	0,5	3,009400
22,383667	0,5	3,071950
22,392000	0,5	3,124650
22,400333	0,5	3,191250
22,408667	0,5	3,243600
22,417000	0,5	3,306250
22,425333	0,5	3,363100
22,433667	0,5	3,424550
22,442000	0,5	3,484700
22,450333	0,5	3,521250
22,458667	0,5	3,586800
22,467000	0,5	3,652000
22,475333	0,5	3,722000
22,483667	0,5	3,779850
22,492000	0,5	3,834900
22,500333	0,5	3,875300
22,508667	0,5	3,923850
22,517000	0,5	3,972300
22,525333	0,5	4,033100
22,533667	0,5	4,077100
22,542000	0,5	4,128100
22,550333	0,5	4,174850
22,558667	0,5	4,224900
22,567000	0,5	4,269000
22,575333	0,5	4,305950
22,583667	0,5	4,348450
22,592000	0,5	4,376600
22,600333	0,5	4,393700
22,608667	0,5	4,419400
22,617000	0,5	4,471300
22,625333	0,5	4,501700
22,633667	0,5	4,521450
22,642000	0,5	4,530250
22,650333	0,5	4,526250
22,658667	0,5	4,528200
22,667000	0,5	4,527000
22,675333	0,5	4,517250
22,683667	0,5	4,510800
22,692000	0,5	4,488400
22,700333	0,5	4,471600
22,708667	0,5	4,444450
22,717000	0,5	4,411400
22,725333	0,5	4,373800
22,733667	0,5	4,325700
22,742000	0,5	4,241200
22,750333	0,5	4,179600
22,758667	0,5	4,126550
22,767000	0,5	4,071950
22,775333	0,5	3,997600
22,783667	0,5	3,905500
22,792000	0,5	3,811000
22,800333	0,5	3,700550
22,808667	0,5	3,604600
22,817000	0,5	3,496750
22,825333	0,5	3,390900
22,833667	0,5	3,278500
22,842000	0,5	3,165850
22,850333	0,5	3,055750
22,858667	0,5	2,936900
22,867000	0,5	2,822850
22,875333	0,5	2,700150
22,883667	0,5	2,579600
22,892000	0,5	2,418950
22,900333	0,5	2,309900
22,908667	0,5	2,196050
22,917000	0,5	2,057250
22,925333	0,5	1,923300
22,933667	0,5	1,791400
22,942000	0,5	1,667950
22,950333	0,5	1,532550
22,958667	0,5	1,409450
22,967000	0,5	1,281400
22,975333	0,5	1,169350
22,983667	0,5	1,051050
22,992000	0,5	0,943600
23,000333	0,5	0,830100
23,008667	0,5	0,724850
23,017000	0,5	0,620900
23,025333	0,5	0,516600
23,033667	0,5	0,445950
23,042000	0,5	0,343300
23,050333	0,5	0,244450
23,058667	0,5	0,123650
23,067000	0,5	0,029050
23,075333	0,5	-0,062750
23,083667	0,5	-0,134250
23,092000	0,5	-0,205100
23,100333	0,5	-0,277100
23,108667	0,5	-0,354550
23,117000	0,5	-0,407200
23,125333	0,5	-0,466550
23,133667	0,5	-0,514350
23,142000	0,5	-0,566200
23,150333	0,5	-0,608100
23,158667	0,5	-0,653850
23,167000	0,5	-0,693300
23,175333	0,5	-0,728050
23,183667	0,5	-0,759800
23,192000	0,5	-0,784350
23,200333	0,5	-0,825150
23,208667	0,5	-0,897750
23,217000	0,5	-0,929350
23,225333	0,5	-0,958300
23,233667	0,5	-0,981950
23,242000	0,5	-0,990800
23,250333	0,5	-1,021100
23,258667	0,5	-1,033850
23,267000	0,5	-1,052850
23,275333	0,5	-1,053850
23,283667	0,5	-1,067400
23,292000	0,5	-1,064250
23,300333	0,5	-1,072150
23,308667	0,5	-1,078250
23,317000	0,5	-1,080950
23,325333	0,5	-1,066300
23,333667	0,5	-1,101450
23,342000	0,5	-1,079500
23,350333	0,5	-1,072100
23,358667	0,5	-1,105250
23,367000	0,5	-1,114950
23,375333	0,5	-1,119900
23,383667	0,5	-1,111950
23,392000	0,5	-1,109550
23,400333	0,5	-1,106750
23,408667	0,5	-1,110400
23,417000	0,5	-1,102350
23,425333	0,5	-1,096100
23,433667	0,5	-1,084350
23,442000	0,5	-1,072800
23,450333	0,5	-1,057300
23,458667	0,5	-1,047400
23,467000	0,5	-1,034850
23,475333	0,5	-1,053000
23,483667	0,5	-1,047200
23,492000	0,5	-0,997750
23,500333	0,5	-0,980850
23,508667	0,5	-0,987950
23,517000	0,5	-0,985950
23,525333	0,5	-0,978350
23,533667	0,5	-0,965100
23,542000	0,5	-0,959000
23,550333	0,5	-0,956650
23,558667	0,5	-0,949200
23,567000	0,5	-0,940100
23,575333	0,5	-0,929350
23,583667	0,5	-0,916700
23,592000	0,5	-0,904500
23,600333	0,5	-0,897750
23,608667	0,5	-0,880200
23,617000	0,5	-0,866300
23,625333	0,5	-0,938600
23,633667	0,5	-0,905050
23,642000	0,5	-0,863800
23,650333	0,5	-0,819100
23,658667	0,5	-0,807200
23,667000	0,5	-0,800300
23,675333	0,5	-0,788400
23,683667	0,5	-0,780400
23,692000	0,5	-0,768300
23,700333	0,5	-0,759350
23,708667	0,5	-0,745700
23,717000	0,5	-0,733700
23,725333	0,5	-0,721000
23,733667	0,5	-0,711100
23,742000	0,5	-0,696150
23,750333	0,5	-0,685500
23,758667	0,5	-0,671250
23,767000	0,5	-0,713850
23,775333	0,5	-0,748200
23,783667	0,5	-0,728250
23,792000	0,5	-0,659300
23,800333	0,5	-0,630700
23,808667	0,5	-0,615450
23,817000	0,5	-0,605700
23,825333	0,5	-0,600500
23,833667	0,5	-0,592950
23,842000	0,5	-0,570550
23,850333	0,5	-0,557000
23,858667	0,5	-0,540900
23,867000	0,5	-0,527450
23,875333	0,5	-0,513400
23,883667	0,5	-0,498000
23,892000	0,5	-0,479550
23,900333	0,5	-0,464300
23,908667	0,5	-0,455750
23,917000	0,5	-0,558450
23,925333	0,5	-0,529850
23,933667	0,5	-0,503850
23,942000	0,5	-0,443950
23,950333	0,5	-0,414700
23,958667	0,5	-0,404150
23,967000	0,5	-0,393100
23,975333	0,5	-0,392150
23,983667	0,5	-0,378100
23,992000	0,5	-0,377950
24,000333	0,5	-0,350400
24,008667	0,5	-0,339700
24,017000	0,5	-0,324100
24,025333	0,5	-0,313850
24,033667	0,5	-0,297700
24,042000	0,5	-0,282150
24,050333	0,5	-0,267350
24,058667	0,5	-0,269900
24,067000	0,5	-0,372650
24,075333	0,5	-0,315200
24,083667	0,5	-0,284400
24,092000	0,5	-0,228750
24,100333	0,5	-0,207450
24,108667	0,5	-0,191000
24,117000	0,5	-0,184300
24,125333	0,5	-0,193650
24,133667	0,5	-0,175200
24,142000	0,5	-0,154350
24,150333	0,5	-0,143600
24,158667	0,5	-0,130600
24,167000	0,5	-0,119400
24,175333	0,5	-0,106200
24,183667	0,5	-0,092800
24,192000	0,5	-0,080800
24,200333	0,5	-0,072650
24,208667	0,5	-0,130250
24,217000	0,5	-0,149750
24,225333	0,5	-0,118200
24,233667	0,5	-0,082150
24,242000	0,5	-0,039350
24,250333	0,5	-0,024800
24,258667	0,5	-0,014250
24,267000	0,5	-0,009800
24,275333	0,5	-0,014800
24,283667	0,5	0,008500
24,292000	0,5	0,019700
24,300333	0,5	0,037250
24,308667	0,5	0,043350
24,317000	0,5	0,055850
24,325333	0,5	0,064350
24,333667	0,5	0,079350
24,342000	0,5	0,093850
24,350333	0,5	0,098600
24,358667	0,5	0,032650
24,367000	0,5	0,048000
24,375333	0,5	0,067300
24,383667	0,5	0,101600
24,392000	0,5	0,123750
24,400333	0,5	0,134050
24,408667	0,5	0,139400
24,417000	0,5	0,130250
24,425333	0,5	0,133400
24,433667	0,5	0,141650
24,442000	0,5	0,158300
24,450333	0,5	0,167150
24,458667	0,5	0,176800
24,467000	0,5	0,187300
24,475333	0,5	0,202450
24,483667	0,5	0,211050
24,492000	0,5	0,220100
24,500333	0,5	0,212750
24,508667	0,5	0,166950
24,517000	0,5	0,178550
24,525333	0,5	0,208650
24,533667	0,5	0,231850
24,542000	0,5	0,248650
24,550333	0,5	0,255350
24,558667	0,5	0,254000
24,567000	0,5	0,249450
24,575333	0,5	0,253600
24,583667	0,5	0,262900
24,592000	0,5	0,268700
24,600333	0,5	0,278300
24,608667	0,5	0,277800
24,617000	0,5	0,282100
24,625333	0,5	0,290200
24,633667	0,5	0,299300
24,642000	0,5	0,301300
24,650333	0,5	0,282100
24,658667	0,5	0,271450
24,667000	0,5	0,280100
24,675333	0,5	0,302050
24,683667	0,5	0,321450
24,692000	0,5	0,328500
24,700333	0,5	0,335100
24,708667	0,5	0,326450
24,717000	0,5	0,328950
24,725333	0,5	0,338400
24,733667	0,5	0,343800
24,742000	0,5	0,344750
24,750333	0,5	0,350900
24,758667	0,5	0,352100
24,767000	0,5	0,359550
24,775333	0,5	0,366500
24,783667	0,5	0,367900
24,792000	0,5	0,368300
24,800333	0,5	0,334000
24,808667	0,5	0,346300
24,817000	0,5	0,348250
24,825333	0,5	0,367800
24,833667	0,5	0,372050
24,842000	0,5	0,381300
24,850333	0,5	0,378650
24,858667	0,5	0,374000
24,867000	0,5	0,380450
24,875333	0,5	0,386450
24,883667	0,5	0,387500
24,892000	0,5	0,390850
24,900333	0,5	0,393100
24,908667	0,5	0,391400
24,917000	0,5	0,396050
24,925333	0,5	0,398500
24,933667	0,5	0,402750
24,942000	0,5	0,398000
24,950333	0,5	0,384950
24,958667	0,5	0,392050
24,967000	0,5	0,395150
24,975333	0,5	0,406450
24,983667	0,5	0,406800
24,992000	0,5	0,403850
25,000333	0,5	0,403450
25,008667	0,5	0,397350
25,017000	0,5	0,400950
25,025333	0,5	0,403550
25,033667	0,5	0,408200
25,042000	0,5	0,408300
25,050333	0,5	0,413300
25,058667	0,5	0,413750
25,067000	0,5	0,420200
25,075333	0,5	0,418250
25,083667	0,5	0,421100
25,092000	0,5	0,413950
25,100333	0,5	0,408100
25,108667	0,5	0,414950
25,117000	0,5	0,417450
25,125333	0,5	0,424050
25,133667	0,5	0,425700
25,142000	0,5	0,423250
25,150333	0,5	0,421400
25,158667	0,5	0,415800
25,167000	0,5	0,418650
25,175333	0,5	0,421050
25,183667	0,5	0,419600
25,192000	0,5	0,418500
25,200333	0,5	0,418250
25,208667	0,5	0,418350
25,217000	0,5	0,419050
25,225333	0,5	0,421900
25,233667	0,5	0,419850
25,242000	0,5	0,411500
25,250333	0,5	0,417800
25,258667	0,5	0,418600
25,267000	0,5	0,419350
25,275333	0,5	0,424800
25,283667	0,5	0,422850
25,292000	0,5	0,418300
25,300333	0,5	0,419200
25,308667	0,5	0,416000
25,317000	0,5	0,416100
25,325333	0,5	0,415650
25,333667	0,5	0,415100
25,342000	0,5	0,415850
25,350333	0,5	0,415650
25,358667	0,5	0,412700
25,367000	0,5	0,412100
25,375333	0,5	0,412250
25,383667	0,5	0,413550
25,392000	0,5	0,409000
25,400333	0,5	0,409900
25,408667	0,5	0,409400
25,417000	0,5	0,408850
25,425333	0,5	0,407800
25,433667	0,5	0,411250
25,442000	0,5	0,409550
25,450333	0,5	0,407550
25,458667	0,5	0,407450
25,467000	0,5	0,409450
25,475333	0,5	0,406550
25,483667	0,5	0,406400
25,492000	0,5	0,405900
25,500333	0,5	0,404900
25,508667	0,5	0,402500
25,517000	0,5	0,402550
25,525333	0,5	0,400250
25,533667	0,5	0,400300
25,542000	0,5	0,399850
25,550333	0,5	0,401150
25,558667	0,5	0,399000
25,567000	0,5	0,398650
25,575333	0,5	0,398550
25,583667	0,5	0,397750
25,592000	0,5	0,397300
25,600333	0,5	0,396100
25,608667	0,5	0,398100
25,617000	0,5	0,397050
25,625333	0,5	0,396000
25,633667	0,5	0,394900
25,642000	0,5	0,395850
25,650333	0,5	0,393450
25,658667	0,5	0,394400
25,667000	0,5	0,391400
25,675333	0,5	0,389750
25,683667	0,5	0,390300
25,692000	0,5	0,394000
25,700333	0,5	0,393350
25,708667	0,5	0,388400
25,717000	0,5	0,387350
25,725333	0,5	0,383850
25,733667	0,5	0,384100
25,742000	0,5	0,386800
25,750333	0,5	0,386300
25,758667	0,5	0,385400
25,767000	0,5	0,387700
25,775333	0,5	0,386950
25,783667	0,5	0,387300
25,792000	0,5	0,384600
25,800333	0,5	0,385300
25,808667	0,5	0,383600
25,817000	0,5	0,384500
25,825333	0,5	0,384450
25,833667	0,5	0,389300
25,842000	0,5	0,386550
25,850333	0,5	0,391700
25,858667	0,5	0,378700
25,867000	0,5	0,382000
25,875333	0,5	0,378050
25,883667	0,5	0,380150
25,892000	0,5	0,383350
25,900333	0,5	0,383450
25,908667	0,5	0,378700
25,917000	0,5	0,381600
25,925333	0,5	0,379200
25,933667	0,5	0,377200
25,942000	0,5	0,378900
25,950333	0,5	0,379950
25,958667	0,5	0,380150
25,967000	0,5	0,380350
25,975333	0,5	0,381450
25,983667	0,5	0,383550
25,992000	0,5	0,381550
26,000333	0,5	0,387000
