File Path	chrom://chromeleon01/ikbm_chromeleon/2022/ICS-5000/ED1/Esteban/20220612_Cell_7_4_eg.seq/396.smp/ED_1.channel/ED_1.chm
Channel	ED_1

Injection Information:
Data Vault	ikbm_chromeleon
Injection	7_24h-EGI-pH6_2
Injection Number	20
Position	RB7
Comment	
Processing Method	Stop sequence after Cell Death
Instrument Method	ICS5000_PA200_FullNative_Ox_26min_ED1
Type	Unknown
Status	Finished
Injection Date	13.06.2022
Injection Time	01:05:29
Injection Volume (µl)	5,0
Dilution Factor	1,0000
Weight	1,0000

Chromatogram Data Information:
Time Min. (min)	0,000167
Time Max. (min)	26,000167
Data Points	3121
Detector	EDet1
Generating Data System	Chromeleon 7.2.9.11323
Exporting Data System	Chromeleon 7.2.9.0
Operator	Instrument Controller
Signal Quantity	
Signal Unit	nC
Signal Min.	-1,556000
Signal Max.	2 461,331237
Channel	ED_1
Driver Name	DC-5000
Channel Type	Evaluation
Min. Step (s)	0,5
Max. Step (s)	0,5
Average Step (s)	0,5

Signal Parameter Information:
Signal Info	

Chromatogram Data:
Time (min)	Step (s)	Value (nC)
0,000167	n.a.	0,015050
0,008500	0,5	-0,040350
0,016833	0,5	-0,033350
0,025167	0,5	-0,026100
0,033500	0,5	-0,019450
0,041833	0,5	0,002100
0,050167	0,5	0,011300
0,058500	0,5	0,016400
0,066833	0,5	0,012350
0,075167	0,5	0,021500
0,083500	0,5	0,018000
0,091833	0,5	0,019400
0,100167	0,5	0,012300
0,108500	0,5	0,015350
0,116833	0,5	0,011800
0,125167	0,5	0,014800
0,133500	0,5	0,000750
0,141833	0,5	0,008950
0,150167	0,5	0,012750
0,158500	0,5	0,001500
0,166833	0,5	-0,001500
0,175167	0,5	0,007650
0,183500	0,5	0,022850
0,191833	0,5	0,031100
0,200167	0,5	0,031450
0,208500	0,5	0,024550
0,216833	0,5	0,028350
0,225167	0,5	0,025500
0,233500	0,5	0,024200
0,241833	0,5	0,019400
0,250167	0,5	0,019800
0,258500	0,5	0,015500
0,266833	0,5	0,024450
0,275167	0,5	0,018600
0,283500	0,5	0,011000
0,291833	0,5	0,029300
0,300167	0,5	0,051600
0,308500	0,5	0,055400
0,316833	0,5	0,039000
0,325167	0,5	0,011950
0,333500	0,5	0,013450
0,341833	0,5	0,012950
0,350167	0,5	0,013150
0,358500	0,5	0,014850
0,366833	0,5	0,022800
0,375167	0,5	0,020500
0,383500	0,5	0,019800
0,391833	0,5	0,016450
0,400167	0,5	0,011750
0,408500	0,5	0,017250
0,416833	0,5	0,014000
0,425167	0,5	0,016900
0,433500	0,5	0,001650
0,441833	0,5	0,021850
0,450167	0,5	0,005150
0,458500	0,5	0,008250
0,466833	0,5	0,005750
0,475167	0,5	0,011350
0,483500	0,5	0,029200
0,491833	0,5	0,028150
0,500167	0,5	0,017200
0,508500	0,5	0,025850
0,516833	0,5	0,022050
0,525167	0,5	0,025050
0,533500	0,5	0,028050
0,541833	0,5	0,023200
0,550167	0,5	0,026550
0,558500	0,5	0,030950
0,566833	0,5	0,030200
0,575167	0,5	0,010750
0,583500	0,5	0,009800
0,591833	0,5	0,029700
0,600167	0,5	0,015000
0,608500	0,5	0,014550
0,616833	0,5	0,021300
0,625167	0,5	0,023300
0,633500	0,5	0,050200
0,641833	0,5	0,033850
0,650167	0,5	0,044200
0,658500	0,5	0,040100
0,666833	0,5	0,047000
0,675167	0,5	0,039800
0,683500	0,5	0,040000
0,691833	0,5	0,036950
0,700167	0,5	0,038350
0,708500	0,5	0,041000
0,716833	0,5	0,040200
0,725167	0,5	0,033400
0,733500	0,5	0,037750
0,741833	0,5	0,048700
0,750167	0,5	0,033450
0,758500	0,5	0,036500
0,766833	0,5	0,036200
0,775167	0,5	0,049750
0,783500	0,5	0,068150
0,791833	0,5	0,068400
0,800167	0,5	0,060350
0,808500	0,5	0,064500
0,816833	0,5	0,059350
0,825167	0,5	0,065100
0,833500	0,5	0,060750
0,841833	0,5	0,063200
0,850167	0,5	0,063350
0,858500	0,5	0,067350
0,866833	0,5	0,064900
0,875167	0,5	0,060550
0,883500	0,5	0,069100
0,891833	0,5	0,071500
0,900167	0,5	0,059850
0,908500	0,5	0,059600
0,916833	0,5	0,067400
0,925167	0,5	0,077900
0,933500	0,5	0,100500
0,941833	0,5	0,092750
0,950167	0,5	0,093200
0,958500	0,5	0,090950
0,966833	0,5	0,094550
0,975167	0,5	0,089450
0,983500	0,5	0,094400
0,991833	0,5	0,089800
1,000167	0,5	0,093050
1,008500	0,5	0,090400
1,016833	0,5	0,087200
1,025167	0,5	0,085500
1,033500	0,5	0,106450
1,041833	0,5	0,092000
1,050167	0,5	0,083650
1,058500	0,5	0,090050
1,066833	0,5	0,096150
1,075167	0,5	0,113350
1,083500	0,5	0,120350
1,091833	0,5	0,121100
1,100167	0,5	0,121450
1,108500	0,5	0,122700
1,116833	0,5	0,119750
1,125167	0,5	0,124250
1,133500	0,5	0,121800
1,141833	0,5	0,124500
1,150167	0,5	0,118250
1,158500	0,5	0,121350
1,166833	0,5	0,105250
1,175167	0,5	0,116550
1,183500	0,5	0,117450
1,191833	0,5	0,114550
1,200167	0,5	0,107700
1,208500	0,5	0,116000
1,216833	0,5	0,124950
1,225167	0,5	0,144550
1,233500	0,5	0,143600
1,241833	0,5	0,135650
1,250167	0,5	0,134850
1,258500	0,5	0,138000
1,266833	0,5	0,134350
1,275167	0,5	0,132250
1,283500	0,5	0,131800
1,291833	0,5	0,126350
1,300167	0,5	0,127650
1,308500	0,5	0,123650
1,316833	0,5	0,117550
1,325167	0,5	0,128750
1,333500	0,5	0,127650
1,341833	0,5	0,112600
1,350167	0,5	0,112500
1,358500	0,5	0,110800
1,366833	0,5	0,124700
1,375167	0,5	0,125950
1,383500	0,5	0,125000
1,391833	0,5	0,119700
1,400167	0,5	0,121500
1,408500	0,5	0,116600
1,416833	0,5	0,117350
1,425167	0,5	0,110750
1,433500	0,5	0,104700
1,441833	0,5	0,102400
1,450167	0,5	0,099550
1,458500	0,5	0,104750
1,466833	0,5	0,087550
1,475167	0,5	0,111300
1,483500	0,5	0,091450
1,491833	0,5	0,085950
1,500167	0,5	0,080550
1,508500	0,5	0,086100
1,516833	0,5	0,097000
1,525167	0,5	0,093150
1,533500	0,5	0,078200
1,541833	0,5	0,079600
1,550167	0,5	0,074900
1,558500	0,5	0,084350
1,566833	0,5	0,104700
1,575167	0,5	0,164850
1,583500	0,5	0,457100
1,591833	0,5	2,802050
1,600167	0,5	14,452650
1,608500	0,5	57,588951
1,616833	0,5	190,586703
1,625167	0,5	494,916257
1,633500	0,5	933,300614
1,641833	0,5	1 294,519669
1,650167	0,5	1 383,862371
1,658500	0,5	1 199,606418
1,666833	0,5	893,426013
1,675167	0,5	621,435809
1,683500	0,5	431,775006
1,691833	0,5	312,448305
1,700167	0,5	239,049804
1,708500	0,5	198,898503
1,716833	0,5	174,958403
1,725167	0,5	153,454552
1,733500	0,5	130,524802
1,741833	0,5	110,083952
1,750167	0,5	96,500651
1,758500	0,5	90,782651
1,766833	0,5	90,684651
1,775167	0,5	92,633751
1,783500	0,5	93,374801
1,791833	0,5	90,981001
1,800167	0,5	85,432401
1,808500	0,5	78,349101
1,816833	0,5	71,423951
1,825167	0,5	65,584601
1,833500	0,5	61,434351
1,841833	0,5	59,861551
1,850167	0,5	61,615301
1,858500	0,5	65,327201
1,866833	0,5	67,718801
1,875167	0,5	70,304801
1,883500	0,5	83,288901
1,891833	0,5	126,111152
1,900167	0,5	241,016954
1,908500	0,5	485,070657
1,916833	0,5	799,171212
1,925167	0,5	960,478364
1,933500	0,5	868,267363
1,941833	0,5	641,070960
1,950167	0,5	429,133906
1,958500	0,5	287,728004
1,966833	0,5	206,795203
1,975167	0,5	164,592352
1,983500	0,5	140,875302
1,991833	0,5	122,163202
2,000167	0,5	106,262352
2,008500	0,5	94,252701
2,016833	0,5	84,073751
2,025167	0,5	74,528001
2,033500	0,5	67,216301
2,041833	0,5	63,081201
2,050167	0,5	61,139451
2,058500	0,5	60,234751
2,066833	0,5	60,787001
2,075167	0,5	61,868801
2,083500	0,5	59,981951
2,091833	0,5	54,329751
2,100167	0,5	47,930651
2,108500	0,5	42,998601
2,116833	0,5	39,604951
2,125167	0,5	37,286701
2,133500	0,5	35,751201
2,141833	0,5	34,676551
2,150167	0,5	33,845651
2,158500	0,5	33,235950
2,166833	0,5	32,763000
2,175167	0,5	32,340000
2,183500	0,5	32,506950
2,191833	0,5	35,396051
2,200167	0,5	40,169451
2,208500	0,5	39,294601
2,216833	0,5	33,748851
2,225167	0,5	29,830000
2,233500	0,5	28,037900
2,241833	0,5	27,342450
2,250167	0,5	27,159100
2,258500	0,5	27,240150
2,266833	0,5	27,451200
2,275167	0,5	27,922750
2,283500	0,5	29,079000
2,291833	0,5	31,617050
2,300167	0,5	35,897601
2,308500	0,5	41,906901
2,316833	0,5	51,883351
2,325167	0,5	73,421751
2,333500	0,5	112,205302
2,341833	0,5	169,463103
2,350167	0,5	265,461354
2,358500	0,5	532,411758
2,366833	0,5	1 228,847468
2,375167	0,5	1 558,339823
2,383500	0,5	2 397,980286
2,391833	0,5	2 461,331237
2,400167	0,5	2 345,089635
2,408500	0,5	2 115,636732
2,416833	0,5	1 823,479277
2,425167	0,5	1 522,397673
2,433500	0,5	1 254,920019
2,441833	0,5	1 023,209865
2,450167	0,5	824,373562
2,458500	0,5	660,703110
2,466833	0,5	534,451858
2,475167	0,5	446,485157
2,483500	0,5	387,984106
2,491833	0,5	350,647705
2,500167	0,5	321,331555
2,508500	0,5	289,559354
2,516833	0,5	251,743604
2,525167	0,5	211,660453
2,533500	0,5	175,099953
2,541833	0,5	145,565702
2,550167	0,5	123,503452
2,558500	0,5	107,583402
2,566833	0,5	96,172901
2,575167	0,5	87,983251
2,583500	0,5	82,113501
2,591833	0,5	78,059801
2,600167	0,5	75,267251
2,608500	0,5	73,017901
2,616833	0,5	70,433101
2,625167	0,5	67,034201
2,633500	0,5	62,887751
2,641833	0,5	58,531751
2,650167	0,5	54,518451
2,658500	0,5	51,263901
2,666833	0,5	48,767751
2,675167	0,5	47,029801
2,683500	0,5	45,900851
2,691833	0,5	45,535601
2,700167	0,5	46,545051
2,708500	0,5	49,873851
2,716833	0,5	55,927151
2,725167	0,5	62,935301
2,733500	0,5	67,375301
2,741833	0,5	66,822901
2,750167	0,5	61,774451
2,758500	0,5	54,427101
2,766833	0,5	46,961101
2,775167	0,5	40,743151
2,783500	0,5	36,172951
2,791833	0,5	32,947250
2,800167	0,5	30,633900
2,808500	0,5	28,840050
2,816833	0,5	27,341700
2,825167	0,5	26,049750
2,833500	0,5	24,931400
2,841833	0,5	23,963900
2,850167	0,5	23,134100
2,858500	0,5	22,374500
2,866833	0,5	21,673100
2,875167	0,5	21,028700
2,883500	0,5	20,466400
2,891833	0,5	20,005000
2,900167	0,5	19,618750
2,908500	0,5	19,247100
2,916833	0,5	18,827150
2,925167	0,5	18,393450
2,933500	0,5	17,975750
2,941833	0,5	17,628450
2,950167	0,5	17,326850
2,958500	0,5	16,999250
2,966833	0,5	16,643450
2,975167	0,5	16,321250
2,983500	0,5	16,040950
2,991833	0,5	15,828550
3,000167	0,5	15,659050
3,008500	0,5	15,539850
3,016833	0,5	15,453100
3,025167	0,5	15,398600
3,033500	0,5	15,324450
3,041833	0,5	15,252050
3,050167	0,5	15,286450
3,058500	0,5	15,544900
3,066833	0,5	16,015550
3,075167	0,5	16,494050
3,083500	0,5	16,743350
3,091833	0,5	16,612650
3,100167	0,5	16,112400
3,108500	0,5	15,349800
3,116833	0,5	14,533350
3,125167	0,5	13,794000
3,133500	0,5	13,198700
3,141833	0,5	12,738100
3,150167	0,5	12,384450
3,158500	0,5	12,096700
3,166833	0,5	11,863500
3,175167	0,5	11,652800
3,183500	0,5	11,469250
3,191833	0,5	11,288950
3,200167	0,5	11,109450
3,208500	0,5	10,920050
3,216833	0,5	10,730200
3,225167	0,5	10,555200
3,233500	0,5	10,402500
3,241833	0,5	10,317700
3,250167	0,5	10,276550
3,258500	0,5	10,262800
3,266833	0,5	10,285200
3,275167	0,5	10,334450
3,283500	0,5	10,391800
3,291833	0,5	10,452800
3,300167	0,5	10,505250
3,308500	0,5	10,600500
3,316833	0,5	10,748900
3,325167	0,5	11,008350
3,333500	0,5	11,436150
3,341833	0,5	12,138500
3,350167	0,5	13,198450
3,358500	0,5	14,682400
3,366833	0,5	16,587950
3,375167	0,5	18,820650
3,383500	0,5	21,260150
3,391833	0,5	23,914700
3,400167	0,5	26,929500
3,408500	0,5	30,882550
3,416833	0,5	36,542551
3,425167	0,5	44,520201
3,433500	0,5	54,679601
3,441833	0,5	65,638351
3,450167	0,5	75,095851
3,458500	0,5	80,687001
3,466833	0,5	81,014551
3,475167	0,5	76,096651
3,483500	0,5	67,293951
3,491833	0,5	56,526451
3,500167	0,5	45,712251
3,508500	0,5	36,199501
3,516833	0,5	28,693050
3,525167	0,5	23,282850
3,533500	0,5	19,689300
3,541833	0,5	17,468350
3,550167	0,5	16,108950
3,558500	0,5	15,242650
3,566833	0,5	14,596350
3,575167	0,5	14,034700
3,583500	0,5	13,545250
3,591833	0,5	13,120350
3,600167	0,5	12,820250
3,608500	0,5	12,656850
3,616833	0,5	12,595950
3,625167	0,5	12,584150
3,633500	0,5	12,563250
3,641833	0,5	12,470200
3,650167	0,5	12,278100
3,658500	0,5	11,994100
3,666833	0,5	11,633500
3,675167	0,5	11,250400
3,683500	0,5	10,847000
3,691833	0,5	10,488900
3,700167	0,5	10,126600
3,708500	0,5	9,812800
3,716833	0,5	9,522600
3,725167	0,5	9,258550
3,733500	0,5	9,018700
3,741833	0,5	8,787600
3,750167	0,5	8,599550
3,758500	0,5	8,477250
3,766833	0,5	8,435350
3,775167	0,5	8,500750
3,783500	0,5	8,676550
3,791833	0,5	8,941450
3,800167	0,5	9,243300
3,808500	0,5	9,493450
3,816833	0,5	9,621000
3,825167	0,5	9,548650
3,833500	0,5	9,301400
3,841833	0,5	8,905350
3,850167	0,5	8,423350
3,858500	0,5	7,948600
3,866833	0,5	7,528850
3,875167	0,5	7,183800
3,883500	0,5	6,923000
3,891833	0,5	6,716050
3,900167	0,5	6,562350
3,908500	0,5	6,441300
3,916833	0,5	6,347150
3,925167	0,5	6,272150
3,933500	0,5	6,217000
3,941833	0,5	6,174300
3,950167	0,5	6,147950
3,958500	0,5	6,135650
3,966833	0,5	6,120900
3,975167	0,5	6,124500
3,983500	0,5	6,135900
3,991833	0,5	6,141900
4,000167	0,5	6,136450
4,008500	0,5	6,136150
4,016833	0,5	6,126300
4,025167	0,5	6,116150
4,033500	0,5	6,090400
4,041833	0,5	6,054400
4,050167	0,5	6,012150
4,058500	0,5	5,979650
4,066833	0,5	5,946750
4,075167	0,5	5,934500
4,083500	0,5	5,933800
4,091833	0,5	5,962400
4,100167	0,5	6,006500
4,108500	0,5	6,071850
4,116833	0,5	6,155000
4,125167	0,5	6,248500
4,133500	0,5	6,339350
4,141833	0,5	6,409400
4,150167	0,5	6,464850
4,158500	0,5	6,510000
4,166833	0,5	6,554400
4,175167	0,5	6,594400
4,183500	0,5	6,654200
4,191833	0,5	6,735350
4,200167	0,5	6,884850
4,208500	0,5	7,091800
4,216833	0,5	7,369850
4,225167	0,5	7,682050
4,233500	0,5	7,987950
4,241833	0,5	8,228100
4,250167	0,5	8,350600
4,258500	0,5	8,318950
4,266833	0,5	8,131750
4,275167	0,5	7,837650
4,283500	0,5	7,470900
4,291833	0,5	7,077500
4,300167	0,5	6,715100
4,308500	0,5	6,418400
4,316833	0,5	6,195700
4,325167	0,5	6,044500
4,333500	0,5	5,940250
4,341833	0,5	5,904650
4,350167	0,5	5,901550
4,358500	0,5	5,931350
4,366833	0,5	5,969200
4,375167	0,5	6,005350
4,383500	0,5	6,009700
4,391833	0,5	5,993450
4,400167	0,5	5,950650
4,408500	0,5	5,889900
4,416833	0,5	5,815000
4,425167	0,5	5,764900
4,433500	0,5	5,696950
4,441833	0,5	5,635550
4,450167	0,5	5,574400
4,458500	0,5	5,520550
4,466833	0,5	5,471850
4,475167	0,5	5,412300
4,483500	0,5	5,342200
4,491833	0,5	5,267000
4,500167	0,5	5,191000
4,508500	0,5	5,108800
4,516833	0,5	5,035300
4,525167	0,5	4,959750
4,533500	0,5	4,895250
4,541833	0,5	4,830400
4,550167	0,5	4,785750
4,558500	0,5	4,734100
4,566833	0,5	4,693550
4,575167	0,5	4,661350
4,583500	0,5	4,612750
4,591833	0,5	4,567450
4,600167	0,5	4,526500
4,608500	0,5	4,493650
4,616833	0,5	4,470600
4,625167	0,5	4,436900
4,633500	0,5	4,412450
4,641833	0,5	4,390750
4,650167	0,5	4,379250
4,658500	0,5	4,367700
4,666833	0,5	4,366000
4,675167	0,5	4,367600
4,683500	0,5	4,380700
4,691833	0,5	4,414150
4,700167	0,5	4,466850
4,708500	0,5	4,546350
4,716833	0,5	4,648500
4,725167	0,5	4,792050
4,733500	0,5	4,933850
4,741833	0,5	5,095050
4,750167	0,5	5,242250
4,758500	0,5	5,366450
4,766833	0,5	5,456150
4,775167	0,5	5,472000
4,783500	0,5	5,432700
4,791833	0,5	5,352800
4,800167	0,5	5,237650
4,808500	0,5	5,111800
4,816833	0,5	4,987150
4,825167	0,5	4,879850
4,833500	0,5	4,806900
4,841833	0,5	4,777850
4,850167	0,5	4,796850
4,858500	0,5	4,859450
4,866833	0,5	4,976400
4,875167	0,5	5,123450
4,883500	0,5	5,282900
4,891833	0,5	5,449850
4,900167	0,5	5,599550
4,908500	0,5	5,705650
4,916833	0,5	5,766450
4,925167	0,5	5,749250
4,933500	0,5	5,671750
4,941833	0,5	5,533400
4,950167	0,5	5,356500
4,958500	0,5	5,145400
4,966833	0,5	4,928150
4,975167	0,5	4,706850
4,983500	0,5	4,505200
4,991833	0,5	4,324150
5,000167	0,5	4,160300
5,008500	0,5	4,031350
5,016833	0,5	3,938500
5,025167	0,5	3,862100
5,033500	0,5	3,802100
5,041833	0,5	3,765900
5,050167	0,5	3,744050
5,058500	0,5	3,740900
5,066833	0,5	3,729750
5,075167	0,5	3,725800
5,083500	0,5	3,713900
5,091833	0,5	3,715300
5,100167	0,5	3,703100
5,108500	0,5	3,700250
5,116833	0,5	3,690050
5,125167	0,5	3,686850
5,133500	0,5	3,695300
5,141833	0,5	3,710000
5,150167	0,5	3,733900
5,158500	0,5	3,782100
5,166833	0,5	3,844250
5,175167	0,5	3,903100
5,183500	0,5	3,959150
5,191833	0,5	4,016600
5,200167	0,5	4,066400
5,208500	0,5	4,098100
5,216833	0,5	4,104550
5,225167	0,5	4,095350
5,233500	0,5	4,076300
5,241833	0,5	4,046500
5,250167	0,5	4,023700
5,258500	0,5	4,007050
5,266833	0,5	4,005250
5,275167	0,5	4,020150
5,283500	0,5	4,066650
5,291833	0,5	4,131600
5,300167	0,5	4,212650
5,308500	0,5	4,314100
5,316833	0,5	4,413350
5,325167	0,5	4,492800
5,333500	0,5	4,563550
5,341833	0,5	4,616000
5,350167	0,5	4,664350
5,358500	0,5	4,689650
5,366833	0,5	4,698450
5,375167	0,5	4,714050
5,383500	0,5	4,731700
5,391833	0,5	4,749600
5,400167	0,5	4,762800
5,408500	0,5	4,773700
5,416833	0,5	4,760250
5,425167	0,5	4,740950
5,433500	0,5	4,697100
5,441833	0,5	4,638000
5,450167	0,5	4,550200
5,458500	0,5	4,464050
5,466833	0,5	4,345250
5,475167	0,5	4,229150
5,483500	0,5	4,105950
5,491833	0,5	3,994750
5,500167	0,5	3,909000
5,508500	0,5	3,825000
5,516833	0,5	3,763050
5,525167	0,5	3,725350
5,533500	0,5	3,711050
5,541833	0,5	3,709100
5,550167	0,5	3,725300
5,558500	0,5	3,741450
5,566833	0,5	3,768100
5,575167	0,5	3,795550
5,583500	0,5	3,826850
5,591833	0,5	3,848650
5,600167	0,5	3,870250
5,608500	0,5	3,894500
5,616833	0,5	3,909200
5,625167	0,5	3,918650
5,633500	0,5	3,934750
5,641833	0,5	3,953950
5,650167	0,5	3,982150
5,658500	0,5	3,995650
5,666833	0,5	4,014450
5,675167	0,5	4,022350
5,683500	0,5	4,026050
5,691833	0,5	4,011400
5,700167	0,5	3,984850
5,708500	0,5	3,936250
5,716833	0,5	3,874750
5,725167	0,5	3,807800
5,733500	0,5	3,735650
5,741833	0,5	3,671550
5,750167	0,5	3,622200
5,758500	0,5	3,598850
5,766833	0,5	3,590550
5,775167	0,5	3,620200
5,783500	0,5	3,672000
5,791833	0,5	3,751400
5,800167	0,5	3,827700
5,808500	0,5	3,894950
5,816833	0,5	3,941650
5,825167	0,5	3,958650
5,833500	0,5	3,933250
5,841833	0,5	3,881200
5,850167	0,5	3,794600
5,858500	0,5	3,693550
5,866833	0,5	3,594500
5,875167	0,5	3,501050
5,883500	0,5	3,421850
5,891833	0,5	3,366400
5,900167	0,5	3,337550
5,908500	0,5	3,332500
5,916833	0,5	3,349350
5,925167	0,5	3,407000
5,933500	0,5	3,497350
5,941833	0,5	3,634250
5,950167	0,5	3,810150
5,958500	0,5	4,012100
5,966833	0,5	4,237300
5,975167	0,5	4,454300
5,983500	0,5	4,651100
5,991833	0,5	4,795650
6,000167	0,5	4,879350
6,008500	0,5	4,878750
6,016833	0,5	4,812900
6,025167	0,5	4,686300
6,033500	0,5	4,524950
6,041833	0,5	4,357150
6,050167	0,5	4,214750
6,058500	0,5	4,098000
6,066833	0,5	4,036500
6,075167	0,5	4,043900
6,083500	0,5	4,119800
6,091833	0,5	4,252500
6,100167	0,5	4,417650
6,108500	0,5	4,585950
6,116833	0,5	4,732050
6,125167	0,5	4,858200
6,133500	0,5	4,971050
6,141833	0,5	5,120100
6,150167	0,5	5,342600
6,158500	0,5	5,707050
6,166833	0,5	6,236350
6,175167	0,5	6,951350
6,183500	0,5	7,825150
6,191833	0,5	8,828350
6,200167	0,5	9,852550
6,208500	0,5	10,785600
6,216833	0,5	11,531900
6,225167	0,5	12,033100
6,233500	0,5	12,274450
6,241833	0,5	12,276700
6,250167	0,5	12,103700
6,258500	0,5	11,895700
6,266833	0,5	11,838950
6,275167	0,5	12,173150
6,283500	0,5	13,086750
6,291833	0,5	14,624650
6,300167	0,5	16,612250
6,308500	0,5	18,598250
6,316833	0,5	20,033650
6,325167	0,5	20,458300
6,333500	0,5	19,746350
6,341833	0,5	18,093800
6,350167	0,5	15,864600
6,358500	0,5	13,476300
6,366833	0,5	11,279200
6,375167	0,5	9,475350
6,383500	0,5	8,158200
6,391833	0,5	7,310800
6,400167	0,5	6,899500
6,408500	0,5	6,888250
6,416833	0,5	6,957700
6,425167	0,5	6,727200
6,433500	0,5	6,285500
6,441833	0,5	5,649600
6,450167	0,5	5,013850
6,458500	0,5	4,494100
6,466833	0,5	4,108650
6,475167	0,5	3,798100
6,483500	0,5	3,559050
6,491833	0,5	3,405050
6,500167	0,5	3,282150
6,508500	0,5	3,186150
6,516833	0,5	3,104700
6,525167	0,5	3,031500
6,533500	0,5	2,977750
6,541833	0,5	2,924050
6,550167	0,5	2,872850
6,558500	0,5	2,833900
6,566833	0,5	2,800950
6,575167	0,5	2,775650
6,583500	0,5	2,752100
6,591833	0,5	2,733750
6,600167	0,5	2,716600
6,608500	0,5	2,706200
6,616833	0,5	2,697500
6,625167	0,5	2,687450
6,633500	0,5	2,681150
6,641833	0,5	2,685150
6,650167	0,5	2,677000
6,658500	0,5	2,677950
6,666833	0,5	2,679850
6,675167	0,5	2,685250
6,683500	0,5	2,702300
6,691833	0,5	2,705800
6,700167	0,5	2,714500
6,708500	0,5	2,720300
6,716833	0,5	2,730100
6,725167	0,5	2,733750
6,733500	0,5	2,742150
6,741833	0,5	2,750550
6,750167	0,5	2,761900
6,758500	0,5	2,771700
6,766833	0,5	2,779900
6,775167	0,5	2,792750
6,783500	0,5	2,804750
6,791833	0,5	2,818300
6,800167	0,5	2,826250
6,808500	0,5	2,840550
6,816833	0,5	2,856850
6,825167	0,5	2,876100
6,833500	0,5	2,897700
6,841833	0,5	2,915500
6,850167	0,5	2,927000
6,858500	0,5	2,946400
6,866833	0,5	2,961200
6,875167	0,5	2,978050
6,883500	0,5	2,990750
6,891833	0,5	3,005650
6,900167	0,5	3,018050
6,908500	0,5	3,030400
6,916833	0,5	3,045450
6,925167	0,5	3,055800
6,933500	0,5	3,057900
6,941833	0,5	3,062900
6,950167	0,5	3,061650
6,958500	0,5	3,062150
6,966833	0,5	3,059700
6,975167	0,5	3,056900
6,983500	0,5	3,054450
6,991833	0,5	3,044450
7,000167	0,5	3,034350
7,008500	0,5	3,023250
7,016833	0,5	3,003350
7,025167	0,5	2,985800
7,033500	0,5	2,967950
7,041833	0,5	2,948600
7,050167	0,5	2,932850
7,058500	0,5	2,911800
7,066833	0,5	2,892250
7,075167	0,5	2,876200
7,083500	0,5	2,868050
7,091833	0,5	2,853150
7,100167	0,5	2,842050
7,108500	0,5	2,830450
7,116833	0,5	2,831200
7,125167	0,5	2,841000
7,133500	0,5	2,841700
7,141833	0,5	2,848300
7,150167	0,5	2,860350
7,158500	0,5	2,878400
7,166833	0,5	2,899900
7,175167	0,5	2,926450
7,183500	0,5	2,965450
7,191833	0,5	3,007700
7,200167	0,5	3,065000
7,208500	0,5	3,127250
7,216833	0,5	3,194200
7,225167	0,5	3,287650
7,233500	0,5	3,394050
7,241833	0,5	3,515800
7,250167	0,5	3,654550
7,258500	0,5	3,830050
7,266833	0,5	4,038050
7,275167	0,5	4,286750
7,283500	0,5	4,583750
7,291833	0,5	4,942800
7,300167	0,5	5,380450
7,308500	0,5	5,908800
7,316833	0,5	6,534800
7,325167	0,5	7,264650
7,333500	0,5	8,094650
7,341833	0,5	9,013400
7,350167	0,5	9,989850
7,358500	0,5	10,968550
7,366833	0,5	11,895200
7,375167	0,5	12,704800
7,383500	0,5	13,319600
7,391833	0,5	13,682450
7,400167	0,5	13,759150
7,408500	0,5	13,537450
7,416833	0,5	13,037250
7,425167	0,5	12,278200
7,433500	0,5	11,330800
7,441833	0,5	10,263950
7,450167	0,5	9,156600
7,458500	0,5	8,069950
7,466833	0,5	7,061150
7,475167	0,5	6,167250
7,483500	0,5	5,408750
7,491833	0,5	4,791700
7,500167	0,5	4,308550
7,508500	0,5	3,940350
7,516833	0,5	3,669950
7,525167	0,5	3,482550
7,533500	0,5	3,354300
7,541833	0,5	3,266800
7,550167	0,5	3,217650
7,558500	0,5	3,198250
7,566833	0,5	3,201800
7,575167	0,5	3,221050
7,583500	0,5	3,255250
7,591833	0,5	3,312450
7,600167	0,5	3,390900
7,608500	0,5	3,491200
7,616833	0,5	3,610300
7,625167	0,5	3,743750
7,633500	0,5	3,887150
7,641833	0,5	4,031450
7,650167	0,5	4,166000
7,658500	0,5	4,295650
7,666833	0,5	4,419050
7,675167	0,5	4,547900
7,683500	0,5	4,678150
7,691833	0,5	4,820950
7,700167	0,5	4,968800
7,708500	0,5	5,105300
7,716833	0,5	5,198150
7,725167	0,5	5,215400
7,733500	0,5	5,137950
7,741833	0,5	4,962800
7,750167	0,5	4,717100
7,758500	0,5	4,424550
7,766833	0,5	4,137000
7,775167	0,5	3,879750
7,783500	0,5	3,678450
7,791833	0,5	3,535350
7,800167	0,5	3,446800
7,808500	0,5	3,397500
7,816833	0,5	3,372800
7,825167	0,5	3,360350
7,833500	0,5	3,345500
7,841833	0,5	3,317650
7,850167	0,5	3,280000
7,858500	0,5	3,242150
7,866833	0,5	3,201500
7,875167	0,5	3,161200
7,883500	0,5	3,128200
7,891833	0,5	3,107300
7,900167	0,5	3,092850
7,908500	0,5	3,087100
7,916833	0,5	3,080600
7,925167	0,5	3,071900
7,933500	0,5	3,060750
7,941833	0,5	3,034000
7,950167	0,5	3,002350
7,958500	0,5	2,960600
7,966833	0,5	2,911350
7,975167	0,5	2,863800
7,983500	0,5	2,805400
7,991833	0,5	2,754250
8,000167	0,5	2,713350
8,008500	0,5	2,690550
8,016833	0,5	2,684100
8,025167	0,5	2,696800
8,033500	0,5	2,737950
8,041833	0,5	2,808150
8,050167	0,5	2,904400
8,058500	0,5	3,010550
8,066833	0,5	3,117850
8,075167	0,5	3,213650
8,083500	0,5	3,293100
8,091833	0,5	3,370300
8,100167	0,5	3,463150
8,108500	0,5	3,582100
8,116833	0,5	3,756400
8,125167	0,5	3,980050
8,133500	0,5	4,263900
8,141833	0,5	4,604150
8,150167	0,5	5,004550
8,158500	0,5	5,439550
8,166833	0,5	5,907550
8,175167	0,5	6,393600
8,183500	0,5	6,903500
8,191833	0,5	7,478600
8,200167	0,5	8,186200
8,208500	0,5	9,136650
8,216833	0,5	10,438550
8,225167	0,5	12,154950
8,233500	0,5	14,223950
8,241833	0,5	16,412500
8,250167	0,5	18,351800
8,258500	0,5	19,659000
8,266833	0,5	20,038400
8,275167	0,5	19,403050
8,283500	0,5	17,884850
8,291833	0,5	15,783800
8,300167	0,5	13,435100
8,308500	0,5	11,132400
8,316833	0,5	9,072500
8,325167	0,5	7,369700
8,333500	0,5	6,030450
8,341833	0,5	5,030800
8,350167	0,5	4,302700
8,358500	0,5	3,788500
8,366833	0,5	3,435050
8,375167	0,5	3,199950
8,383500	0,5	3,043650
8,391833	0,5	2,946850
8,400167	0,5	2,882750
8,408500	0,5	2,849750
8,416833	0,5	2,828900
8,425167	0,5	2,817350
8,433500	0,5	2,813400
8,441833	0,5	2,827450
8,450167	0,5	2,851700
8,458500	0,5	2,901000
8,466833	0,5	2,962600
8,475167	0,5	3,023400
8,483500	0,5	3,072000
8,491833	0,5	3,092900
8,500167	0,5	3,080150
8,508500	0,5	3,033050
8,516833	0,5	2,974650
8,525167	0,5	2,910900
8,533500	0,5	2,854050
8,541833	0,5	2,806200
8,550167	0,5	2,763650
8,558500	0,5	2,713200
8,566833	0,5	2,659700
8,575167	0,5	2,598000
8,583500	0,5	2,551350
8,591833	0,5	2,524250
8,600167	0,5	2,527850
8,608500	0,5	2,553850
8,616833	0,5	2,589850
8,625167	0,5	2,618650
8,633500	0,5	2,638350
8,641833	0,5	2,654350
8,650167	0,5	2,663300
8,658500	0,5	2,661700
8,666833	0,5	2,655400
8,675167	0,5	2,633400
8,683500	0,5	2,600150
8,691833	0,5	2,553200
8,700167	0,5	2,505300
8,708500	0,5	2,457900
8,716833	0,5	2,430600
8,725167	0,5	2,437950
8,733500	0,5	2,496250
8,741833	0,5	2,598950
8,750167	0,5	2,721650
8,758500	0,5	2,843700
8,766833	0,5	2,910000
8,775167	0,5	2,911500
8,783500	0,5	2,852750
8,791833	0,5	2,753950
8,800167	0,5	2,649250
8,808500	0,5	2,565250
8,816833	0,5	2,504050
8,825167	0,5	2,480100
8,833500	0,5	2,479500
8,841833	0,5	2,502750
8,850167	0,5	2,551000
8,858500	0,5	2,610950
8,866833	0,5	2,682150
8,875167	0,5	2,744450
8,883500	0,5	2,788050
8,891833	0,5	2,804750
8,900167	0,5	2,786750
8,908500	0,5	2,730450
8,916833	0,5	2,655050
8,925167	0,5	2,560800
8,933500	0,5	2,468600
8,941833	0,5	2,388550
8,950167	0,5	2,326250
8,958500	0,5	2,289400
8,966833	0,5	2,272050
8,975167	0,5	2,275600
8,983500	0,5	2,297500
8,991833	0,5	2,344050
9,000167	0,5	2,419400
9,008500	0,5	2,509850
9,016833	0,5	2,598550
9,025167	0,5	2,668900
9,033500	0,5	2,697900
9,041833	0,5	2,683550
9,050167	0,5	2,637400
9,058500	0,5	2,565900
9,066833	0,5	2,488050
9,075167	0,5	2,422850
9,083500	0,5	2,378600
9,091833	0,5	2,363050
9,100167	0,5	2,381950
9,108500	0,5	2,433500
9,116833	0,5	2,508650
9,125167	0,5	2,590200
9,133500	0,5	2,656000
9,141833	0,5	2,689200
9,150167	0,5	2,691050
9,158500	0,5	2,654150
9,166833	0,5	2,598800
9,175167	0,5	2,538150
9,183500	0,5	2,485050
9,191833	0,5	2,441550
9,200167	0,5	2,407550
9,208500	0,5	2,371700
9,216833	0,5	2,338650
9,225167	0,5	2,304300
9,233500	0,5	2,269950
9,241833	0,5	2,234950
9,250167	0,5	2,204750
9,258500	0,5	2,180150
9,266833	0,5	2,162100
9,275167	0,5	2,148800
9,283500	0,5	2,140750
9,291833	0,5	2,136400
9,300167	0,5	2,147150
9,308500	0,5	2,172300
9,316833	0,5	2,216450
9,325167	0,5	2,273300
9,333500	0,5	2,359200
9,341833	0,5	2,471900
9,350167	0,5	2,612800
9,358500	0,5	2,759850
9,366833	0,5	2,897150
9,375167	0,5	2,993600
9,383500	0,5	3,029350
9,391833	0,5	2,995800
9,400167	0,5	2,909600
9,408500	0,5	2,784200
9,416833	0,5	2,639850
9,425167	0,5	2,494950
9,433500	0,5	2,360750
9,441833	0,5	2,243800
9,450167	0,5	2,155300
9,458500	0,5	2,089050
9,466833	0,5	2,041200
9,475167	0,5	2,009500
9,483500	0,5	1,996100
9,491833	0,5	1,999700
9,500167	0,5	2,012950
9,508500	0,5	2,038850
9,516833	0,5	2,072800
9,525167	0,5	2,109400
9,533500	0,5	2,149250
9,541833	0,5	2,196400
9,550167	0,5	2,256900
9,558500	0,5	2,337200
9,566833	0,5	2,433850
9,575167	0,5	2,536500
9,583500	0,5	2,618950
9,591833	0,5	2,671400
9,600167	0,5	2,671100
9,608500	0,5	2,613400
9,616833	0,5	2,527650
9,625167	0,5	2,427250
9,633500	0,5	2,335950
9,641833	0,5	2,272100
9,650167	0,5	2,231800
9,658500	0,5	2,211650
9,666833	0,5	2,208200
9,675167	0,5	2,209100
9,683500	0,5	2,217200
9,691833	0,5	2,231800
9,700167	0,5	2,266250
9,708500	0,5	2,325150
9,716833	0,5	2,430600
9,725167	0,5	2,590850
9,733500	0,5	2,811200
9,741833	0,5	3,068500
9,750167	0,5	3,328550
9,758500	0,5	3,535750
9,766833	0,5	3,663550
9,775167	0,5	3,693150
9,783500	0,5	3,635550
9,791833	0,5	3,514000
9,800167	0,5	3,345100
9,808500	0,5	3,156650
9,816833	0,5	2,961050
9,825167	0,5	2,776150
9,833500	0,5	2,609100
9,841833	0,5	2,469300
9,850167	0,5	2,356500
9,858500	0,5	2,273500
9,866833	0,5	2,224850
9,875167	0,5	2,192250
9,883500	0,5	2,179250
9,891833	0,5	2,177900
9,900167	0,5	2,183450
9,908500	0,5	2,191800
9,916833	0,5	2,210250
9,925167	0,5	2,246000
9,933500	0,5	2,290500
9,941833	0,5	2,339200
9,950167	0,5	2,373800
9,958500	0,5	2,382000
9,966833	0,5	2,363300
9,975167	0,5	2,323800
9,983500	0,5	2,274700
9,991833	0,5	2,236700
10,000167	0,5	2,211250
10,008500	0,5	2,220850
10,016833	0,5	2,272450
10,025167	0,5	2,371050
10,033500	0,5	2,512350
10,041833	0,5	2,683600
10,050167	0,5	2,849700
10,058500	0,5	2,978950
10,066833	0,5	3,046250
10,075167	0,5	3,052650
10,083500	0,5	2,999800
10,091833	0,5	2,913400
10,100167	0,5	2,806650
10,108500	0,5	2,696400
10,116833	0,5	2,591350
10,125167	0,5	2,492000
10,133500	0,5	2,412100
10,141833	0,5	2,347300
10,150167	0,5	2,312500
10,158500	0,5	2,304000
10,166833	0,5	2,324450
10,175167	0,5	2,364100
10,183500	0,5	2,420100
10,191833	0,5	2,489000
10,200167	0,5	2,547850
10,208500	0,5	2,601650
10,216833	0,5	2,639900
10,225167	0,5	2,690300
10,233500	0,5	2,752000
10,241833	0,5	2,864300
10,250167	0,5	3,043250
10,258500	0,5	3,298250
10,266833	0,5	3,550250
10,275167	0,5	3,700200
10,283500	0,5	3,720000
10,291833	0,5	3,637050
10,300167	0,5	3,485050
10,308500	0,5	3,316650
10,316833	0,5	3,188100
10,325167	0,5	3,149700
10,333500	0,5	3,258150
10,341833	0,5	3,608100
10,350167	0,5	4,588000
10,358500	0,5	6,535000
10,366833	0,5	8,321350
10,375167	0,5	8,770200
10,383500	0,5	8,420500
10,391833	0,5	7,500250
10,400167	0,5	5,870650
10,408500	0,5	4,079300
10,416833	0,5	2,756750
10,425167	0,5	1,989550
10,433500	0,5	1,567900
10,441833	0,5	1,321950
10,450167	0,5	1,164550
10,458500	0,5	1,061550
10,466833	0,5	0,988750
10,475167	0,5	0,937850
10,483500	0,5	0,903750
10,491833	0,5	0,875500
10,500167	0,5	0,854950
10,508500	0,5	0,835700
10,516833	0,5	0,815900
10,525167	0,5	0,806500
10,533500	0,5	0,795650
10,541833	0,5	0,781150
10,550167	0,5	0,766800
10,558500	0,5	0,747150
10,566833	0,5	0,727600
10,575167	0,5	0,712000
10,583500	0,5	0,690200
10,591833	0,5	0,670500
10,600167	0,5	0,655900
10,608500	0,5	0,641600
10,616833	0,5	0,629750
10,625167	0,5	0,621550
10,633500	0,5	0,621450
10,641833	0,5	0,622250
10,650167	0,5	0,629700
10,658500	0,5	0,639700
10,666833	0,5	0,660300
10,675167	0,5	0,688500
10,683500	0,5	0,716250
10,691833	0,5	0,738250
10,700167	0,5	0,761050
10,708500	0,5	0,774050
10,716833	0,5	0,781400
10,725167	0,5	0,777500
10,733500	0,5	0,768650
10,741833	0,5	0,745800
10,750167	0,5	0,723550
10,758500	0,5	0,692600
10,766833	0,5	0,657850
10,775167	0,5	0,626550
10,783500	0,5	0,594650
10,791833	0,5	0,563600
10,800167	0,5	0,537350
10,808500	0,5	0,508100
10,816833	0,5	0,489300
10,825167	0,5	0,477200
10,833500	0,5	0,461550
10,841833	0,5	0,449800
10,850167	0,5	0,438150
10,858500	0,5	0,429050
10,866833	0,5	0,424750
10,875167	0,5	0,417100
10,883500	0,5	0,407000
10,891833	0,5	0,405000
10,900167	0,5	0,404900
10,908500	0,5	0,401700
10,916833	0,5	0,392250
10,925167	0,5	0,396200
10,933500	0,5	0,397450
10,941833	0,5	0,393650
10,950167	0,5	0,391400
10,958500	0,5	0,394950
10,966833	0,5	0,399300
10,975167	0,5	0,404250
10,983500	0,5	0,411250
10,991833	0,5	0,410350
11,000167	0,5	0,412850
11,008500	0,5	0,412950
11,016833	0,5	0,414200
11,025167	0,5	0,412900
11,033500	0,5	0,407900
11,041833	0,5	0,402600
11,050167	0,5	0,392750
11,058500	0,5	0,384650
11,066833	0,5	0,378000
11,075167	0,5	0,371400
11,083500	0,5	0,361350
11,091833	0,5	0,351700
11,100167	0,5	0,338600
11,108500	0,5	0,330350
11,116833	0,5	0,324050
11,125167	0,5	0,318450
11,133500	0,5	0,313200
11,141833	0,5	0,306800
11,150167	0,5	0,301850
11,158500	0,5	0,298600
11,166833	0,5	0,292700
11,175167	0,5	0,289950
11,183500	0,5	0,287300
11,191833	0,5	0,284200
11,200167	0,5	0,280250
11,208500	0,5	0,274200
11,216833	0,5	0,275550
11,225167	0,5	0,277600
11,233500	0,5	0,275550
11,241833	0,5	0,271400
11,250167	0,5	0,265600
11,258500	0,5	0,268500
11,266833	0,5	0,271550
11,275167	0,5	0,273400
11,283500	0,5	0,275850
11,291833	0,5	0,276600
11,300167	0,5	0,280100
11,308500	0,5	0,282950
11,316833	0,5	0,283650
11,325167	0,5	0,287450
11,333500	0,5	0,288900
11,341833	0,5	0,293550
11,350167	0,5	0,296300
11,358500	0,5	0,300350
11,366833	0,5	0,307350
11,375167	0,5	0,312050
11,383500	0,5	0,315250
11,391833	0,5	0,318350
11,400167	0,5	0,320200
11,408500	0,5	0,325050
11,416833	0,5	0,333950
11,425167	0,5	0,337850
11,433500	0,5	0,344400
11,441833	0,5	0,341700
11,450167	0,5	0,345350
11,458500	0,5	0,348450
11,466833	0,5	0,355350
11,475167	0,5	0,353850
11,483500	0,5	0,356850
11,491833	0,5	0,359500
11,500167	0,5	0,359700
11,508500	0,5	0,356750
11,516833	0,5	0,359650
11,525167	0,5	0,359050
11,533500	0,5	0,361000
11,541833	0,5	0,356100
11,550167	0,5	0,353350
11,558500	0,5	0,361000
11,566833	0,5	0,362000
11,575167	0,5	0,369100
11,583500	0,5	0,369450
11,591833	0,5	0,375700
11,600167	0,5	0,379950
11,608500	0,5	0,385400
11,616833	0,5	0,392050
11,625167	0,5	0,400200
11,633500	0,5	0,402800
11,641833	0,5	0,411450
11,650167	0,5	0,415200
11,658500	0,5	0,421850
11,666833	0,5	0,429200
11,675167	0,5	0,429050
11,683500	0,5	0,426600
11,691833	0,5	0,427550
11,700167	0,5	0,427050
11,708500	0,5	0,429100
11,716833	0,5	0,432400
11,725167	0,5	0,426200
11,733500	0,5	0,421350
11,741833	0,5	0,415450
11,750167	0,5	0,410750
11,758500	0,5	0,405100
11,766833	0,5	0,401700
11,775167	0,5	0,394350
11,783500	0,5	0,390650
11,791833	0,5	0,383600
11,800167	0,5	0,376000
11,808500	0,5	0,372950
11,816833	0,5	0,375500
11,825167	0,5	0,369200
11,833500	0,5	0,367050
11,841833	0,5	0,362650
11,850167	0,5	0,365050
11,858500	0,5	0,371400
11,866833	0,5	0,378750
11,875167	0,5	0,384650
11,883500	0,5	0,390450
11,891833	0,5	0,398950
11,900167	0,5	0,405600
11,908500	0,5	0,410500
11,916833	0,5	0,419750
11,925167	0,5	0,427600
11,933500	0,5	0,434150
11,941833	0,5	0,441100
11,950167	0,5	0,450050
11,958500	0,5	0,464350
11,966833	0,5	0,469300
11,975167	0,5	0,479550
11,983500	0,5	0,485900
11,991833	0,5	0,499750
12,000167	0,5	0,510150
12,008500	0,5	0,528700
12,016833	0,5	0,541100
12,025167	0,5	0,562950
12,033500	0,5	0,579050
12,041833	0,5	0,603300
12,050167	0,5	0,627950
12,058500	0,5	0,659800
12,066833	0,5	0,689800
12,075167	0,5	0,719750
12,083500	0,5	0,759300
12,091833	0,5	0,791250
12,100167	0,5	0,830500
12,108500	0,5	0,872500
12,116833	0,5	0,915950
12,125167	0,5	0,956200
12,133500	0,5	1,000200
12,141833	0,5	1,051700
12,150167	0,5	1,104800
12,158500	0,5	1,155150
12,166833	0,5	1,209350
12,175167	0,5	1,262800
12,183500	0,5	1,313350
12,191833	0,5	1,364150
12,200167	0,5	1,414350
12,208500	0,5	1,457350
12,216833	0,5	1,497650
12,225167	0,5	1,531100
12,233500	0,5	1,562150
12,241833	0,5	1,575800
12,250167	0,5	1,604300
12,258500	0,5	1,624900
12,266833	0,5	1,640550
12,275167	0,5	1,651250
12,283500	0,5	1,665450
12,291833	0,5	1,681850
12,300167	0,5	1,695950
12,308500	0,5	1,706600
12,316833	0,5	1,713400
12,325167	0,5	1,726900
12,333500	0,5	1,734350
12,341833	0,5	1,748700
12,350167	0,5	1,760250
12,358500	0,5	1,768900
12,366833	0,5	1,776300
12,375167	0,5	1,790000
12,383500	0,5	1,803000
12,391833	0,5	1,812900
12,400167	0,5	1,836650
12,408500	0,5	1,849800
12,416833	0,5	1,861900
12,425167	0,5	1,873500
12,433500	0,5	1,885350
12,441833	0,5	1,907200
12,450167	0,5	1,927600
12,458500	0,5	1,939550
12,466833	0,5	1,959650
12,475167	0,5	1,971050
12,483500	0,5	1,989450
12,491833	0,5	2,004750
12,500167	0,5	2,025500
12,508500	0,5	2,039700
12,516833	0,5	2,058300
12,525167	0,5	2,076300
12,533500	0,5	2,094750
12,541833	0,5	2,109500
12,550167	0,5	2,134000
12,558500	0,5	2,145900
12,566833	0,5	2,154150
12,575167	0,5	2,156450
12,583500	0,5	2,158450
12,591833	0,5	2,165700
12,600167	0,5	2,164850
12,608500	0,5	2,161500
12,616833	0,5	2,163800
12,625167	0,5	2,160400
12,633500	0,5	2,157150
12,641833	0,5	2,160900
12,650167	0,5	2,160450
12,658500	0,5	2,162900
12,666833	0,5	2,165250
12,675167	0,5	2,169150
12,683500	0,5	2,173200
12,691833	0,5	2,179500
12,700167	0,5	2,188600
12,708500	0,5	2,192200
12,716833	0,5	2,195400
12,725167	0,5	2,189300
12,733500	0,5	2,190650
12,741833	0,5	2,197950
12,750167	0,5	2,194750
12,758500	0,5	2,195300
12,766833	0,5	2,197900
12,775167	0,5	2,199650
12,783500	0,5	2,202000
12,791833	0,5	2,205500
12,800167	0,5	2,209450
12,808500	0,5	2,208300
12,816833	0,5	2,215150
12,825167	0,5	2,215000
12,833500	0,5	2,207600
12,841833	0,5	2,207650
12,850167	0,5	2,209500
12,858500	0,5	2,208000
12,866833	0,5	2,203350
12,875167	0,5	2,197500
12,883500	0,5	2,198200
12,891833	0,5	2,202250
12,900167	0,5	2,201150
12,908500	0,5	2,195300
12,916833	0,5	2,191600
12,925167	0,5	2,183050
12,933500	0,5	2,178900
12,941833	0,5	2,170000
12,950167	0,5	2,161750
12,958500	0,5	2,157150
12,966833	0,5	2,158500
12,975167	0,5	2,151250
12,983500	0,5	2,152100
12,991833	0,5	2,156000
13,000167	0,5	2,156250
13,008500	0,5	2,158550
13,016833	0,5	2,153250
13,025167	0,5	2,154750
13,033500	0,5	2,156800
13,041833	0,5	2,160750
13,050167	0,5	2,157000
13,058500	0,5	2,149750
13,066833	0,5	2,145500
13,075167	0,5	2,136300
13,083500	0,5	2,129650
13,091833	0,5	2,123650
13,100167	0,5	2,116600
13,108500	0,5	2,109850
13,116833	0,5	2,106600
13,125167	0,5	2,094850
13,133500	0,5	2,099800
13,141833	0,5	2,101200
13,150167	0,5	2,097400
13,158500	0,5	2,095850
13,166833	0,5	2,090400
13,175167	0,5	2,096300
13,183500	0,5	2,100400
13,191833	0,5	2,102850
13,200167	0,5	2,101350
13,208500	0,5	2,103950
13,216833	0,5	2,103950
13,225167	0,5	2,100950
13,233500	0,5	2,104850
13,241833	0,5	2,103550
13,250167	0,5	2,105100
13,258500	0,5	2,110700
13,266833	0,5	2,111100
13,275167	0,5	2,098850
13,283500	0,5	2,105450
13,291833	0,5	2,103450
13,300167	0,5	2,096000
13,308500	0,5	2,085850
13,316833	0,5	2,073350
13,325167	0,5	2,078700
13,333500	0,5	2,078700
13,341833	0,5	2,082700
13,350167	0,5	2,088000
13,358500	0,5	2,098650
13,366833	0,5	2,099600
13,375167	0,5	2,108850
13,383500	0,5	2,106600
13,391833	0,5	2,100550
13,400167	0,5	2,098750
13,408500	0,5	2,094900
13,416833	0,5	2,080800
13,425167	0,5	2,071250
13,433500	0,5	2,067400
13,441833	0,5	2,053550
13,450167	0,5	2,041500
13,458500	0,5	2,024250
13,466833	0,5	2,018700
13,475167	0,5	2,023950
13,483500	0,5	2,032700
13,491833	0,5	2,042450
13,500167	0,5	2,059050
13,508500	0,5	2,070050
13,516833	0,5	2,084750
13,525167	0,5	2,093850
13,533500	0,5	2,099450
13,541833	0,5	2,097650
13,550167	0,5	2,085650
13,558500	0,5	2,072600
13,566833	0,5	2,055650
13,575167	0,5	2,040950
13,583500	0,5	2,031200
13,591833	0,5	2,021400
13,600167	0,5	2,011100
13,608500	0,5	2,000950
13,616833	0,5	1,996350
13,625167	0,5	2,006200
13,633500	0,5	1,998800
13,641833	0,5	1,992900
13,650167	0,5	1,978450
13,658500	0,5	1,970650
13,666833	0,5	1,961050
13,675167	0,5	1,960700
13,683500	0,5	1,960100
13,691833	0,5	1,976250
13,700167	0,5	2,000950
13,708500	0,5	2,023400
13,716833	0,5	2,032250
13,725167	0,5	2,053000
13,733500	0,5	2,051650
13,741833	0,5	2,033500
13,750167	0,5	2,002000
13,758500	0,5	1,969150
13,766833	0,5	1,947400
13,775167	0,5	1,932800
13,783500	0,5	1,923500
13,791833	0,5	1,923150
13,800167	0,5	1,929400
13,808500	0,5	1,936250
13,816833	0,5	1,950050
13,825167	0,5	1,962200
13,833500	0,5	1,967900
13,841833	0,5	1,972350
13,850167	0,5	1,972150
13,858500	0,5	1,968950
13,866833	0,5	1,976550
13,875167	0,5	1,994000
13,883500	0,5	2,014000
13,891833	0,5	2,026550
13,900167	0,5	2,028900
13,908500	0,5	2,012750
13,916833	0,5	1,992000
13,925167	0,5	1,956600
13,933500	0,5	1,919200
13,941833	0,5	1,882300
13,950167	0,5	1,851150
13,958500	0,5	1,826000
13,966833	0,5	1,815750
13,975167	0,5	1,812300
13,983500	0,5	1,814000
13,991833	0,5	1,825200
14,000167	0,5	1,837400
14,008500	0,5	1,838600
14,016833	0,5	1,853600
14,025167	0,5	1,876400
14,033500	0,5	1,882500
14,041833	0,5	1,895800
14,050167	0,5	1,893800
14,058500	0,5	1,886900
14,066833	0,5	1,874100
14,075167	0,5	1,847900
14,083500	0,5	1,815600
14,091833	0,5	1,785700
14,100167	0,5	1,755650
14,108500	0,5	1,734750
14,116833	0,5	1,721650
14,125167	0,5	1,713450
14,133500	0,5	1,714900
14,141833	0,5	1,724150
14,150167	0,5	1,733200
14,158500	0,5	1,736500
14,166833	0,5	1,756650
14,175167	0,5	1,759850
14,183500	0,5	1,757150
14,191833	0,5	1,748400
14,200167	0,5	1,724550
14,208500	0,5	1,710350
14,216833	0,5	1,693000
14,225167	0,5	1,666750
14,233500	0,5	1,648600
14,241833	0,5	1,627350
14,250167	0,5	1,617850
14,258500	0,5	1,612000
14,266833	0,5	1,611750
14,275167	0,5	1,612950
14,283500	0,5	1,618250
14,291833	0,5	1,628300
14,300167	0,5	1,632000
14,308500	0,5	1,634550
14,316833	0,5	1,643400
14,325167	0,5	1,637950
14,333500	0,5	1,630500
14,341833	0,5	1,615600
14,350167	0,5	1,602200
14,358500	0,5	1,601350
14,366833	0,5	1,589450
14,375167	0,5	1,583800
14,383500	0,5	1,575300
14,391833	0,5	1,572350
14,400167	0,5	1,560500
14,408500	0,5	1,562050
14,416833	0,5	1,554900
14,425167	0,5	1,557400
14,433500	0,5	1,551200
14,441833	0,5	1,547650
14,450167	0,5	1,523450
14,458500	0,5	1,519700
14,466833	0,5	1,510350
14,475167	0,5	1,496450
14,483500	0,5	1,481150
14,491833	0,5	1,462350
14,500167	0,5	1,456100
14,508500	0,5	1,454450
14,516833	0,5	1,451500
14,525167	0,5	1,440800
14,533500	0,5	1,433850
14,541833	0,5	1,432850
14,550167	0,5	1,426450
14,558500	0,5	1,421000
14,566833	0,5	1,419300
14,575167	0,5	1,411600
14,583500	0,5	1,413550
14,591833	0,5	1,405100
14,600167	0,5	1,395350
14,608500	0,5	1,401000
14,616833	0,5	1,402250
14,625167	0,5	1,399550
14,633500	0,5	1,394350
14,641833	0,5	1,380500
14,650167	0,5	1,375650
14,658500	0,5	1,376400
14,666833	0,5	1,370400
14,675167	0,5	1,363300
14,683500	0,5	1,360700
14,691833	0,5	1,351750
14,700167	0,5	1,342200
14,708500	0,5	1,345200
14,716833	0,5	1,334300
14,725167	0,5	1,335200
14,733500	0,5	1,333900
14,741833	0,5	1,330350
14,750167	0,5	1,325350
14,758500	0,5	1,334550
14,766833	0,5	1,320500
14,775167	0,5	1,311900
14,783500	0,5	1,297550
14,791833	0,5	1,280050
14,800167	0,5	1,277900
14,808500	0,5	1,274700
14,816833	0,5	1,274500
14,825167	0,5	1,273350
14,833500	0,5	1,271800
14,841833	0,5	1,272550
14,850167	0,5	1,278150
14,858500	0,5	1,274350
14,866833	0,5	1,275200
14,875167	0,5	1,276000
14,883500	0,5	1,271700
14,891833	0,5	1,252650
14,900167	0,5	1,254550
14,908500	0,5	1,252150
14,916833	0,5	1,245100
14,925167	0,5	1,237650
14,933500	0,5	1,229500
14,941833	0,5	1,227150
14,950167	0,5	1,230250
14,958500	0,5	1,232850
14,966833	0,5	1,233700
14,975167	0,5	1,230900
14,983500	0,5	1,232350
14,991833	0,5	1,225450
15,000167	0,5	1,222250
15,008500	0,5	1,222400
15,016833	0,5	1,217600
15,025167	0,5	1,220800
15,033500	0,5	1,219300
15,041833	0,5	1,210200
15,050167	0,5	1,212750
15,058500	0,5	1,219500
15,066833	0,5	1,207850
15,075167	0,5	1,205450
15,083500	0,5	1,188950
15,091833	0,5	1,191400
15,100167	0,5	1,187350
15,108500	0,5	1,190950
15,116833	0,5	1,187700
15,125167	0,5	1,188250
15,133500	0,5	1,179300
15,141833	0,5	1,181750
15,150167	0,5	1,178400
15,158500	0,5	1,175050
15,166833	0,5	1,171200
15,175167	0,5	1,173250
15,183500	0,5	1,165500
15,191833	0,5	1,163700
15,200167	0,5	1,170350
15,208500	0,5	1,167750
15,216833	0,5	1,165650
15,225167	0,5	1,154850
15,233500	0,5	1,153500
15,241833	0,5	1,155950
15,250167	0,5	1,161550
15,258500	0,5	1,162650
15,266833	0,5	1,171100
15,275167	0,5	1,177400
15,283500	0,5	1,178350
15,291833	0,5	1,186200
15,300167	0,5	1,188250
15,308500	0,5	1,181800
15,316833	0,5	1,169400
15,325167	0,5	1,163200
15,333500	0,5	1,142050
15,341833	0,5	1,134900
15,350167	0,5	1,132900
15,358500	0,5	1,127950
15,366833	0,5	1,122450
15,375167	0,5	1,115700
15,383500	0,5	1,111800
15,391833	0,5	1,119550
15,400167	0,5	1,112350
15,408500	0,5	1,112650
15,416833	0,5	1,110150
15,425167	0,5	1,105050
15,433500	0,5	1,107050
15,441833	0,5	1,108650
15,450167	0,5	1,105200
15,458500	0,5	1,099450
15,466833	0,5	1,098050
15,475167	0,5	1,097600
15,483500	0,5	1,075200
15,491833	0,5	1,087650
15,500167	0,5	1,087750
15,508500	0,5	1,085900
15,516833	0,5	1,081750
15,525167	0,5	1,071300
15,533500	0,5	1,082000
15,541833	0,5	1,088500
15,550167	0,5	1,098650
15,558500	0,5	1,109650
15,566833	0,5	1,116800
15,575167	0,5	1,118850
15,583500	0,5	1,130750
15,591833	0,5	1,135050
15,600167	0,5	1,139950
15,608500	0,5	1,136400
15,616833	0,5	1,136800
15,625167	0,5	1,119450
15,633500	0,5	1,111700
15,641833	0,5	1,116200
15,650167	0,5	1,108700
15,658500	0,5	1,105850
15,666833	0,5	1,093950
15,675167	0,5	1,078950
15,683500	0,5	1,071300
15,691833	0,5	1,063800
15,700167	0,5	1,055100
15,708500	0,5	1,047500
15,716833	0,5	1,036650
15,725167	0,5	1,033500
15,733500	0,5	1,029750
15,741833	0,5	1,027400
15,750167	0,5	1,026600
15,758500	0,5	1,034600
15,766833	0,5	1,034800
15,775167	0,5	1,029900
15,783500	0,5	1,030650
15,791833	0,5	1,041800
15,800167	0,5	1,039450
15,808500	0,5	1,032850
15,816833	0,5	1,021850
15,825167	0,5	1,012800
15,833500	0,5	1,014550
15,841833	0,5	1,015950
15,850167	0,5	1,012350
15,858500	0,5	1,015650
15,866833	0,5	1,020300
15,875167	0,5	1,020900
15,883500	0,5	1,027850
15,891833	0,5	1,031000
15,900167	0,5	1,031600
15,908500	0,5	1,034050
15,916833	0,5	1,032300
15,925167	0,5	1,018750
15,933500	0,5	1,028650
15,941833	0,5	1,025800
15,950167	0,5	1,023900
15,958500	0,5	1,008300
15,966833	0,5	0,993250
15,975167	0,5	0,988900
15,983500	0,5	0,986250
15,991833	0,5	0,981450
16,000167	0,5	0,972100
16,008500	0,5	0,966450
16,016833	0,5	0,963200
16,025167	0,5	0,963500
16,033500	0,5	0,960150
16,041833	0,5	0,966850
16,050167	0,5	0,969100
16,058500	0,5	0,977800
16,066833	0,5	0,969300
16,075167	0,5	0,971850
16,083500	0,5	0,976500
16,091833	0,5	0,974800
16,100167	0,5	0,967400
16,108500	0,5	0,953600
16,116833	0,5	0,950100
16,125167	0,5	0,953100
16,133500	0,5	0,950650
16,141833	0,5	0,956550
16,150167	0,5	0,958650
16,158500	0,5	0,960350
16,166833	0,5	0,951100
16,175167	0,5	0,957750
16,183500	0,5	0,958600
16,191833	0,5	0,955950
16,200167	0,5	0,961350
16,208500	0,5	0,964950
16,216833	0,5	0,955650
16,225167	0,5	0,968650
16,233500	0,5	0,973750
16,241833	0,5	0,977950
16,250167	0,5	0,984100
16,258500	0,5	0,980200
16,266833	0,5	0,993750
16,275167	0,5	1,005300
16,283500	0,5	1,022850
16,291833	0,5	1,022500
16,300167	0,5	1,031850
16,308500	0,5	1,031700
16,316833	0,5	1,034100
16,325167	0,5	1,030650
16,333500	0,5	1,026450
16,341833	0,5	1,025500
16,350167	0,5	1,020150
16,358500	0,5	1,023700
16,366833	0,5	1,003600
16,375167	0,5	1,016100
16,383500	0,5	1,020800
16,391833	0,5	1,026350
16,400167	0,5	1,033100
16,408500	0,5	1,031700
16,416833	0,5	1,041950
16,425167	0,5	1,055150
16,433500	0,5	1,054450
16,441833	0,5	1,062850
16,450167	0,5	1,063850
16,458500	0,5	1,070150
16,466833	0,5	1,077700
16,475167	0,5	1,101250
16,483500	0,5	1,125800
16,491833	0,5	1,167000
16,500167	0,5	1,232400
16,508500	0,5	1,305500
16,516833	0,5	1,378900
16,525167	0,5	1,475850
16,533500	0,5	1,541700
16,541833	0,5	1,579150
16,550167	0,5	1,586450
16,558500	0,5	1,548100
16,566833	0,5	1,504650
16,575167	0,5	1,426150
16,583500	0,5	1,350900
16,591833	0,5	1,270650
16,600167	0,5	1,211800
16,608500	0,5	1,160300
16,616833	0,5	1,127400
16,625167	0,5	1,104950
16,633500	0,5	1,099800
16,641833	0,5	1,101100
16,650167	0,5	1,114000
16,658500	0,5	1,112700
16,666833	0,5	1,137500
16,675167	0,5	1,154500
16,683500	0,5	1,164400
16,691833	0,5	1,170500
16,700167	0,5	1,170250
16,708500	0,5	1,177550
16,716833	0,5	1,187100
16,725167	0,5	1,203050
16,733500	0,5	1,218950
16,741833	0,5	1,238450
16,750167	0,5	1,256700
16,758500	0,5	1,268450
16,766833	0,5	1,268900
16,775167	0,5	1,264400
16,783500	0,5	1,239100
16,791833	0,5	1,217300
16,800167	0,5	1,178400
16,808500	0,5	1,134750
16,816833	0,5	1,102950
16,825167	0,5	1,071200
16,833500	0,5	1,035700
16,841833	0,5	1,003150
16,850167	0,5	0,971450
16,858500	0,5	0,939400
16,866833	0,5	0,928450
16,875167	0,5	0,911550
16,883500	0,5	0,897550
16,891833	0,5	0,886250
16,900167	0,5	0,879400
16,908500	0,5	0,866450
16,916833	0,5	0,867000
16,925167	0,5	0,856450
16,933500	0,5	0,853650
16,941833	0,5	0,850400
16,950167	0,5	0,843800
16,958500	0,5	0,843250
16,966833	0,5	0,848600
16,975167	0,5	0,849450
16,983500	0,5	0,850000
16,991833	0,5	0,834200
17,000167	0,5	0,836250
17,008500	0,5	0,838500
17,016833	0,5	0,836150
17,025167	0,5	0,828300
17,033500	0,5	0,824000
17,041833	0,5	0,814500
17,050167	0,5	0,802300
17,058500	0,5	0,797600
17,066833	0,5	0,788950
17,075167	0,5	0,780150
17,083500	0,5	0,772350
17,091833	0,5	0,771500
17,100167	0,5	0,748350
17,108500	0,5	0,757550
17,116833	0,5	0,748250
17,125167	0,5	0,748650
17,133500	0,5	0,739900
17,141833	0,5	0,725650
17,150167	0,5	0,724800
17,158500	0,5	0,724350
17,166833	0,5	0,724550
17,175167	0,5	0,724350
17,183500	0,5	0,724800
17,191833	0,5	0,722900
17,200167	0,5	0,720250
17,208500	0,5	0,719050
17,216833	0,5	0,716850
17,225167	0,5	0,713600
17,233500	0,5	0,718800
17,241833	0,5	0,719050
17,250167	0,5	0,704850
17,258500	0,5	0,717050
17,266833	0,5	0,716150
17,275167	0,5	0,710950
17,283500	0,5	0,709800
17,291833	0,5	0,693750
17,300167	0,5	0,708350
17,308500	0,5	0,707050
17,316833	0,5	0,709650
17,325167	0,5	0,710400
17,333500	0,5	0,713950
17,341833	0,5	0,709200
17,350167	0,5	0,708400
17,358500	0,5	0,713400
17,366833	0,5	0,709950
17,375167	0,5	0,706850
17,383500	0,5	0,699450
17,391833	0,5	0,687500
17,400167	0,5	0,675300
17,408500	0,5	0,675650
17,416833	0,5	0,662750
17,425167	0,5	0,651100
17,433500	0,5	0,629000
17,441833	0,5	0,617200
17,450167	0,5	0,615700
17,458500	0,5	0,615300
17,466833	0,5	0,609450
17,475167	0,5	0,611200
17,483500	0,5	0,607250
17,491833	0,5	0,611050
17,500167	0,5	0,608600
17,508500	0,5	0,608850
17,516833	0,5	0,608650
17,525167	0,5	0,611050
17,533500	0,5	0,619000
17,541833	0,5	0,608850
17,550167	0,5	0,617300
17,558500	0,5	0,619250
17,566833	0,5	0,625700
17,575167	0,5	0,619050
17,583500	0,5	0,614950
17,591833	0,5	0,616850
17,600167	0,5	0,631800
17,608500	0,5	0,638100
17,616833	0,5	0,648550
17,625167	0,5	0,657400
17,633500	0,5	0,671100
17,641833	0,5	0,677900
17,650167	0,5	0,696800
17,658500	0,5	0,718000
17,666833	0,5	0,731000
17,675167	0,5	0,756200
17,683500	0,5	0,769050
17,691833	0,5	0,772100
17,700167	0,5	0,791800
17,708500	0,5	0,803200
17,716833	0,5	0,812150
17,725167	0,5	0,814850
17,733500	0,5	0,813700
17,741833	0,5	0,825400
17,750167	0,5	0,833000
17,758500	0,5	0,843650
17,766833	0,5	0,847750
17,775167	0,5	0,857000
17,783500	0,5	0,855850
17,791833	0,5	0,862900
17,800167	0,5	0,858200
17,808500	0,5	0,856050
17,816833	0,5	0,851100
17,825167	0,5	0,852150
17,833500	0,5	0,834100
17,841833	0,5	0,826400
17,850167	0,5	0,826800
17,858500	0,5	0,814950
17,866833	0,5	0,802900
17,875167	0,5	0,783100
17,883500	0,5	0,774250
17,891833	0,5	0,764050
17,900167	0,5	0,762650
17,908500	0,5	0,750400
17,916833	0,5	0,749600
17,925167	0,5	0,735250
17,933500	0,5	0,726400
17,941833	0,5	0,710600
17,950167	0,5	0,708600
17,958500	0,5	0,697750
17,966833	0,5	0,697350
17,975167	0,5	0,689600
17,983500	0,5	0,674000
17,991833	0,5	0,674850
18,000167	0,5	0,669900
18,008500	0,5	0,659700
18,016833	0,5	0,647750
18,025167	0,5	0,624100
18,033500	0,5	0,615150
18,041833	0,5	0,619450
18,050167	0,5	0,611000
18,058500	0,5	0,605200
18,066833	0,5	0,594700
18,075167	0,5	0,595950
18,083500	0,5	0,586650
18,091833	0,5	0,586200
18,100167	0,5	0,576000
18,108500	0,5	0,567950
18,116833	0,5	0,566900
18,125167	0,5	0,560600
18,133500	0,5	0,541650
18,141833	0,5	0,545100
18,150167	0,5	0,541350
18,158500	0,5	0,538250
18,166833	0,5	0,526600
18,175167	0,5	0,516250
18,183500	0,5	0,519600
18,191833	0,5	0,518450
18,200167	0,5	0,513650
18,208500	0,5	0,514950
18,216833	0,5	0,509900
18,225167	0,5	0,509100
18,233500	0,5	0,509800
18,241833	0,5	0,508550
18,250167	0,5	0,508550
18,258500	0,5	0,508950
18,266833	0,5	0,522300
18,275167	0,5	0,510550
18,283500	0,5	0,524550
18,291833	0,5	0,531150
18,300167	0,5	0,532450
18,308500	0,5	0,534000
18,316833	0,5	0,525400
18,325167	0,5	0,525050
18,333500	0,5	0,533700
18,341833	0,5	0,536200
18,350167	0,5	0,542400
18,358500	0,5	0,542400
18,366833	0,5	0,544700
18,375167	0,5	0,547750
18,383500	0,5	0,551100
18,391833	0,5	0,551300
18,400167	0,5	0,552900
18,408500	0,5	0,560550
18,416833	0,5	0,562200
18,425167	0,5	0,552450
18,433500	0,5	0,566150
18,441833	0,5	0,571700
18,450167	0,5	0,572400
18,458500	0,5	0,569000
18,466833	0,5	0,552800
18,475167	0,5	0,557850
18,483500	0,5	0,560900
18,491833	0,5	0,562400
18,500167	0,5	0,558850
18,508500	0,5	0,563350
18,516833	0,5	0,563650
18,525167	0,5	0,563350
18,533500	0,5	0,566750
18,541833	0,5	0,561600
18,550167	0,5	0,567400
18,558500	0,5	0,564450
18,566833	0,5	0,569400
18,575167	0,5	0,566500
18,583500	0,5	0,577900
18,591833	0,5	0,575250
18,600167	0,5	0,578400
18,608500	0,5	0,567550
18,616833	0,5	0,564600
18,625167	0,5	0,557000
18,633500	0,5	0,567650
18,641833	0,5	0,572100
18,650167	0,5	0,579900
18,658500	0,5	0,579450
18,666833	0,5	0,578100
18,675167	0,5	0,579950
18,683500	0,5	0,576600
18,691833	0,5	0,579650
18,700167	0,5	0,575850
18,708500	0,5	0,577650
18,716833	0,5	0,567000
18,725167	0,5	0,561750
18,733500	0,5	0,566350
18,741833	0,5	0,557900
18,750167	0,5	0,551550
18,758500	0,5	0,542150
18,766833	0,5	0,536250
18,775167	0,5	0,543900
18,783500	0,5	0,536050
18,791833	0,5	0,536450
18,800167	0,5	0,529800
18,808500	0,5	0,536550
18,816833	0,5	0,528350
18,825167	0,5	0,522850
18,833500	0,5	0,523000
18,841833	0,5	0,525300
18,850167	0,5	0,532500
18,858500	0,5	0,533500
18,866833	0,5	0,521150
18,875167	0,5	0,521350
18,883500	0,5	0,521400
18,891833	0,5	0,515100
18,900167	0,5	0,505400
18,908500	0,5	0,491650
18,916833	0,5	0,487950
18,925167	0,5	0,483050
18,933500	0,5	0,487350
18,941833	0,5	0,485250
18,950167	0,5	0,489150
18,958500	0,5	0,484650
18,966833	0,5	0,485950
18,975167	0,5	0,481250
18,983500	0,5	0,476900
18,991833	0,5	0,481500
19,000167	0,5	0,470050
19,008500	0,5	0,470150
19,016833	0,5	0,463400
19,025167	0,5	0,463200
19,033500	0,5	0,462050
19,041833	0,5	0,455900
19,050167	0,5	0,435450
19,058500	0,5	0,433850
19,066833	0,5	0,431300
19,075167	0,5	0,433500
19,083500	0,5	0,425800
19,091833	0,5	0,432200
19,100167	0,5	0,423600
19,108500	0,5	0,428000
19,116833	0,5	0,422600
19,125167	0,5	0,424550
19,133500	0,5	0,428550
19,141833	0,5	0,431050
19,150167	0,5	0,434600
19,158500	0,5	0,420800
19,166833	0,5	0,428400
19,175167	0,5	0,433500
19,183500	0,5	0,433550
19,191833	0,5	0,426050
19,200167	0,5	0,416300
19,208500	0,5	0,419400
19,216833	0,5	0,422450
19,225167	0,5	0,418450
19,233500	0,5	0,420050
19,241833	0,5	0,423300
19,250167	0,5	0,427750
19,258500	0,5	0,424750
19,266833	0,5	0,430900
19,275167	0,5	0,428500
19,283500	0,5	0,432850
19,291833	0,5	0,446050
19,300167	0,5	0,446650
19,308500	0,5	0,433800
19,316833	0,5	0,445700
19,325167	0,5	0,444400
19,333500	0,5	0,443800
19,341833	0,5	0,439900
19,350167	0,5	0,429900
19,358500	0,5	0,446600
19,366833	0,5	0,443900
19,375167	0,5	0,451750
19,383500	0,5	0,446900
19,391833	0,5	0,450250
19,400167	0,5	0,451800
19,408500	0,5	0,453250
19,416833	0,5	0,449850
19,425167	0,5	0,455650
19,433500	0,5	0,454400
19,441833	0,5	0,459350
19,450167	0,5	0,447450
19,458500	0,5	0,438500
19,466833	0,5	0,428700
19,475167	0,5	0,423050
19,483500	0,5	0,408600
19,491833	0,5	0,391600
19,500167	0,5	0,388550
19,508500	0,5	0,381450
19,516833	0,5	0,386550
19,525167	0,5	0,380950
19,533500	0,5	0,382750
19,541833	0,5	0,380900
19,550167	0,5	0,384800
19,558500	0,5	0,378800
19,566833	0,5	0,385550
19,575167	0,5	0,383050
19,583500	0,5	0,393000
19,591833	0,5	0,395950
19,600167	0,5	0,390200
19,608500	0,5	0,390900
19,616833	0,5	0,390850
19,625167	0,5	0,383250
19,633500	0,5	0,376100
19,641833	0,5	0,362400
19,650167	0,5	0,357150
19,658500	0,5	0,364150
19,666833	0,5	0,365950
19,675167	0,5	0,364650
19,683500	0,5	0,366950
19,691833	0,5	0,370550
19,700167	0,5	0,364050
19,708500	0,5	0,366850
19,716833	0,5	0,361250
19,725167	0,5	0,367700
19,733500	0,5	0,372450
19,741833	0,5	0,374900
19,750167	0,5	0,368700
19,758500	0,5	0,381600
19,766833	0,5	0,378050
19,775167	0,5	0,378950
19,783500	0,5	0,373000
19,791833	0,5	0,366200
19,800167	0,5	0,373600
19,808500	0,5	0,371800
19,816833	0,5	0,383850
19,825167	0,5	0,386200
19,833500	0,5	0,390850
19,841833	0,5	0,394750
19,850167	0,5	0,400300
19,858500	0,5	0,402800
19,866833	0,5	0,406750
19,875167	0,5	0,414300
19,883500	0,5	0,420550
19,891833	0,5	0,415500
19,900167	0,5	0,415850
19,908500	0,5	0,418400
19,916833	0,5	0,415000
19,925167	0,5	0,413750
19,933500	0,5	0,400050
19,941833	0,5	0,404750
19,950167	0,5	0,404100
19,958500	0,5	0,407000
19,966833	0,5	0,408100
19,975167	0,5	0,417800
19,983500	0,5	0,413750
19,991833	0,5	0,417450
20,000167	0,5	0,412450
20,008500	0,5	0,414800
20,016833	0,5	0,417600
20,025167	0,5	0,428050
20,033500	0,5	0,430250
20,041833	0,5	0,423200
20,050167	0,5	0,427850
20,058500	0,5	0,430950
20,066833	0,5	0,424650
20,075167	0,5	0,422900
20,083500	0,5	0,412600
20,091833	0,5	0,425850
20,100167	0,5	0,423250
20,108500	0,5	0,429650
20,116833	0,5	0,440650
20,125167	0,5	0,445300
20,133500	0,5	0,452200
20,141833	0,5	0,448550
20,150167	0,5	0,450000
20,158500	0,5	0,437250
20,166833	0,5	0,435700
20,175167	0,5	0,439500
20,183500	0,5	0,432550
20,191833	0,5	0,424400
20,200167	0,5	0,423200
20,208500	0,5	0,424700
20,216833	0,5	0,416700
20,225167	0,5	0,402250
20,233500	0,5	0,404750
20,241833	0,5	0,408250
20,250167	0,5	0,415700
20,258500	0,5	0,413300
20,266833	0,5	0,416400
20,275167	0,5	0,419800
20,283500	0,5	0,421950
20,291833	0,5	0,424550
20,300167	0,5	0,422350
20,308500	0,5	0,424650
20,316833	0,5	0,433150
20,325167	0,5	0,441850
20,333500	0,5	0,431400
20,341833	0,5	0,441250
20,350167	0,5	0,436500
20,358500	0,5	0,438750
20,366833	0,5	0,431400
20,375167	0,5	0,421650
20,383500	0,5	0,428200
20,391833	0,5	0,429600
20,400167	0,5	0,426050
20,408500	0,5	0,436000
20,416833	0,5	0,436750
20,425167	0,5	0,442650
20,433500	0,5	0,447000
20,441833	0,5	0,447400
20,450167	0,5	0,455350
20,458500	0,5	0,461400
20,466833	0,5	0,477800
20,475167	0,5	0,486300
20,483500	0,5	0,481500
20,491833	0,5	0,488250
20,500167	0,5	0,485500
20,508500	0,5	0,473150
20,516833	0,5	0,471950
20,525167	0,5	0,458500
20,533500	0,5	0,464500
20,541833	0,5	0,468750
20,550167	0,5	0,475150
20,558500	0,5	0,476200
20,566833	0,5	0,484700
20,575167	0,5	0,489100
20,583500	0,5	0,493200
20,591833	0,5	0,494650
20,600167	0,5	0,495850
20,608500	0,5	0,518900
20,616833	0,5	0,534300
20,625167	0,5	0,531450
20,633500	0,5	0,535450
20,641833	0,5	0,540850
20,650167	0,5	0,531550
20,658500	0,5	0,536600
20,666833	0,5	0,526350
20,675167	0,5	0,529050
20,683500	0,5	0,529100
20,691833	0,5	0,536900
20,700167	0,5	0,539350
20,708500	0,5	0,546750
20,716833	0,5	0,551450
20,725167	0,5	0,558700
20,733500	0,5	0,566100
20,741833	0,5	0,570900
20,750167	0,5	0,585400
20,758500	0,5	0,606400
20,766833	0,5	0,627000
20,775167	0,5	0,628150
20,783500	0,5	0,632150
20,791833	0,5	0,629650
20,800167	0,5	0,629850
20,808500	0,5	0,618700
20,816833	0,5	0,617950
20,825167	0,5	0,618400
20,833500	0,5	0,625950
20,841833	0,5	0,625500
20,850167	0,5	0,633000
20,858500	0,5	0,632650
20,866833	0,5	0,638000
20,875167	0,5	0,642850
20,883500	0,5	0,647400
20,891833	0,5	0,657650
20,900167	0,5	0,676300
20,908500	0,5	0,699050
20,916833	0,5	0,713600
20,925167	0,5	0,717400
20,933500	0,5	0,732250
20,941833	0,5	0,742700
20,950167	0,5	0,750350
20,958500	0,5	0,752100
20,966833	0,5	0,757250
20,975167	0,5	0,772050
20,983500	0,5	0,768800
20,991833	0,5	0,781550
21,000167	0,5	0,787200
21,008500	0,5	0,801050
21,016833	0,5	0,803950
21,025167	0,5	0,814650
21,033500	0,5	0,820750
21,041833	0,5	0,823050
21,050167	0,5	0,853400
21,058500	0,5	0,876650
21,066833	0,5	0,874250
21,075167	0,5	0,880300
21,083500	0,5	0,883100
21,091833	0,5	0,881550
21,100167	0,5	0,884250
21,108500	0,5	0,878350
21,116833	0,5	0,897650
21,125167	0,5	0,902550
21,133500	0,5	0,915350
21,141833	0,5	0,917300
21,150167	0,5	0,929450
21,158500	0,5	0,940850
21,166833	0,5	0,951450
21,175167	0,5	0,964750
21,183500	0,5	0,976150
21,191833	0,5	1,004000
21,200167	0,5	1,036850
21,208500	0,5	1,066900
21,216833	0,5	1,084300
21,225167	0,5	1,105150
21,233500	0,5	1,123950
21,241833	0,5	1,140150
21,250167	0,5	1,130300
21,258500	0,5	1,143200
21,266833	0,5	1,131800
21,275167	0,5	1,132200
21,283500	0,5	1,112800
21,291833	0,5	1,115000
21,300167	0,5	1,110200
21,308500	0,5	1,113050
21,316833	0,5	1,116150
21,325167	0,5	1,120250
21,333500	0,5	1,132800
21,341833	0,5	1,165800
21,350167	0,5	1,189050
21,358500	0,5	1,208250
21,366833	0,5	1,217800
21,375167	0,5	1,212800
21,383500	0,5	1,206850
21,391833	0,5	1,196200
21,400167	0,5	1,194850
21,408500	0,5	1,207900
21,416833	0,5	1,227700
21,425167	0,5	1,229900
21,433500	0,5	1,251850
21,441833	0,5	1,266250
21,450167	0,5	1,282350
21,458500	0,5	1,299350
21,466833	0,5	1,314000
21,475167	0,5	1,340900
21,483500	0,5	1,359550
21,491833	0,5	1,390650
21,500167	0,5	1,418200
21,508500	0,5	1,418100
21,516833	0,5	1,431400
21,525167	0,5	1,444800
21,533500	0,5	1,453450
21,541833	0,5	1,468950
21,550167	0,5	1,486750
21,558500	0,5	1,520850
21,566833	0,5	1,544550
21,575167	0,5	1,568300
21,583500	0,5	1,582650
21,591833	0,5	1,596400
21,600167	0,5	1,603950
21,608500	0,5	1,612500
21,616833	0,5	1,616850
21,625167	0,5	1,615950
21,633500	0,5	1,640250
21,641833	0,5	1,659350
21,650167	0,5	1,662950
21,658500	0,5	1,678200
21,666833	0,5	1,689050
21,675167	0,5	1,697400
21,683500	0,5	1,702650
21,691833	0,5	1,701300
21,700167	0,5	1,720400
21,708500	0,5	1,728950
21,716833	0,5	1,742200
21,725167	0,5	1,760500
21,733500	0,5	1,786650
21,741833	0,5	1,803000
21,750167	0,5	1,829850
21,758500	0,5	1,851700
21,766833	0,5	1,879150
21,775167	0,5	1,904650
21,783500	0,5	1,944250
21,791833	0,5	1,974250
21,800167	0,5	1,995050
21,808500	0,5	2,022050
21,816833	0,5	2,038100
21,825167	0,5	2,054300
21,833500	0,5	2,055050
21,841833	0,5	2,075850
21,850167	0,5	2,095300
21,858500	0,5	2,121100
21,866833	0,5	2,137050
21,875167	0,5	2,149850
21,883500	0,5	2,168750
21,891833	0,5	2,191550
21,900167	0,5	2,212450
21,908500	0,5	2,235250
21,916833	0,5	2,261800
21,925167	0,5	2,293600
21,933500	0,5	2,327250
21,941833	0,5	2,346050
21,950167	0,5	2,370250
21,958500	0,5	2,392350
21,966833	0,5	2,414050
21,975167	0,5	2,426800
21,983500	0,5	2,448050
21,991833	0,5	2,483050
22,000167	0,5	2,515550
22,008500	0,5	2,548700
22,016833	0,5	2,583400
22,025167	0,5	2,617750
22,033500	0,5	2,661950
22,041833	0,5	2,708000
22,050167	0,5	2,758050
22,058500	0,5	2,797950
22,066833	0,5	2,820200
22,075167	0,5	2,853950
22,083500	0,5	2,855650
22,091833	0,5	2,878250
22,100167	0,5	2,895350
22,108500	0,5	2,921550
22,116833	0,5	2,933750
22,125167	0,5	2,957100
22,133500	0,5	2,981400
22,141833	0,5	3,020350
22,150167	0,5	3,037900
22,158500	0,5	3,076300
22,166833	0,5	3,095550
22,175167	0,5	3,131850
22,183500	0,5	3,162150
22,191833	0,5	3,196450
22,200167	0,5	3,231100
22,208500	0,5	3,269450
22,216833	0,5	3,314550
22,225167	0,5	3,357900
22,233500	0,5	3,389400
22,241833	0,5	3,445250
22,250167	0,5	3,482200
22,258500	0,5	3,518100
22,266833	0,5	3,555650
22,275167	0,5	3,584500
22,283500	0,5	3,644150
22,291833	0,5	3,689350
22,300167	0,5	3,739900
22,308500	0,5	3,791100
22,316833	0,5	3,860500
22,325167	0,5	3,924700
22,333500	0,5	3,998950
22,341833	0,5	4,063150
22,350167	0,5	4,118950
22,358500	0,5	4,170300
22,366833	0,5	4,196800
22,375167	0,5	4,248900
22,383500	0,5	4,299250
22,391833	0,5	4,354950
22,400167	0,5	4,389850
22,408500	0,5	4,431100
22,416833	0,5	4,463650
22,425167	0,5	4,509100
22,433500	0,5	4,564350
22,441833	0,5	4,624850
22,450167	0,5	4,680400
22,458500	0,5	4,739450
22,466833	0,5	4,801750
22,475167	0,5	4,869600
22,483500	0,5	4,931750
22,491833	0,5	4,999400
22,500167	0,5	5,071600
22,508500	0,5	5,115950
22,516833	0,5	5,178350
22,525167	0,5	5,235100
22,533500	0,5	5,307500
22,541833	0,5	5,359150
22,550167	0,5	5,403150
22,558500	0,5	5,426800
22,566833	0,5	5,463600
22,575167	0,5	5,493900
22,583500	0,5	5,525400
22,591833	0,5	5,544750
22,600167	0,5	5,561550
22,608500	0,5	5,569900
22,616833	0,5	5,579850
22,625167	0,5	5,577000
22,633500	0,5	5,574750
22,641833	0,5	5,559250
22,650167	0,5	5,533100
22,658500	0,5	5,474750
22,666833	0,5	5,447250
22,675167	0,5	5,426050
22,683500	0,5	5,387300
22,691833	0,5	5,325650
22,700167	0,5	5,256400
22,708500	0,5	5,168700
22,716833	0,5	5,075350
22,725167	0,5	4,990250
22,733500	0,5	4,889900
22,741833	0,5	4,787000
22,750167	0,5	4,674050
22,758500	0,5	4,567100
22,766833	0,5	4,451200
22,775167	0,5	4,329150
22,783500	0,5	4,204350
22,791833	0,5	4,074150
22,800167	0,5	3,933650
22,808500	0,5	3,769700
22,816833	0,5	3,652100
22,825167	0,5	3,527650
22,833500	0,5	3,372150
22,841833	0,5	3,224450
22,850167	0,5	3,057000
22,858500	0,5	2,898000
22,866833	0,5	2,729000
22,875167	0,5	2,562300
22,883500	0,5	2,390250
22,891833	0,5	2,234550
22,900167	0,5	2,071600
22,908500	0,5	1,916050
22,916833	0,5	1,758600
22,925167	0,5	1,609750
22,933500	0,5	1,463300
22,941833	0,5	1,321600
22,950167	0,5	1,199000
22,958500	0,5	1,059700
22,966833	0,5	0,926500
22,975167	0,5	0,772350
22,983500	0,5	0,646500
22,991833	0,5	0,527600
23,000167	0,5	0,418400
23,008500	0,5	0,313050
23,016833	0,5	0,205450
23,025167	0,5	0,104800
23,033500	0,5	0,018650
23,041833	0,5	-0,077700
23,050167	0,5	-0,160750
23,058500	0,5	-0,246700
23,066833	0,5	-0,322650
23,075167	0,5	-0,403200
23,083500	0,5	-0,473000
23,091833	0,5	-0,526850
23,100167	0,5	-0,594300
23,108500	0,5	-0,654250
23,116833	0,5	-0,734800
23,125167	0,5	-0,814050
23,133500	0,5	-0,871650
23,141833	0,5	-0,913750
23,150167	0,5	-0,957000
23,158500	0,5	-1,001500
23,166833	0,5	-1,054200
23,175167	0,5	-1,083000
23,183500	0,5	-1,117950
23,191833	0,5	-1,147400
23,200167	0,5	-1,184900
23,208500	0,5	-1,208500
23,216833	0,5	-1,243050
23,225167	0,5	-1,260250
23,233500	0,5	-1,290250
23,241833	0,5	-1,306900
23,250167	0,5	-1,328700
23,258500	0,5	-1,340500
23,266833	0,5	-1,381850
23,275167	0,5	-1,413850
23,283500	0,5	-1,438850
23,291833	0,5	-1,450350
23,300167	0,5	-1,454800
23,308500	0,5	-1,471850
23,316833	0,5	-1,478700
23,325167	0,5	-1,487600
23,333500	0,5	-1,492250
23,341833	0,5	-1,495000
23,350167	0,5	-1,495500
23,358500	0,5	-1,501950
23,366833	0,5	-1,500700
23,375167	0,5	-1,505250
23,383500	0,5	-1,502650
23,391833	0,5	-1,556000
23,400167	0,5	-1,521050
23,408500	0,5	-1,495800
23,416833	0,5	-1,505900
23,425167	0,5	-1,517350
23,433500	0,5	-1,521650
23,441833	0,5	-1,519450
23,450167	0,5	-1,517850
23,458500	0,5	-1,519150
23,466833	0,5	-1,517450
23,475167	0,5	-1,511550
23,483500	0,5	-1,512250
23,491833	0,5	-1,504500
23,500167	0,5	-1,498700
23,508500	0,5	-1,490700
23,516833	0,5	-1,484250
23,525167	0,5	-1,474550
23,533500	0,5	-1,491600
23,541833	0,5	-1,542250
23,550167	0,5	-1,487450
23,558500	0,5	-1,452750
23,566833	0,5	-1,438750
23,575167	0,5	-1,438200
23,583500	0,5	-1,432850
23,591833	0,5	-1,426200
23,600167	0,5	-1,421850
23,608500	0,5	-1,409250
23,616833	0,5	-1,406300
23,625167	0,5	-1,396500
23,633500	0,5	-1,390500
23,641833	0,5	-1,381500
23,650167	0,5	-1,371250
23,658500	0,5	-1,361450
23,666833	0,5	-1,355150
23,675167	0,5	-1,345100
23,683500	0,5	-1,434200
23,691833	0,5	-1,406600
23,700167	0,5	-1,370000
23,708500	0,5	-1,316100
23,716833	0,5	-1,301500
23,725167	0,5	-1,292650
23,733500	0,5	-1,281950
23,741833	0,5	-1,273700
23,750167	0,5	-1,263500
23,758500	0,5	-1,249900
23,766833	0,5	-1,237150
23,775167	0,5	-1,222950
23,783500	0,5	-1,211100
23,791833	0,5	-1,198300
23,800167	0,5	-1,181000
23,808500	0,5	-1,172850
23,816833	0,5	-1,162150
23,825167	0,5	-1,165300
23,833500	0,5	-1,254500
23,841833	0,5	-1,223550
23,850167	0,5	-1,165550
23,858500	0,5	-1,124050
23,866833	0,5	-1,100850
23,875167	0,5	-1,094250
23,883500	0,5	-1,088300
23,891833	0,5	-1,085950
23,900167	0,5	-1,069500
23,908500	0,5	-1,059000
23,916833	0,5	-1,044750
23,925167	0,5	-1,031550
23,933500	0,5	-1,013050
23,941833	0,5	-0,998250
23,950167	0,5	-0,988100
23,958500	0,5	-0,968900
23,966833	0,5	-0,956750
23,975167	0,5	-1,003600
23,983500	0,5	-1,031700
23,991833	0,5	-1,001850
24,000167	0,5	-0,946400
24,008500	0,5	-0,917700
24,016833	0,5	-0,899400
24,025167	0,5	-0,880450
24,033500	0,5	-0,884450
24,041833	0,5	-0,870050
24,050167	0,5	-0,857500
24,058500	0,5	-0,840700
24,066833	0,5	-0,832850
24,075167	0,5	-0,817700
24,083500	0,5	-0,807750
24,091833	0,5	-0,794750
24,100167	0,5	-0,782450
24,108500	0,5	-0,775250
24,116833	0,5	-0,763250
24,125167	0,5	-0,855100
24,133500	0,5	-0,810600
24,141833	0,5	-0,791000
24,150167	0,5	-0,738850
24,158500	0,5	-0,715400
24,166833	0,5	-0,698400
24,175167	0,5	-0,691550
24,183500	0,5	-0,690900
24,191833	0,5	-0,679150
24,200167	0,5	-0,660150
24,208500	0,5	-0,654950
24,216833	0,5	-0,637550
24,225167	0,5	-0,627100
24,233500	0,5	-0,613600
24,241833	0,5	-0,604500
24,250167	0,5	-0,592200
24,258500	0,5	-0,586700
24,266833	0,5	-0,595850
24,275167	0,5	-0,652900
24,283500	0,5	-0,615250
24,291833	0,5	-0,593900
24,300167	0,5	-0,561600
24,308500	0,5	-0,546250
24,316833	0,5	-0,537600
24,325167	0,5	-0,530250
24,333500	0,5	-0,537700
24,341833	0,5	-0,515450
24,350167	0,5	-0,506050
24,358500	0,5	-0,497050
24,366833	0,5	-0,487950
24,375167	0,5	-0,473950
24,383500	0,5	-0,466350
24,391833	0,5	-0,456250
24,400167	0,5	-0,449100
24,408500	0,5	-0,442100
24,416833	0,5	-0,475850
24,425167	0,5	-0,485700
24,433500	0,5	-0,459950
24,441833	0,5	-0,433900
24,450167	0,5	-0,411300
24,458500	0,5	-0,404650
24,466833	0,5	-0,401050
24,475167	0,5	-0,399550
24,483500	0,5	-0,402700
24,491833	0,5	-0,400150
24,500167	0,5	-0,385150
24,508500	0,5	-0,379850
24,516833	0,5	-0,370100
24,525167	0,5	-0,365000
24,533500	0,5	-0,354900
24,541833	0,5	-0,347350
24,550167	0,5	-0,336850
24,558500	0,5	-0,334850
24,566833	0,5	-0,370050
24,575167	0,5	-0,357150
24,583500	0,5	-0,339100
24,591833	0,5	-0,323750
24,600167	0,5	-0,307300
24,608500	0,5	-0,304200
24,616833	0,5	-0,302450
24,625167	0,5	-0,302950
24,633500	0,5	-0,303050
24,641833	0,5	-0,293050
24,650167	0,5	-0,287300
24,658500	0,5	-0,282750
24,666833	0,5	-0,275900
24,675167	0,5	-0,271050
24,683500	0,5	-0,268400
24,691833	0,5	-0,264650
24,700167	0,5	-0,260900
24,708500	0,5	-0,258400
24,716833	0,5	-0,283700
24,725167	0,5	-0,268200
24,733500	0,5	-0,257600
24,741833	0,5	-0,241500
24,750167	0,5	-0,234100
24,758500	0,5	-0,231500
24,766833	0,5	-0,232200
24,775167	0,5	-0,231200
24,783500	0,5	-0,231000
24,791833	0,5	-0,228200
24,800167	0,5	-0,220200
24,808500	0,5	-0,215400
24,816833	0,5	-0,213500
24,825167	0,5	-0,209400
24,833500	0,5	-0,206000
24,841833	0,5	-0,202600
24,850167	0,5	-0,198150
24,858500	0,5	-0,211800
24,866833	0,5	-0,209700
24,875167	0,5	-0,206650
24,883500	0,5	-0,193750
24,891833	0,5	-0,185850
24,900167	0,5	-0,178450
24,908500	0,5	-0,180600
24,916833	0,5	-0,180750
24,925167	0,5	-0,180850
24,933500	0,5	-0,173150
24,941833	0,5	-0,171400
24,950167	0,5	-0,168750
24,958500	0,5	-0,164650
24,966833	0,5	-0,162500
24,975167	0,5	-0,161550
24,983500	0,5	-0,158050
24,991833	0,5	-0,155600
25,000167	0,5	-0,155150
25,008500	0,5	-0,166500
25,016833	0,5	-0,154950
25,025167	0,5	-0,158400
25,033500	0,5	-0,151000
25,041833	0,5	-0,146250
25,050167	0,5	-0,141150
25,058500	0,5	-0,142500
25,066833	0,5	-0,144700
25,075167	0,5	-0,141500
25,083500	0,5	-0,139850
25,091833	0,5	-0,138050
25,100167	0,5	-0,135950
25,108500	0,5	-0,136100
25,116833	0,5	-0,134300
25,125167	0,5	-0,131800
25,133500	0,5	-0,130000
25,141833	0,5	-0,127000
25,150167	0,5	-0,126900
25,158500	0,5	-0,131900
25,166833	0,5	-0,122950
25,175167	0,5	-0,123000
25,183500	0,5	-0,120250
25,191833	0,5	-0,118650
25,200167	0,5	-0,118100
25,208500	0,5	-0,117000
25,216833	0,5	-0,119800
25,225167	0,5	-0,120950
25,233500	0,5	-0,118900
25,241833	0,5	-0,118350
25,250167	0,5	-0,116200
25,258500	0,5	-0,116200
25,266833	0,5	-0,118500
25,275167	0,5	-0,117500
25,283500	0,5	-0,115350
25,291833	0,5	-0,116650
25,300167	0,5	-0,115450
25,308500	0,5	-0,112800
25,316833	0,5	-0,111400
25,325167	0,5	-0,110200
25,333500	0,5	-0,108250
25,341833	0,5	-0,105650
25,350167	0,5	-0,105450
25,358500	0,5	-0,104700
25,366833	0,5	-0,108150
25,375167	0,5	-0,105850
25,383500	0,5	-0,106350
25,391833	0,5	-0,107050
25,400167	0,5	-0,106300
25,408500	0,5	-0,106900
25,416833	0,5	-0,107100
25,425167	0,5	-0,104150
25,433500	0,5	-0,106100
25,441833	0,5	-0,103050
25,450167	0,5	-0,101850
25,458500	0,5	-0,099550
25,466833	0,5	-0,099750
25,475167	0,5	-0,101150
25,483500	0,5	-0,102700
25,491833	0,5	-0,101650
25,500167	0,5	-0,100050
25,508500	0,5	-0,099500
25,516833	0,5	-0,099700
25,525167	0,5	-0,097700
25,533500	0,5	-0,098700
25,541833	0,5	-0,095500
25,550167	0,5	-0,097100
25,558500	0,5	-0,097400
25,566833	0,5	-0,099000
25,575167	0,5	-0,096600
25,583500	0,5	-0,097950
25,591833	0,5	-0,098050
25,600167	0,5	-0,096000
25,608500	0,5	-0,092850
25,616833	0,5	-0,092000
25,625167	0,5	-0,098300
25,633500	0,5	-0,096500
25,641833	0,5	-0,095450
25,650167	0,5	-0,093400
25,658500	0,5	-0,092800
25,666833	0,5	-0,090250
25,675167	0,5	-0,089700
25,683500	0,5	-0,089350
25,691833	0,5	-0,092000
25,700167	0,5	-0,088700
25,708500	0,5	-0,088850
25,716833	0,5	-0,088400
25,725167	0,5	-0,089700
25,733500	0,5	-0,086000
25,741833	0,5	-0,088300
25,750167	0,5	-0,083400
25,758500	0,5	-0,081250
25,766833	0,5	-0,080300
25,775167	0,5	-0,085900
25,783500	0,5	-0,086450
25,791833	0,5	-0,085600
25,800167	0,5	-0,082200
25,808500	0,5	-0,079400
25,816833	0,5	-0,080750
25,825167	0,5	-0,077600
25,833500	0,5	-0,077100
25,841833	0,5	-0,077600
25,850167	0,5	-0,075450
25,858500	0,5	-0,072300
25,866833	0,5	-0,077350
25,875167	0,5	-0,075150
25,883500	0,5	-0,077700
25,891833	0,5	-0,072300
25,900167	0,5	-0,076400
25,908500	0,5	-0,068150
25,916833	0,5	-0,076750
25,925167	0,5	-0,075350
25,933500	0,5	-0,075850
25,941833	0,5	-0,072100
25,950167	0,5	-0,066150
25,958500	0,5	-0,063300
25,966833	0,5	-0,065550
25,975167	0,5	-0,065100
25,983500	0,5	-0,065950
25,991833	0,5	-0,064300
26,000167	0,5	-0,061800
