File Path	chrom://chromeleon01/ikbm_chromeleon/2022/ICS-5000/ED1/Esteban/20220612_Cell_7_4_eg.seq/837.smp/ED_1.channel/ED_1.chm
Channel	ED_1

Injection Information:
Data Vault	ikbm_chromeleon
Injection	7_24h-EGS_1
Injection Number	24
Position	RC2
Comment	
Processing Method	Stop sequence after Cell Death
Instrument Method	ICS5000_PA200_FullNative_Ox_26min_ED1
Type	Unknown
Status	Finished
Injection Date	13.06.2022
Injection Time	02:58:42
Injection Volume (µl)	5,0
Dilution Factor	1,0000
Weight	1,0000

Chromatogram Data Information:
Time Min. (min)	0,000167
Time Max. (min)	26,000167
Data Points	3121
Detector	EDet1
Generating Data System	Chromeleon 7.2.9.11323
Exporting Data System	Chromeleon 7.2.9.0
Operator	Instrument Controller
Signal Quantity	
Signal Unit	nC
Signal Min.	-1,447950
Signal Max.	834,826112
Channel	ED_1
Driver Name	DC-5000
Channel Type	Evaluation
Min. Step (s)	0,5
Max. Step (s)	0,5
Average Step (s)	0,5

Signal Parameter Information:
Signal Info	

Chromatogram Data:
Time (min)	Step (s)	Value (nC)
0,000167	n.a.	-0,017550
0,008500	0,5	-0,046150
0,016833	0,5	-0,042700
0,025167	0,5	-0,041400
0,033500	0,5	-0,035450
0,041833	0,5	-0,018500
0,050167	0,5	0,002250
0,058500	0,5	0,000450
0,066833	0,5	0,001150
0,075167	0,5	0,000000
0,083500	0,5	0,008400
0,091833	0,5	0,006850
0,100167	0,5	0,003900
0,108500	0,5	0,003450
0,116833	0,5	0,000400
0,125167	0,5	0,007350
0,133500	0,5	0,008900
0,141833	0,5	0,007300
0,150167	0,5	0,006100
0,158500	0,5	0,016600
0,166833	0,5	0,000050
0,175167	0,5	0,000650
0,183500	0,5	0,006650
0,191833	0,5	0,021200
0,200167	0,5	0,024800
0,208500	0,5	0,020350
0,216833	0,5	0,016100
0,225167	0,5	0,027350
0,233500	0,5	0,024950
0,241833	0,5	0,026500
0,250167	0,5	0,026950
0,258500	0,5	0,020600
0,266833	0,5	0,020550
0,275167	0,5	0,025800
0,283500	0,5	0,035650
0,291833	0,5	0,019550
0,300167	0,5	0,068350
0,308500	0,5	0,065500
0,316833	0,5	0,033800
0,325167	0,5	0,013150
0,333500	0,5	0,014600
0,341833	0,5	0,023800
0,350167	0,5	0,030650
0,358500	0,5	0,026600
0,366833	0,5	0,036300
0,375167	0,5	0,038850
0,383500	0,5	0,040800
0,391833	0,5	0,031950
0,400167	0,5	0,035500
0,408500	0,5	0,034800
0,416833	0,5	0,037000
0,425167	0,5	0,041600
0,433500	0,5	0,031950
0,441833	0,5	0,024300
0,450167	0,5	0,043000
0,458500	0,5	0,026650
0,466833	0,5	0,032100
0,475167	0,5	0,034000
0,483500	0,5	0,041300
0,491833	0,5	0,065750
0,500167	0,5	0,055300
0,508500	0,5	0,058600
0,516833	0,5	0,048200
0,525167	0,5	0,060600
0,533500	0,5	0,056500
0,541833	0,5	0,063800
0,550167	0,5	0,059000
0,558500	0,5	0,062900
0,566833	0,5	0,065500
0,575167	0,5	0,061650
0,583500	0,5	0,055000
0,591833	0,5	0,060000
0,600167	0,5	0,066550
0,608500	0,5	0,057300
0,616833	0,5	0,057900
0,625167	0,5	0,059450
0,633500	0,5	0,068550
0,641833	0,5	0,092200
0,650167	0,5	0,098800
0,658500	0,5	0,095550
0,666833	0,5	0,101050
0,675167	0,5	0,092400
0,683500	0,5	0,095550
0,691833	0,5	0,088050
0,700167	0,5	0,087650
0,708500	0,5	0,089300
0,716833	0,5	0,093700
0,725167	0,5	0,094850
0,733500	0,5	0,097150
0,741833	0,5	0,102450
0,750167	0,5	0,106600
0,758500	0,5	0,094850
0,766833	0,5	0,099400
0,775167	0,5	0,104100
0,783500	0,5	0,119550
0,791833	0,5	0,130450
0,800167	0,5	0,128050
0,808500	0,5	0,131250
0,816833	0,5	0,130950
0,825167	0,5	0,134550
0,833500	0,5	0,132250
0,841833	0,5	0,136350
0,850167	0,5	0,138850
0,858500	0,5	0,144200
0,866833	0,5	0,141950
0,875167	0,5	0,136250
0,883500	0,5	0,131850
0,891833	0,5	0,156900
0,900167	0,5	0,142850
0,908500	0,5	0,139450
0,916833	0,5	0,143050
0,925167	0,5	0,152250
0,933500	0,5	0,169150
0,941833	0,5	0,178100
0,950167	0,5	0,184350
0,958500	0,5	0,180550
0,966833	0,5	0,182800
0,975167	0,5	0,184400
0,983500	0,5	0,185500
0,991833	0,5	0,185700
1,000167	0,5	0,185950
1,008500	0,5	0,184600
1,016833	0,5	0,190700
1,025167	0,5	0,176950
1,033500	0,5	0,187550
1,041833	0,5	0,205900
1,050167	0,5	0,194700
1,058500	0,5	0,189450
1,066833	0,5	0,197850
1,075167	0,5	0,205500
1,083500	0,5	0,228700
1,091833	0,5	0,223300
1,100167	0,5	0,227950
1,108500	0,5	0,224650
1,116833	0,5	0,230800
1,125167	0,5	0,232400
1,133500	0,5	0,236100
1,141833	0,5	0,238800
1,150167	0,5	0,237500
1,158500	0,5	0,241200
1,166833	0,5	0,241150
1,175167	0,5	0,234600
1,183500	0,5	0,245550
1,191833	0,5	0,249400
1,200167	0,5	0,239300
1,208500	0,5	0,240750
1,216833	0,5	0,246450
1,225167	0,5	0,264550
1,233500	0,5	0,273400
1,241833	0,5	0,269550
1,250167	0,5	0,265700
1,258500	0,5	0,273900
1,266833	0,5	0,273000
1,275167	0,5	0,271950
1,283500	0,5	0,274800
1,291833	0,5	0,271600
1,300167	0,5	0,274450
1,308500	0,5	0,269050
1,316833	0,5	0,275350
1,325167	0,5	0,269050
1,333500	0,5	0,288700
1,341833	0,5	0,277400
1,350167	0,5	0,271250
1,358500	0,5	0,266550
1,366833	0,5	0,271800
1,375167	0,5	0,286800
1,383500	0,5	0,292800
1,391833	0,5	0,283150
1,400167	0,5	0,285900
1,408500	0,5	0,284000
1,416833	0,5	0,288600
1,425167	0,5	0,283500
1,433500	0,5	0,283400
1,441833	0,5	0,276750
1,450167	0,5	0,282700
1,458500	0,5	0,282500
1,466833	0,5	0,283200
1,475167	0,5	0,276800
1,483500	0,5	0,294100
1,491833	0,5	0,274400
1,500167	0,5	0,273350
1,508500	0,5	0,272400
1,516833	0,5	0,280600
1,525167	0,5	0,295700
1,533500	0,5	0,291500
1,541833	0,5	0,289050
1,550167	0,5	0,287800
1,558500	0,5	0,304950
1,566833	0,5	0,345150
1,575167	0,5	0,444250
1,583500	0,5	0,883600
1,591833	0,5	3,753400
1,600167	0,5	15,976250
1,608500	0,5	57,447301
1,616833	0,5	173,822053
1,625167	0,5	402,394956
1,633500	0,5	673,167910
1,641833	0,5	834,826112
1,650167	0,5	806,853462
1,658500	0,5	646,626310
1,666833	0,5	465,779907
1,675167	0,5	324,516005
1,683500	0,5	228,822803
1,691833	0,5	167,159152
1,700167	0,5	128,123502
1,708500	0,5	103,516652
1,716833	0,5	87,479101
1,725167	0,5	76,252751
1,733500	0,5	67,717701
1,741833	0,5	60,396601
1,750167	0,5	53,697001
1,758500	0,5	47,889801
1,766833	0,5	43,428901
1,775167	0,5	40,196151
1,783500	0,5	37,655551
1,791833	0,5	35,305301
1,800167	0,5	32,995550
1,808500	0,5	30,822850
1,816833	0,5	29,039800
1,825167	0,5	27,825300
1,833500	0,5	27,410550
1,841833	0,5	27,825650
1,850167	0,5	28,684400
1,858500	0,5	29,062950
1,866833	0,5	28,205750
1,875167	0,5	26,299850
1,883500	0,5	24,233100
1,891833	0,5	22,713200
1,900167	0,5	22,094350
1,908500	0,5	22,644100
1,916833	0,5	24,589450
1,925167	0,5	27,696100
1,933500	0,5	30,823450
1,941833	0,5	32,417450
1,950167	0,5	31,416250
1,958500	0,5	28,459400
1,966833	0,5	25,363950
1,975167	0,5	23,173150
1,983500	0,5	21,645700
1,991833	0,5	20,514900
2,000167	0,5	19,973950
2,008500	0,5	19,842800
2,016833	0,5	19,393600
2,025167	0,5	18,478950
2,033500	0,5	17,447850
2,041833	0,5	16,502550
2,050167	0,5	15,743300
2,058500	0,5	15,332700
2,066833	0,5	15,414350
2,075167	0,5	15,692150
2,083500	0,5	15,625150
2,091833	0,5	15,155300
2,100167	0,5	14,599750
2,108500	0,5	14,145700
2,116833	0,5	13,838600
2,125167	0,5	13,623700
2,133500	0,5	13,504000
2,141833	0,5	13,362650
2,150167	0,5	13,189100
2,158500	0,5	13,017950
2,166833	0,5	12,912550
2,175167	0,5	12,880400
2,183500	0,5	12,994050
2,191833	0,5	13,439950
2,200167	0,5	14,589150
2,208500	0,5	15,667800
2,216833	0,5	15,213550
2,225167	0,5	14,008050
2,233500	0,5	13,316700
2,241833	0,5	13,096200
2,250167	0,5	13,120100
2,258500	0,5	13,305600
2,266833	0,5	13,636850
2,275167	0,5	14,165600
2,283500	0,5	15,060950
2,291833	0,5	16,745600
2,300167	0,5	19,811250
2,308500	0,5	24,360850
2,316833	0,5	29,225400
2,325167	0,5	32,625450
2,333500	0,5	33,466750
2,341833	0,5	32,084300
2,350167	0,5	29,768000
2,358500	0,5	27,976350
2,366833	0,5	27,644150
2,375167	0,5	28,854600
2,383500	0,5	31,563250
2,391833	0,5	36,580751
2,400167	0,5	45,377401
2,408500	0,5	57,762151
2,416833	0,5	69,418701
2,425167	0,5	74,206751
2,433500	0,5	69,942451
2,441833	0,5	59,993051
2,450167	0,5	49,569201
2,458500	0,5	42,154001
2,466833	0,5	39,194701
2,475167	0,5	40,825651
2,483500	0,5	46,091501
2,491833	0,5	53,071351
2,500167	0,5	59,236151
2,508500	0,5	61,815951
2,516833	0,5	59,248251
2,525167	0,5	52,259651
2,533500	0,5	43,526251
2,541833	0,5	35,510451
2,550167	0,5	29,377700
2,558500	0,5	25,128400
2,566833	0,5	22,275200
2,575167	0,5	20,362550
2,583500	0,5	19,093100
2,591833	0,5	18,319750
2,600167	0,5	17,982000
2,608500	0,5	18,045500
2,616833	0,5	18,342450
2,625167	0,5	18,551400
2,633500	0,5	18,367350
2,641833	0,5	17,728650
2,650167	0,5	16,840600
2,658500	0,5	16,028550
2,666833	0,5	15,441550
2,675167	0,5	15,104900
2,683500	0,5	15,008100
2,691833	0,5	15,158850
2,700167	0,5	15,695950
2,708500	0,5	16,930300
2,716833	0,5	19,146350
2,725167	0,5	22,184700
2,733500	0,5	25,029050
2,741833	0,5	26,406550
2,750167	0,5	25,691750
2,758500	0,5	23,334750
2,766833	0,5	20,356450
2,775167	0,5	17,666350
2,783500	0,5	15,665300
2,791833	0,5	14,304950
2,800167	0,5	13,427650
2,808500	0,5	12,871900
2,816833	0,5	12,500500
2,825167	0,5	12,242900
2,833500	0,5	12,045950
2,841833	0,5	11,845800
2,850167	0,5	11,643400
2,858500	0,5	11,406050
2,866833	0,5	11,154000
2,875167	0,5	10,887850
2,883500	0,5	10,644250
2,891833	0,5	10,398400
2,900167	0,5	10,189800
2,908500	0,5	9,988300
2,916833	0,5	9,800850
2,925167	0,5	9,628350
2,933500	0,5	9,464800
2,941833	0,5	9,331150
2,950167	0,5	9,195400
2,958500	0,5	9,077450
2,966833	0,5	8,930000
2,975167	0,5	8,792150
2,983500	0,5	8,657900
2,991833	0,5	8,525500
3,000167	0,5	8,397850
3,008500	0,5	8,252700
3,016833	0,5	8,107150
3,025167	0,5	7,980850
3,033500	0,5	7,858450
3,041833	0,5	7,747850
3,050167	0,5	7,634950
3,058500	0,5	7,528350
3,066833	0,5	7,415300
3,075167	0,5	7,298000
3,083500	0,5	7,186300
3,091833	0,5	7,071350
3,100167	0,5	6,967450
3,108500	0,5	6,879950
3,116833	0,5	6,769300
3,125167	0,5	6,667600
3,133500	0,5	6,576650
3,141833	0,5	6,492200
3,150167	0,5	6,421150
3,158500	0,5	6,324700
3,166833	0,5	6,245400
3,175167	0,5	6,165350
3,183500	0,5	6,090550
3,191833	0,5	6,012050
3,200167	0,5	5,944600
3,208500	0,5	5,870000
3,216833	0,5	5,803800
3,225167	0,5	5,738150
3,233500	0,5	5,683200
3,241833	0,5	5,620250
3,250167	0,5	5,581600
3,258500	0,5	5,521550
3,266833	0,5	5,471000
3,275167	0,5	5,422100
3,283500	0,5	5,384850
3,291833	0,5	5,352400
3,300167	0,5	5,312700
3,308500	0,5	5,274350
3,316833	0,5	5,237350
3,325167	0,5	5,215350
3,333500	0,5	5,200350
3,341833	0,5	5,206300
3,350167	0,5	5,233550
3,358500	0,5	5,308200
3,366833	0,5	5,446800
3,375167	0,5	5,663000
3,383500	0,5	5,955950
3,391833	0,5	6,284150
3,400167	0,5	6,609850
3,408500	0,5	6,854000
3,416833	0,5	6,975450
3,425167	0,5	6,958900
3,433500	0,5	6,837250
3,441833	0,5	6,663600
3,450167	0,5	6,466950
3,458500	0,5	6,287900
3,466833	0,5	6,139250
3,475167	0,5	5,999200
3,483500	0,5	5,841750
3,491833	0,5	5,650650
3,500167	0,5	5,427800
3,508500	0,5	5,193600
3,516833	0,5	4,981950
3,525167	0,5	4,795200
3,533500	0,5	4,649700
3,541833	0,5	4,533800
3,550167	0,5	4,470600
3,558500	0,5	4,399000
3,566833	0,5	4,364550
3,575167	0,5	4,326750
3,583500	0,5	4,303650
3,591833	0,5	4,285250
3,600167	0,5	4,263650
3,608500	0,5	4,241700
3,616833	0,5	4,237650
3,625167	0,5	4,245100
3,633500	0,5	4,260700
3,641833	0,5	4,281250
3,650167	0,5	4,299250
3,658500	0,5	4,329700
3,666833	0,5	4,354250
3,675167	0,5	4,374650
3,683500	0,5	4,381200
3,691833	0,5	4,397300
3,700167	0,5	4,397800
3,708500	0,5	4,381150
3,716833	0,5	4,367450
3,725167	0,5	4,350350
3,733500	0,5	4,333950
3,741833	0,5	4,315700
3,750167	0,5	4,286900
3,758500	0,5	4,271550
3,766833	0,5	4,256400
3,775167	0,5	4,256000
3,783500	0,5	4,267500
3,791833	0,5	4,290250
3,800167	0,5	4,318550
3,808500	0,5	4,349450
3,816833	0,5	4,378450
3,825167	0,5	4,387850
3,833500	0,5	4,385950
3,841833	0,5	4,377000
3,850167	0,5	4,337650
3,858500	0,5	4,289050
3,866833	0,5	4,247900
3,875167	0,5	4,207000
3,883500	0,5	4,182300
3,891833	0,5	4,144100
3,900167	0,5	4,116650
3,908500	0,5	4,077500
3,916833	0,5	4,043050
3,925167	0,5	3,982850
3,933500	0,5	3,894550
3,941833	0,5	3,770750
3,950167	0,5	3,640950
3,958500	0,5	3,517200
3,966833	0,5	3,417050
3,975167	0,5	3,340000
3,983500	0,5	3,287650
3,991833	0,5	3,258800
4,000167	0,5	3,222450
4,008500	0,5	3,195650
4,016833	0,5	3,179150
4,025167	0,5	3,162600
4,033500	0,5	3,151750
4,041833	0,5	3,130250
4,050167	0,5	3,104950
4,058500	0,5	3,090250
4,066833	0,5	3,068250
4,075167	0,5	3,058100
4,083500	0,5	3,045000
4,091833	0,5	3,042950
4,100167	0,5	3,037500
4,108500	0,5	3,044950
4,116833	0,5	3,062650
4,125167	0,5	3,072450
4,133500	0,5	3,092000
4,141833	0,5	3,111850
4,150167	0,5	3,114400
4,158500	0,5	3,120350
4,166833	0,5	3,125900
4,175167	0,5	3,131200
4,183500	0,5	3,130450
4,191833	0,5	3,110800
4,200167	0,5	3,095000
4,208500	0,5	3,081000
4,216833	0,5	3,072500
4,225167	0,5	3,058750
4,233500	0,5	3,054150
4,241833	0,5	3,050800
4,250167	0,5	3,053050
4,258500	0,5	3,053050
4,266833	0,5	3,057900
4,275167	0,5	3,046950
4,283500	0,5	3,051100
4,291833	0,5	3,038100
4,300167	0,5	3,023650
4,308500	0,5	3,017900
4,316833	0,5	3,015750
4,325167	0,5	3,017000
4,333500	0,5	3,014400
4,341833	0,5	3,001100
4,350167	0,5	2,991350
4,358500	0,5	2,982450
4,366833	0,5	2,971200
4,375167	0,5	2,960000
4,383500	0,5	2,946400
4,391833	0,5	2,934050
4,400167	0,5	2,915000
4,408500	0,5	2,905100
4,416833	0,5	2,881850
4,425167	0,5	2,862900
4,433500	0,5	2,851350
4,441833	0,5	2,833050
4,450167	0,5	2,819250
4,458500	0,5	2,808650
4,466833	0,5	2,803150
4,475167	0,5	2,811150
4,483500	0,5	2,807100
4,491833	0,5	2,800150
4,500167	0,5	2,788850
4,508500	0,5	2,781600
4,516833	0,5	2,770950
4,525167	0,5	2,759600
4,533500	0,5	2,746850
4,541833	0,5	2,737750
4,550167	0,5	2,734050
4,558500	0,5	2,726600
4,566833	0,5	2,721100
4,575167	0,5	2,713400
4,583500	0,5	2,713250
4,591833	0,5	2,692900
4,600167	0,5	2,683650
4,608500	0,5	2,669550
4,616833	0,5	2,665650
4,625167	0,5	2,662200
4,633500	0,5	2,651150
4,641833	0,5	2,627850
4,650167	0,5	2,617050
4,658500	0,5	2,602900
4,666833	0,5	2,589700
4,675167	0,5	2,576900
4,683500	0,5	2,563350
4,691833	0,5	2,553850
4,700167	0,5	2,549100
4,708500	0,5	2,545050
4,716833	0,5	2,547750
4,725167	0,5	2,567000
4,733500	0,5	2,591150
4,741833	0,5	2,618550
4,750167	0,5	2,663150
4,758500	0,5	2,710600
4,766833	0,5	2,772750
4,775167	0,5	2,822700
4,783500	0,5	2,858000
4,791833	0,5	2,885300
4,800167	0,5	2,888750
4,808500	0,5	2,879300
4,816833	0,5	2,853650
4,825167	0,5	2,827200
4,833500	0,5	2,794100
4,841833	0,5	2,772900
4,850167	0,5	2,762600
4,858500	0,5	2,758150
4,866833	0,5	2,777100
4,875167	0,5	2,842550
4,883500	0,5	2,922700
4,891833	0,5	3,051950
4,900167	0,5	3,246250
4,908500	0,5	3,518050
4,916833	0,5	3,879600
4,925167	0,5	4,314950
4,933500	0,5	4,819000
4,941833	0,5	5,349200
4,950167	0,5	5,866700
4,958500	0,5	6,301900
4,966833	0,5	6,613300
4,975167	0,5	6,762700
4,983500	0,5	6,730650
4,991833	0,5	6,531150
5,000167	0,5	6,195350
5,008500	0,5	5,757500
5,016833	0,5	5,286600
5,025167	0,5	4,812450
5,033500	0,5	4,361700
5,041833	0,5	3,953850
5,050167	0,5	3,617250
5,058500	0,5	3,338100
5,066833	0,5	3,123450
5,075167	0,5	2,940150
5,083500	0,5	2,798100
5,091833	0,5	2,693050
5,100167	0,5	2,604100
5,108500	0,5	2,535700
5,116833	0,5	2,482400
5,125167	0,5	2,439600
5,133500	0,5	2,402300
5,141833	0,5	2,374850
5,150167	0,5	2,349050
5,158500	0,5	2,329500
5,166833	0,5	2,314600
5,175167	0,5	2,310200
5,183500	0,5	2,291400
5,191833	0,5	2,282500
5,200167	0,5	2,277400
5,208500	0,5	2,276700
5,216833	0,5	2,281550
5,225167	0,5	2,273550
5,233500	0,5	2,265750
5,241833	0,5	2,267750
5,250167	0,5	2,261650
5,258500	0,5	2,252500
5,266833	0,5	2,240600
5,275167	0,5	2,229550
5,283500	0,5	2,226350
5,291833	0,5	2,220100
5,300167	0,5	2,220800
5,308500	0,5	2,210450
5,316833	0,5	2,227000
5,325167	0,5	2,231600
5,333500	0,5	2,241750
5,341833	0,5	2,261200
5,350167	0,5	2,287850
5,358500	0,5	2,322250
5,366833	0,5	2,356500
5,375167	0,5	2,387850
5,383500	0,5	2,431150
5,391833	0,5	2,469700
5,400167	0,5	2,519600
5,408500	0,5	2,558100
5,416833	0,5	2,598700
5,425167	0,5	2,636600
5,433500	0,5	2,660400
5,441833	0,5	2,678850
5,450167	0,5	2,679850
5,458500	0,5	2,666600
5,466833	0,5	2,650200
5,475167	0,5	2,612800
5,483500	0,5	2,563400
5,491833	0,5	2,511500
5,500167	0,5	2,454650
5,508500	0,5	2,395000
5,516833	0,5	2,330150
5,525167	0,5	2,268150
5,533500	0,5	2,203500
5,541833	0,5	2,147550
5,550167	0,5	2,097050
5,558500	0,5	2,058500
5,566833	0,5	2,021750
5,575167	0,5	1,997200
5,583500	0,5	1,979150
5,591833	0,5	1,962750
5,600167	0,5	1,951650
5,608500	0,5	1,947950
5,616833	0,5	1,945300
5,625167	0,5	1,935900
5,633500	0,5	1,932650
5,641833	0,5	1,934400
5,650167	0,5	1,940950
5,658500	0,5	1,949150
5,666833	0,5	1,960400
5,675167	0,5	1,961850
5,683500	0,5	1,972500
5,691833	0,5	1,971850
5,700167	0,5	1,980650
5,708500	0,5	1,983950
5,716833	0,5	1,983250
5,725167	0,5	1,982550
5,733500	0,5	1,981700
5,741833	0,5	1,968250
5,750167	0,5	1,955400
5,758500	0,5	1,943600
5,766833	0,5	1,926150
5,775167	0,5	1,906500
5,783500	0,5	1,894100
5,791833	0,5	1,876750
5,800167	0,5	1,869300
5,808500	0,5	1,863250
5,816833	0,5	1,848700
5,825167	0,5	1,835950
5,833500	0,5	1,821900
5,841833	0,5	1,810350
5,850167	0,5	1,792350
5,858500	0,5	1,777200
5,866833	0,5	1,759800
5,875167	0,5	1,745300
5,883500	0,5	1,732800
5,891833	0,5	1,718500
5,900167	0,5	1,704750
5,908500	0,5	1,706750
5,916833	0,5	1,692000
5,925167	0,5	1,684650
5,933500	0,5	1,679400
5,941833	0,5	1,681500
5,950167	0,5	1,682900
5,958500	0,5	1,684000
5,966833	0,5	1,684150
5,975167	0,5	1,682400
5,983500	0,5	1,683200
5,991833	0,5	1,680200
6,000167	0,5	1,674100
6,008500	0,5	1,669900
6,016833	0,5	1,663450
6,025167	0,5	1,656700
6,033500	0,5	1,647350
6,041833	0,5	1,633400
6,050167	0,5	1,625000
6,058500	0,5	1,624050
6,066833	0,5	1,608500
6,075167	0,5	1,603350
6,083500	0,5	1,603550
6,091833	0,5	1,603350
6,100167	0,5	1,609200
6,108500	0,5	1,604450
6,116833	0,5	1,606150
6,125167	0,5	1,606600
6,133500	0,5	1,611050
6,141833	0,5	1,613050
6,150167	0,5	1,612400
6,158500	0,5	1,612600
6,166833	0,5	1,615450
6,175167	0,5	1,623400
6,183500	0,5	1,629050
6,191833	0,5	1,639650
6,200167	0,5	1,656950
6,208500	0,5	1,687350
6,216833	0,5	1,710150
6,225167	0,5	1,742200
6,233500	0,5	1,773500
6,241833	0,5	1,804400
6,250167	0,5	1,823400
6,258500	0,5	1,825000
6,266833	0,5	1,816000
6,275167	0,5	1,796500
6,283500	0,5	1,766050
6,291833	0,5	1,740550
6,300167	0,5	1,714750
6,308500	0,5	1,699150
6,316833	0,5	1,689400
6,325167	0,5	1,686600
6,333500	0,5	1,697250
6,341833	0,5	1,698900
6,350167	0,5	1,712850
6,358500	0,5	1,720000
6,366833	0,5	1,722800
6,375167	0,5	1,727450
6,383500	0,5	1,738150
6,391833	0,5	1,746600
6,400167	0,5	1,759100
6,408500	0,5	1,778150
6,416833	0,5	1,807650
6,425167	0,5	1,841400
6,433500	0,5	1,890000
6,441833	0,5	1,946950
6,450167	0,5	2,026100
6,458500	0,5	2,125150
6,466833	0,5	2,241050
6,475167	0,5	2,372450
6,483500	0,5	2,512300
6,491833	0,5	2,645950
6,500167	0,5	2,771050
6,508500	0,5	2,845950
6,516833	0,5	2,875500
6,525167	0,5	2,847500
6,533500	0,5	2,769900
6,541833	0,5	2,655950
6,550167	0,5	2,508550
6,558500	0,5	2,348250
6,566833	0,5	2,188250
6,575167	0,5	2,048250
6,583500	0,5	1,929150
6,591833	0,5	1,834100
6,600167	0,5	1,759600
6,608500	0,5	1,712700
6,616833	0,5	1,676450
6,625167	0,5	1,659700
6,633500	0,5	1,643100
6,641833	0,5	1,639850
6,650167	0,5	1,633950
6,658500	0,5	1,628400
6,666833	0,5	1,623900
6,675167	0,5	1,625750
6,683500	0,5	1,632700
6,691833	0,5	1,634400
6,700167	0,5	1,639850
6,708500	0,5	1,635150
6,716833	0,5	1,638150
6,725167	0,5	1,638600
6,733500	0,5	1,636450
6,741833	0,5	1,630950
6,750167	0,5	1,624000
6,758500	0,5	1,621200
6,766833	0,5	1,613300
6,775167	0,5	1,605050
6,783500	0,5	1,601850
6,791833	0,5	1,599450
6,800167	0,5	1,591350
6,808500	0,5	1,581400
6,816833	0,5	1,580400
6,825167	0,5	1,576950
6,833500	0,5	1,577400
6,841833	0,5	1,579700
6,850167	0,5	1,578800
6,858500	0,5	1,578850
6,866833	0,5	1,581550
6,875167	0,5	1,579150
6,883500	0,5	1,578600
6,891833	0,5	1,578100
6,900167	0,5	1,578250
6,908500	0,5	1,579450
6,916833	0,5	1,577650
6,925167	0,5	1,580400
6,933500	0,5	1,580400
6,941833	0,5	1,586200
6,950167	0,5	1,585500
6,958500	0,5	1,580850
6,966833	0,5	1,584200
6,975167	0,5	1,585750
6,983500	0,5	1,594700
6,991833	0,5	1,598550
7,000167	0,5	1,593100
7,008500	0,5	1,592100
7,016833	0,5	1,587000
7,025167	0,5	1,582900
7,033500	0,5	1,580600
7,041833	0,5	1,576900
7,050167	0,5	1,577200
7,058500	0,5	1,581350
7,066833	0,5	1,591800
7,075167	0,5	1,596150
7,083500	0,5	1,608050
7,091833	0,5	1,618050
7,100167	0,5	1,618800
7,108500	0,5	1,617700
7,116833	0,5	1,614600
7,125167	0,5	1,612100
7,133500	0,5	1,619050
7,141833	0,5	1,618950
7,150167	0,5	1,628050
7,158500	0,5	1,633000
7,166833	0,5	1,641200
7,175167	0,5	1,646800
7,183500	0,5	1,653850
7,191833	0,5	1,653850
7,200167	0,5	1,656900
7,208500	0,5	1,651850
7,216833	0,5	1,647350
7,225167	0,5	1,638400
7,233500	0,5	1,637550
7,241833	0,5	1,639350
7,250167	0,5	1,633200
7,258500	0,5	1,638000
7,266833	0,5	1,642400
7,275167	0,5	1,655200
7,283500	0,5	1,670200
7,291833	0,5	1,687850
7,300167	0,5	1,705100
7,308500	0,5	1,740300
7,316833	0,5	1,777100
7,325167	0,5	1,820450
7,333500	0,5	1,861700
7,341833	0,5	1,898450
7,350167	0,5	1,918700
7,358500	0,5	1,918600
7,366833	0,5	1,904850
7,375167	0,5	1,873100
7,383500	0,5	1,835450
7,391833	0,5	1,792400
7,400167	0,5	1,750050
7,408500	0,5	1,719400
7,416833	0,5	1,695800
7,425167	0,5	1,676600
7,433500	0,5	1,670300
7,441833	0,5	1,661800
7,450167	0,5	1,660700
7,458500	0,5	1,660250
7,466833	0,5	1,661750
7,475167	0,5	1,665400
7,483500	0,5	1,672350
7,491833	0,5	1,680900
7,500167	0,5	1,689450
7,508500	0,5	1,699550
7,516833	0,5	1,709750
7,525167	0,5	1,723700
7,533500	0,5	1,743250
7,541833	0,5	1,758650
7,550167	0,5	1,784400
7,558500	0,5	1,816050
7,566833	0,5	1,860400
7,575167	0,5	1,920850
7,583500	0,5	2,001150
7,591833	0,5	2,098200
7,600167	0,5	2,223650
7,608500	0,5	2,385950
7,616833	0,5	2,580650
7,625167	0,5	2,813550
7,633500	0,5	3,075800
7,641833	0,5	3,353450
7,650167	0,5	3,628700
7,658500	0,5	3,876050
7,666833	0,5	4,061250
7,675167	0,5	4,173950
7,683500	0,5	4,195650
7,691833	0,5	4,116000
7,700167	0,5	3,948000
7,708500	0,5	3,715600
7,716833	0,5	3,444500
7,725167	0,5	3,163750
7,733500	0,5	2,888350
7,741833	0,5	2,642850
7,750167	0,5	2,437600
7,758500	0,5	2,270800
7,766833	0,5	2,146300
7,775167	0,5	2,064750
7,783500	0,5	2,013250
7,791833	0,5	1,989900
7,800167	0,5	2,000500
7,808500	0,5	2,030400
7,816833	0,5	2,095700
7,825167	0,5	2,189600
7,833500	0,5	2,296850
7,841833	0,5	2,412200
7,850167	0,5	2,521700
7,858500	0,5	2,609800
7,866833	0,5	2,662800
7,875167	0,5	2,671400
7,883500	0,5	2,640900
7,891833	0,5	2,579800
7,900167	0,5	2,505050
7,908500	0,5	2,431000
7,916833	0,5	2,368900
7,925167	0,5	2,316450
7,933500	0,5	2,274150
7,941833	0,5	2,246850
7,950167	0,5	2,225450
7,958500	0,5	2,213100
7,966833	0,5	2,214900
7,975167	0,5	2,230800
7,983500	0,5	2,254600
7,991833	0,5	2,287300
8,000167	0,5	2,320200
8,008500	0,5	2,342150
8,016833	0,5	2,349950
8,025167	0,5	2,330100
8,033500	0,5	2,297100
8,041833	0,5	2,252200
8,050167	0,5	2,201000
8,058500	0,5	2,159750
8,066833	0,5	2,127550
8,075167	0,5	2,103750
8,083500	0,5	2,096450
8,091833	0,5	2,104800
8,100167	0,5	2,130150
8,108500	0,5	2,152550
8,116833	0,5	2,168050
8,125167	0,5	2,170700
8,133500	0,5	2,137400
8,141833	0,5	2,075200
8,150167	0,5	2,009750
8,158500	0,5	1,943350
8,166833	0,5	1,890150
8,175167	0,5	1,850150
8,183500	0,5	1,831050
8,191833	0,5	1,826300
8,200167	0,5	1,830950
8,208500	0,5	1,846900
8,216833	0,5	1,871850
8,225167	0,5	1,904450
8,233500	0,5	1,952650
8,241833	0,5	2,010050
8,250167	0,5	2,081300
8,258500	0,5	2,161350
8,266833	0,5	2,260600
8,275167	0,5	2,375500
8,283500	0,5	2,507550
8,291833	0,5	2,663350
8,300167	0,5	2,859500
8,308500	0,5	3,098400
8,316833	0,5	3,396250
8,325167	0,5	3,760800
8,333500	0,5	4,203400
8,341833	0,5	4,729850
8,350167	0,5	5,333250
8,358500	0,5	5,974150
8,366833	0,5	6,614950
8,375167	0,5	7,187700
8,383500	0,5	7,634100
8,391833	0,5	7,912300
8,400167	0,5	7,992300
8,408500	0,5	7,863800
8,416833	0,5	7,530350
8,425167	0,5	6,991050
8,433500	0,5	6,278050
8,441833	0,5	5,467150
8,450167	0,5	4,635100
8,458500	0,5	3,874900
8,466833	0,5	3,238450
8,475167	0,5	2,751950
8,483500	0,5	2,400450
8,491833	0,5	2,163750
8,500167	0,5	2,009300
8,508500	0,5	1,909500
8,516833	0,5	1,848000
8,525167	0,5	1,808800
8,533500	0,5	1,789100
8,541833	0,5	1,780400
8,550167	0,5	1,773950
8,558500	0,5	1,769450
8,566833	0,5	1,759900
8,575167	0,5	1,745000
8,583500	0,5	1,735500
8,591833	0,5	1,729150
8,600167	0,5	1,743450
8,608500	0,5	1,783500
8,616833	0,5	1,832850
8,625167	0,5	1,873800
8,633500	0,5	1,894300
8,641833	0,5	1,876050
8,650167	0,5	1,820100
8,658500	0,5	1,745350
8,666833	0,5	1,669250
8,675167	0,5	1,607900
8,683500	0,5	1,563800
8,691833	0,5	1,533500
8,700167	0,5	1,515750
8,708500	0,5	1,506950
8,716833	0,5	1,500750
8,725167	0,5	1,499550
8,733500	0,5	1,496400
8,741833	0,5	1,495000
8,750167	0,5	1,494550
8,758500	0,5	1,504450
8,766833	0,5	1,507650
8,775167	0,5	1,515750
8,783500	0,5	1,531650
8,791833	0,5	1,557100
8,800167	0,5	1,592450
8,808500	0,5	1,637500
8,816833	0,5	1,702150
8,825167	0,5	1,771050
8,833500	0,5	1,834500
8,841833	0,5	1,883800
8,850167	0,5	1,913450
8,858500	0,5	1,920250
8,866833	0,5	1,909800
8,875167	0,5	1,878750
8,883500	0,5	1,847000
8,891833	0,5	1,819550
8,900167	0,5	1,796950
8,908500	0,5	1,777500
8,916833	0,5	1,760550
8,925167	0,5	1,738650
8,933500	0,5	1,709500
8,941833	0,5	1,679800
8,950167	0,5	1,643800
8,958500	0,5	1,610850
8,966833	0,5	1,584450
8,975167	0,5	1,565500
8,983500	0,5	1,556950
8,991833	0,5	1,571500
9,000167	0,5	1,605450
9,008500	0,5	1,664400
9,016833	0,5	1,740950
9,025167	0,5	1,820300
9,033500	0,5	1,884050
9,041833	0,5	1,916050
9,050167	0,5	1,923450
9,058500	0,5	1,905850
9,066833	0,5	1,878300
9,075167	0,5	1,845150
9,083500	0,5	1,813150
9,091833	0,5	1,783150
9,100167	0,5	1,752700
9,108500	0,5	1,726250
9,116833	0,5	1,705150
9,125167	0,5	1,692900
9,133500	0,5	1,686150
9,141833	0,5	1,686600
9,150167	0,5	1,683950
9,158500	0,5	1,689450
9,166833	0,5	1,679200
9,175167	0,5	1,655550
9,183500	0,5	1,623000
9,191833	0,5	1,584100
9,200167	0,5	1,551400
9,208500	0,5	1,523500
9,216833	0,5	1,495100
9,225167	0,5	1,477600
9,233500	0,5	1,465350
9,241833	0,5	1,454400
9,250167	0,5	1,447450
9,258500	0,5	1,440850
9,266833	0,5	1,437300
9,275167	0,5	1,433250
9,283500	0,5	1,428950
9,291833	0,5	1,423000
9,300167	0,5	1,420050
9,308500	0,5	1,417950
9,316833	0,5	1,423200
9,325167	0,5	1,435700
9,333500	0,5	1,461150
9,341833	0,5	1,503950
9,350167	0,5	1,573800
9,358500	0,5	1,660950
9,366833	0,5	1,752150
9,375167	0,5	1,827150
9,383500	0,5	1,873750
9,391833	0,5	1,884000
9,400167	0,5	1,859950
9,408500	0,5	1,807950
9,416833	0,5	1,742900
9,425167	0,5	1,675850
9,433500	0,5	1,609600
9,441833	0,5	1,552700
9,450167	0,5	1,503350
9,458500	0,5	1,466800
9,466833	0,5	1,432550
9,475167	0,5	1,411150
9,483500	0,5	1,395350
9,491833	0,5	1,386550
9,500167	0,5	1,382100
9,508500	0,5	1,384700
9,516833	0,5	1,387600
9,525167	0,5	1,393650
9,533500	0,5	1,401500
9,541833	0,5	1,410550
9,550167	0,5	1,418750
9,558500	0,5	1,430300
9,566833	0,5	1,449250
9,575167	0,5	1,469750
9,583500	0,5	1,492650
9,591833	0,5	1,517850
9,600167	0,5	1,533700
9,608500	0,5	1,535000
9,616833	0,5	1,522200
9,625167	0,5	1,502450
9,633500	0,5	1,481750
9,641833	0,5	1,471800
9,650167	0,5	1,480750
9,658500	0,5	1,497200
9,666833	0,5	1,518500
9,675167	0,5	1,535450
9,683500	0,5	1,537950
9,691833	0,5	1,526400
9,700167	0,5	1,514550
9,708500	0,5	1,503250
9,716833	0,5	1,503550
9,725167	0,5	1,526000
9,733500	0,5	1,571600
9,741833	0,5	1,638850
9,750167	0,5	1,737600
9,758500	0,5	1,847900
9,766833	0,5	1,969800
9,775167	0,5	2,104750
9,783500	0,5	2,260050
9,791833	0,5	2,454600
9,800167	0,5	2,703850
9,808500	0,5	2,997400
9,816833	0,5	3,314650
9,825167	0,5	3,606550
9,833500	0,5	3,823900
9,841833	0,5	3,944400
9,850167	0,5	3,957800
9,858500	0,5	3,872850
9,866833	0,5	3,716200
9,875167	0,5	3,513000
9,883500	0,5	3,281650
9,891833	0,5	3,046150
9,900167	0,5	2,814500
9,908500	0,5	2,595950
9,916833	0,5	2,397800
9,925167	0,5	2,225100
9,933500	0,5	2,075400
9,941833	0,5	1,958900
9,950167	0,5	1,857500
9,958500	0,5	1,779100
9,966833	0,5	1,707100
9,975167	0,5	1,645050
9,983500	0,5	1,585200
9,991833	0,5	1,528700
10,000167	0,5	1,480400
10,008500	0,5	1,440450
10,016833	0,5	1,420500
10,025167	0,5	1,421600
10,033500	0,5	1,440500
10,041833	0,5	1,488400
10,050167	0,5	1,551000
10,058500	0,5	1,618300
10,066833	0,5	1,674850
10,075167	0,5	1,709650
10,083500	0,5	1,722700
10,091833	0,5	1,714650
10,100167	0,5	1,690400
10,108500	0,5	1,655800
10,116833	0,5	1,628100
10,125167	0,5	1,598700
10,133500	0,5	1,576150
10,141833	0,5	1,551700
10,150167	0,5	1,528450
10,158500	0,5	1,517150
10,166833	0,5	1,513050
10,175167	0,5	1,522550
10,183500	0,5	1,542550
10,191833	0,5	1,584200
10,200167	0,5	1,634650
10,208500	0,5	1,696300
10,216833	0,5	1,759000
10,225167	0,5	1,820350
10,233500	0,5	1,878350
10,241833	0,5	1,939700
10,250167	0,5	2,002050
10,258500	0,5	2,073800
10,266833	0,5	2,144100
10,275167	0,5	2,198850
10,283500	0,5	2,196400
10,291833	0,5	2,137500
10,300167	0,5	2,038950
10,308500	0,5	1,936950
10,316833	0,5	1,852450
10,325167	0,5	1,809800
10,333500	0,5	1,819350
10,341833	0,5	1,919750
10,350167	0,5	2,153900
10,358500	0,5	2,674650
10,366833	0,5	3,485400
10,375167	0,5	3,970900
10,383500	0,5	3,903150
10,391833	0,5	3,597200
10,400167	0,5	3,068100
10,408500	0,5	2,268950
10,416833	0,5	1,519700
10,425167	0,5	1,057750
10,433500	0,5	0,809200
10,441833	0,5	0,660000
10,450167	0,5	0,571500
10,458500	0,5	0,513800
10,466833	0,5	0,479550
10,475167	0,5	0,451750
10,483500	0,5	0,430350
10,491833	0,5	0,417450
10,500167	0,5	0,396950
10,508500	0,5	0,379350
10,516833	0,5	0,360800
10,525167	0,5	0,340100
10,533500	0,5	0,323500
10,541833	0,5	0,303900
10,550167	0,5	0,288900
10,558500	0,5	0,267700
10,566833	0,5	0,249850
10,575167	0,5	0,231350
10,583500	0,5	0,214450
10,591833	0,5	0,199050
10,600167	0,5	0,177250
10,608500	0,5	0,164700
10,616833	0,5	0,153050
10,625167	0,5	0,146400
10,633500	0,5	0,140100
10,641833	0,5	0,142850
10,650167	0,5	0,138800
10,658500	0,5	0,139550
10,666833	0,5	0,142100
10,675167	0,5	0,144200
10,683500	0,5	0,148700
10,691833	0,5	0,146100
10,700167	0,5	0,134400
10,708500	0,5	0,125250
10,716833	0,5	0,111150
10,725167	0,5	0,094400
10,733500	0,5	0,078450
10,741833	0,5	0,059400
10,750167	0,5	0,040650
10,758500	0,5	0,023250
10,766833	0,5	0,010200
10,775167	0,5	-0,006650
10,783500	0,5	-0,012900
10,791833	0,5	-0,022550
10,800167	0,5	-0,031200
10,808500	0,5	-0,039000
10,816833	0,5	-0,042200
10,825167	0,5	-0,041850
10,833500	0,5	-0,040100
10,841833	0,5	-0,042100
10,850167	0,5	-0,037350
10,858500	0,5	-0,036650
10,866833	0,5	-0,035200
10,875167	0,5	-0,030800
10,883500	0,5	-0,028000
10,891833	0,5	-0,028000
10,900167	0,5	-0,028850
10,908500	0,5	-0,025550
10,916833	0,5	-0,022150
10,925167	0,5	-0,026300
10,933500	0,5	-0,024000
10,941833	0,5	-0,023900
10,950167	0,5	-0,028500
10,958500	0,5	-0,030350
10,966833	0,5	-0,032200
10,975167	0,5	-0,028950
10,983500	0,5	-0,031100
10,991833	0,5	-0,034250
11,000167	0,5	-0,037500
11,008500	0,5	-0,038550
11,016833	0,5	-0,040800
11,025167	0,5	-0,042050
11,033500	0,5	-0,048150
11,041833	0,5	-0,051750
11,050167	0,5	-0,054650
11,058500	0,5	-0,058500
11,066833	0,5	-0,071700
11,075167	0,5	-0,073200
11,083500	0,5	-0,077350
11,091833	0,5	-0,086150
11,100167	0,5	-0,092550
11,108500	0,5	-0,100900
11,116833	0,5	-0,102550
11,125167	0,5	-0,106950
11,133500	0,5	-0,105700
11,141833	0,5	-0,113700
11,150167	0,5	-0,111550
11,158500	0,5	-0,116650
11,166833	0,5	-0,115100
11,175167	0,5	-0,116200
11,183500	0,5	-0,119850
11,191833	0,5	-0,121950
11,200167	0,5	-0,122050
11,208500	0,5	-0,119800
11,216833	0,5	-0,122450
11,225167	0,5	-0,115650
11,233500	0,5	-0,114550
11,241833	0,5	-0,117400
11,250167	0,5	-0,118900
11,258500	0,5	-0,121650
11,266833	0,5	-0,122000
11,275167	0,5	-0,113950
11,283500	0,5	-0,114650
11,291833	0,5	-0,113000
11,300167	0,5	-0,111200
11,308500	0,5	-0,109250
11,316833	0,5	-0,103000
11,325167	0,5	-0,102200
11,333500	0,5	-0,101850
11,341833	0,5	-0,099950
11,350167	0,5	-0,095700
11,358500	0,5	-0,087350
11,366833	0,5	-0,093650
11,375167	0,5	-0,085100
11,383500	0,5	-0,084100
11,391833	0,5	-0,077750
11,400167	0,5	-0,079850
11,408500	0,5	-0,075150
11,416833	0,5	-0,066750
11,425167	0,5	-0,059600
11,433500	0,5	-0,050650
11,441833	0,5	-0,045350
11,450167	0,5	-0,033000
11,458500	0,5	-0,026800
11,466833	0,5	-0,017200
11,475167	0,5	-0,009150
11,483500	0,5	-0,001650
11,491833	0,5	0,006650
11,500167	0,5	0,016250
11,508500	0,5	0,017550
11,516833	0,5	0,024750
11,525167	0,5	0,029050
11,533500	0,5	0,030550
11,541833	0,5	0,034300
11,550167	0,5	0,035500
11,558500	0,5	0,035200
11,566833	0,5	0,037700
11,575167	0,5	0,038050
11,583500	0,5	0,033000
11,591833	0,5	0,033100
11,600167	0,5	0,030600
11,608500	0,5	0,029400
11,616833	0,5	0,025800
11,625167	0,5	0,021850
11,633500	0,5	0,013600
11,641833	0,5	0,015300
11,650167	0,5	0,008800
11,658500	0,5	0,002650
11,666833	0,5	-0,001750
11,675167	0,5	-0,001350
11,683500	0,5	-0,009450
11,691833	0,5	-0,011150
11,700167	0,5	-0,017600
11,708500	0,5	-0,017700
11,716833	0,5	-0,019550
11,725167	0,5	-0,019100
11,733500	0,5	-0,021450
11,741833	0,5	-0,020600
11,750167	0,5	-0,019850
11,758500	0,5	-0,018650
11,766833	0,5	-0,020000
11,775167	0,5	-0,022400
11,783500	0,5	-0,022350
11,791833	0,5	-0,018850
11,800167	0,5	-0,019900
11,808500	0,5	-0,021750
11,816833	0,5	-0,016100
11,825167	0,5	-0,013350
11,833500	0,5	-0,008900
11,841833	0,5	-0,009450
11,850167	0,5	-0,010100
11,858500	0,5	-0,001500
11,866833	0,5	0,005350
11,875167	0,5	0,008050
11,883500	0,5	0,016000
11,891833	0,5	0,021950
11,900167	0,5	0,030800
11,908500	0,5	0,040600
11,916833	0,5	0,050250
11,925167	0,5	0,057700
11,933500	0,5	0,067650
11,941833	0,5	0,076100
11,950167	0,5	0,079500
11,958500	0,5	0,091650
11,966833	0,5	0,102750
11,975167	0,5	0,109950
11,983500	0,5	0,111950
11,991833	0,5	0,116000
12,000167	0,5	0,121350
12,008500	0,5	0,135450
12,016833	0,5	0,134500
12,025167	0,5	0,140350
12,033500	0,5	0,143600
12,041833	0,5	0,147850
12,050167	0,5	0,149050
12,058500	0,5	0,150650
12,066833	0,5	0,153850
12,075167	0,5	0,155000
12,083500	0,5	0,159400
12,091833	0,5	0,160250
12,100167	0,5	0,156650
12,108500	0,5	0,167500
12,116833	0,5	0,174000
12,125167	0,5	0,181750
12,133500	0,5	0,191150
12,141833	0,5	0,195850
12,150167	0,5	0,212600
12,158500	0,5	0,229200
12,166833	0,5	0,247600
12,175167	0,5	0,264650
12,183500	0,5	0,293750
12,191833	0,5	0,321350
12,200167	0,5	0,351350
12,208500	0,5	0,385300
12,216833	0,5	0,414500
12,225167	0,5	0,439250
12,233500	0,5	0,462800
12,241833	0,5	0,477900
12,250167	0,5	0,487750
12,258500	0,5	0,490450
12,266833	0,5	0,490450
12,275167	0,5	0,481500
12,283500	0,5	0,472300
12,291833	0,5	0,461000
12,300167	0,5	0,456900
12,308500	0,5	0,455600
12,316833	0,5	0,452750
12,325167	0,5	0,451400
12,333500	0,5	0,445800
12,341833	0,5	0,448400
12,350167	0,5	0,449450
12,358500	0,5	0,449800
12,366833	0,5	0,451650
12,375167	0,5	0,453800
12,383500	0,5	0,460450
12,391833	0,5	0,466400
12,400167	0,5	0,471100
12,408500	0,5	0,482950
12,416833	0,5	0,488200
12,425167	0,5	0,498850
12,433500	0,5	0,502400
12,441833	0,5	0,512350
12,450167	0,5	0,527700
12,458500	0,5	0,538350
12,466833	0,5	0,545950
12,475167	0,5	0,554050
12,483500	0,5	0,565850
12,491833	0,5	0,575500
12,500167	0,5	0,582950
12,508500	0,5	0,592500
12,516833	0,5	0,604450
12,525167	0,5	0,618450
12,533500	0,5	0,636550
12,541833	0,5	0,652300
12,550167	0,5	0,679900
12,558500	0,5	0,708500
12,566833	0,5	0,732150
12,575167	0,5	0,755050
12,583500	0,5	0,774100
12,591833	0,5	0,792450
12,600167	0,5	0,806350
12,608500	0,5	0,813500
12,616833	0,5	0,821600
12,625167	0,5	0,821250
12,633500	0,5	0,825750
12,641833	0,5	0,828700
12,650167	0,5	0,833600
12,658500	0,5	0,843100
12,666833	0,5	0,848900
12,675167	0,5	0,865750
12,683500	0,5	0,876850
12,691833	0,5	0,889700
12,700167	0,5	0,907000
12,708500	0,5	0,926350
12,716833	0,5	0,939950
12,725167	0,5	0,961050
12,733500	0,5	0,978800
12,741833	0,5	1,005100
12,750167	0,5	1,027450
12,758500	0,5	1,052700
12,766833	0,5	1,062550
12,775167	0,5	1,083300
12,783500	0,5	1,095100
12,791833	0,5	1,109500
12,800167	0,5	1,121000
12,808500	0,5	1,134300
12,816833	0,5	1,150200
12,825167	0,5	1,170900
12,833500	0,5	1,186700
12,841833	0,5	1,205900
12,850167	0,5	1,222600
12,858500	0,5	1,237200
12,866833	0,5	1,237150
12,875167	0,5	1,233900
12,883500	0,5	1,233050
12,891833	0,5	1,234600
12,900167	0,5	1,235000
12,908500	0,5	1,231900
12,916833	0,5	1,239150
12,925167	0,5	1,242100
12,933500	0,5	1,245850
12,941833	0,5	1,250450
12,950167	0,5	1,256250
12,958500	0,5	1,261450
12,966833	0,5	1,265150
12,975167	0,5	1,276800
12,983500	0,5	1,273650
12,991833	0,5	1,281650
13,000167	0,5	1,287750
13,008500	0,5	1,287900
13,016833	0,5	1,289800
13,025167	0,5	1,285000
13,033500	0,5	1,295300
13,041833	0,5	1,306450
13,050167	0,5	1,315450
13,058500	0,5	1,323000
13,066833	0,5	1,326900
13,075167	0,5	1,335500
13,083500	0,5	1,334950
13,091833	0,5	1,334500
13,100167	0,5	1,329100
13,108500	0,5	1,327450
13,116833	0,5	1,326100
13,125167	0,5	1,320600
13,133500	0,5	1,309900
13,141833	0,5	1,315950
13,150167	0,5	1,317250
13,158500	0,5	1,308850
13,166833	0,5	1,307450
13,175167	0,5	1,303500
13,183500	0,5	1,310050
13,191833	0,5	1,314100
13,200167	0,5	1,316550
13,208500	0,5	1,318600
13,216833	0,5	1,320950
13,225167	0,5	1,325000
13,233500	0,5	1,328950
13,241833	0,5	1,328950
13,250167	0,5	1,330700
13,258500	0,5	1,326050
13,266833	0,5	1,332800
13,275167	0,5	1,333850
13,283500	0,5	1,330350
13,291833	0,5	1,338900
13,300167	0,5	1,338850
13,308500	0,5	1,335650
13,316833	0,5	1,337000
13,325167	0,5	1,331150
13,333500	0,5	1,334600
13,341833	0,5	1,334150
13,350167	0,5	1,333650
13,358500	0,5	1,328000
13,366833	0,5	1,330500
13,375167	0,5	1,329350
13,383500	0,5	1,327350
13,391833	0,5	1,330250
13,400167	0,5	1,328200
13,408500	0,5	1,334800
13,416833	0,5	1,337050
13,425167	0,5	1,341850
13,433500	0,5	1,341600
13,441833	0,5	1,349200
13,450167	0,5	1,343200
13,458500	0,5	1,338850
13,466833	0,5	1,332000
13,475167	0,5	1,326000
13,483500	0,5	1,326100
13,491833	0,5	1,325600
13,500167	0,5	1,319350
13,508500	0,5	1,317600
13,516833	0,5	1,312800
13,525167	0,5	1,314050
13,533500	0,5	1,318500
13,541833	0,5	1,319350
13,550167	0,5	1,323250
13,558500	0,5	1,331850
13,566833	0,5	1,338850
13,575167	0,5	1,337950
13,583500	0,5	1,340700
13,591833	0,5	1,341050
13,600167	0,5	1,330150
13,608500	0,5	1,317100
13,616833	0,5	1,309200
13,625167	0,5	1,303350
13,633500	0,5	1,306150
13,641833	0,5	1,307500
13,650167	0,5	1,309950
13,658500	0,5	1,313350
13,666833	0,5	1,312900
13,675167	0,5	1,311850
13,683500	0,5	1,305400
13,691833	0,5	1,298150
13,700167	0,5	1,295900
13,708500	0,5	1,298650
13,716833	0,5	1,302800
13,725167	0,5	1,311100
13,733500	0,5	1,334350
13,741833	0,5	1,354550
13,750167	0,5	1,362950
13,758500	0,5	1,362900
13,766833	0,5	1,355900
13,775167	0,5	1,343050
13,783500	0,5	1,316200
13,791833	0,5	1,297150
13,800167	0,5	1,279650
13,808500	0,5	1,272650
13,816833	0,5	1,270200
13,825167	0,5	1,280700
13,833500	0,5	1,292800
13,841833	0,5	1,310300
13,850167	0,5	1,319900
13,858500	0,5	1,332550
13,866833	0,5	1,329550
13,875167	0,5	1,346200
13,883500	0,5	1,370850
13,891833	0,5	1,402450
13,900167	0,5	1,434050
13,908500	0,5	1,455300
13,916833	0,5	1,475350
13,925167	0,5	1,471400
13,933500	0,5	1,446300
13,941833	0,5	1,397400
13,950167	0,5	1,347800
13,958500	0,5	1,301750
13,966833	0,5	1,270250
13,975167	0,5	1,247650
13,983500	0,5	1,244800
13,991833	0,5	1,249600
14,000167	0,5	1,265700
14,008500	0,5	1,292150
14,016833	0,5	1,314500
14,025167	0,5	1,354100
14,033500	0,5	1,392500
14,041833	0,5	1,426650
14,050167	0,5	1,449950
14,058500	0,5	1,453850
14,066833	0,5	1,448000
14,075167	0,5	1,417750
14,083500	0,5	1,368700
14,091833	0,5	1,315000
14,100167	0,5	1,263450
14,108500	0,5	1,226400
14,116833	0,5	1,204250
14,125167	0,5	1,198000
14,133500	0,5	1,208650
14,141833	0,5	1,233650
14,150167	0,5	1,271400
14,158500	0,5	1,313250
14,166833	0,5	1,340650
14,175167	0,5	1,377350
14,183500	0,5	1,388100
14,191833	0,5	1,384300
14,200167	0,5	1,357000
14,208500	0,5	1,316800
14,216833	0,5	1,275150
14,225167	0,5	1,228900
14,233500	0,5	1,186800
14,241833	0,5	1,155100
14,250167	0,5	1,136450
14,258500	0,5	1,131200
14,266833	0,5	1,141900
14,275167	0,5	1,155350
14,283500	0,5	1,177600
14,291833	0,5	1,198000
14,300167	0,5	1,217100
14,308500	0,5	1,220550
14,316833	0,5	1,212750
14,325167	0,5	1,197950
14,333500	0,5	1,171150
14,341833	0,5	1,135950
14,350167	0,5	1,104850
14,358500	0,5	1,088300
14,366833	0,5	1,082350
14,375167	0,5	1,084350
14,383500	0,5	1,100250
14,391833	0,5	1,121950
14,400167	0,5	1,141650
14,408500	0,5	1,161550
14,416833	0,5	1,164300
14,425167	0,5	1,166850
14,433500	0,5	1,157100
14,441833	0,5	1,138250
14,450167	0,5	1,112650
14,458500	0,5	1,086200
14,466833	0,5	1,061600
14,475167	0,5	1,045150
14,483500	0,5	1,026450
14,491833	0,5	1,014850
14,500167	0,5	1,004450
14,508500	0,5	1,006700
14,516833	0,5	1,012050
14,525167	0,5	1,014850
14,533500	0,5	1,013050
14,541833	0,5	1,002550
14,550167	0,5	0,996000
14,558500	0,5	0,989600
14,566833	0,5	0,983800
14,575167	0,5	0,976100
14,583500	0,5	0,972150
14,591833	0,5	0,968850
14,600167	0,5	0,966500
14,608500	0,5	0,961700
14,616833	0,5	0,970500
14,625167	0,5	0,971900
14,633500	0,5	0,967100
14,641833	0,5	0,953450
14,650167	0,5	0,945950
14,658500	0,5	0,943250
14,666833	0,5	0,939050
14,675167	0,5	0,931700
14,683500	0,5	0,926600
14,691833	0,5	0,919850
14,700167	0,5	0,917550
14,708500	0,5	0,911000
14,716833	0,5	0,910100
14,725167	0,5	0,907450
14,733500	0,5	0,900950
14,741833	0,5	0,904300
14,750167	0,5	0,897300
14,758500	0,5	0,896800
14,766833	0,5	0,893050
14,775167	0,5	0,883900
14,783500	0,5	0,873200
14,791833	0,5	0,859900
14,800167	0,5	0,852500
14,808500	0,5	0,853550
14,816833	0,5	0,849400
14,825167	0,5	0,850350
14,833500	0,5	0,850550
14,841833	0,5	0,858550
14,850167	0,5	0,862450
14,858500	0,5	0,868850
14,866833	0,5	0,864700
14,875167	0,5	0,860100
14,883500	0,5	0,856300
14,891833	0,5	0,849000
14,900167	0,5	0,828050
14,908500	0,5	0,830050
14,916833	0,5	0,825000
14,925167	0,5	0,820750
14,933500	0,5	0,815050
14,941833	0,5	0,801200
14,950167	0,5	0,813000
14,958500	0,5	0,813500
14,966833	0,5	0,816050
14,975167	0,5	0,810600
14,983500	0,5	0,812050
14,991833	0,5	0,809450
15,000167	0,5	0,808250
15,008500	0,5	0,808050
15,016833	0,5	0,807900
15,025167	0,5	0,810950
15,033500	0,5	0,806550
15,041833	0,5	0,805900
15,050167	0,5	0,800450
15,058500	0,5	0,804700
15,066833	0,5	0,806650
15,075167	0,5	0,794750
15,083500	0,5	0,786650
15,091833	0,5	0,774650
15,100167	0,5	0,771200
15,108500	0,5	0,771100
15,116833	0,5	0,761450
15,125167	0,5	0,754700
15,133500	0,5	0,747400
15,141833	0,5	0,751050
15,150167	0,5	0,747450
15,158500	0,5	0,747950
15,166833	0,5	0,746000
15,175167	0,5	0,744950
15,183500	0,5	0,743100
15,191833	0,5	0,742100
15,200167	0,5	0,739200
15,208500	0,5	0,748700
15,216833	0,5	0,743000
15,225167	0,5	0,732900
15,233500	0,5	0,720650
15,241833	0,5	0,715250
15,250167	0,5	0,717700
15,258500	0,5	0,713000
15,266833	0,5	0,709650
15,275167	0,5	0,702500
15,283500	0,5	0,705500
15,291833	0,5	0,701400
15,300167	0,5	0,702500
15,308500	0,5	0,700400
15,316833	0,5	0,695250
15,325167	0,5	0,689600
15,333500	0,5	0,692350
15,341833	0,5	0,684300
15,350167	0,5	0,693950
15,358500	0,5	0,695900
15,366833	0,5	0,699500
15,375167	0,5	0,695350
15,383500	0,5	0,688550
15,391833	0,5	0,681900
15,400167	0,5	0,688950
15,408500	0,5	0,691800
15,416833	0,5	0,695050
15,425167	0,5	0,697800
15,433500	0,5	0,699600
15,441833	0,5	0,709250
15,450167	0,5	0,710600
15,458500	0,5	0,719450
15,466833	0,5	0,718350
15,475167	0,5	0,724250
15,483500	0,5	0,721600
15,491833	0,5	0,719600
15,500167	0,5	0,720750
15,508500	0,5	0,720300
15,516833	0,5	0,714800
15,525167	0,5	0,700550
15,533500	0,5	0,698050
15,541833	0,5	0,697650
15,550167	0,5	0,700250
15,558500	0,5	0,708150
15,566833	0,5	0,714000
15,575167	0,5	0,720450
15,583500	0,5	0,728450
15,591833	0,5	0,735750
15,600167	0,5	0,736550
15,608500	0,5	0,736000
15,616833	0,5	0,742300
15,625167	0,5	0,742100
15,633500	0,5	0,743800
15,641833	0,5	0,750750
15,650167	0,5	0,769200
15,658500	0,5	0,775800
15,666833	0,5	0,777250
15,675167	0,5	0,768100
15,683500	0,5	0,754900
15,691833	0,5	0,742300
15,700167	0,5	0,732550
15,708500	0,5	0,711300
15,716833	0,5	0,701100
15,725167	0,5	0,691050
15,733500	0,5	0,688300
15,741833	0,5	0,686450
15,750167	0,5	0,683350
15,758500	0,5	0,685300
15,766833	0,5	0,683750
15,775167	0,5	0,688800
15,783500	0,5	0,680900
15,791833	0,5	0,690150
15,800167	0,5	0,696500
15,808500	0,5	0,694350
15,816833	0,5	0,682650
15,825167	0,5	0,673000
15,833500	0,5	0,674550
15,841833	0,5	0,676950
15,850167	0,5	0,669900
15,858500	0,5	0,670800
15,866833	0,5	0,666950
15,875167	0,5	0,663400
15,883500	0,5	0,658500
15,891833	0,5	0,656050
15,900167	0,5	0,644200
15,908500	0,5	0,639550
15,916833	0,5	0,639600
15,925167	0,5	0,629700
15,933500	0,5	0,616250
15,941833	0,5	0,624350
15,950167	0,5	0,622750
15,958500	0,5	0,620650
15,966833	0,5	0,616650
15,975167	0,5	0,605800
15,983500	0,5	0,617150
15,991833	0,5	0,612850
16,000167	0,5	0,612550
16,008500	0,5	0,609850
16,016833	0,5	0,604950
16,025167	0,5	0,600950
16,033500	0,5	0,608600
16,041833	0,5	0,606400
16,050167	0,5	0,607650
16,058500	0,5	0,607450
16,066833	0,5	0,606300
16,075167	0,5	0,596350
16,083500	0,5	0,596100
16,091833	0,5	0,600900
16,100167	0,5	0,598250
16,108500	0,5	0,593100
16,116833	0,5	0,576250
16,125167	0,5	0,579350
16,133500	0,5	0,585050
16,141833	0,5	0,584750
16,150167	0,5	0,583500
16,158500	0,5	0,583450
16,166833	0,5	0,580500
16,175167	0,5	0,585600
16,183500	0,5	0,583300
16,191833	0,5	0,590700
16,200167	0,5	0,594700
16,208500	0,5	0,594650
16,216833	0,5	0,604450
16,225167	0,5	0,609950
16,233500	0,5	0,631400
16,241833	0,5	0,643450
16,250167	0,5	0,646350
16,258500	0,5	0,645050
16,266833	0,5	0,634650
16,275167	0,5	0,631850
16,283500	0,5	0,637250
16,291833	0,5	0,636550
16,300167	0,5	0,639000
16,308500	0,5	0,642150
16,316833	0,5	0,646900
16,325167	0,5	0,651300
16,333500	0,5	0,657050
16,341833	0,5	0,653900
16,350167	0,5	0,651000
16,358500	0,5	0,646800
16,366833	0,5	0,643250
16,375167	0,5	0,635450
16,383500	0,5	0,642050
16,391833	0,5	0,637000
16,400167	0,5	0,634550
16,408500	0,5	0,627400
16,416833	0,5	0,616950
16,425167	0,5	0,624050
16,433500	0,5	0,623700
16,441833	0,5	0,631350
16,450167	0,5	0,626300
16,458500	0,5	0,633400
16,466833	0,5	0,629500
16,475167	0,5	0,632500
16,483500	0,5	0,629250
16,491833	0,5	0,631300
16,500167	0,5	0,633900
16,508500	0,5	0,640000
16,516833	0,5	0,631600
16,525167	0,5	0,637600
16,533500	0,5	0,644000
16,541833	0,5	0,641900
16,550167	0,5	0,642400
16,558500	0,5	0,633800
16,566833	0,5	0,629400
16,575167	0,5	0,634950
16,583500	0,5	0,640200
16,591833	0,5	0,641450
16,600167	0,5	0,644300
16,608500	0,5	0,639900
16,616833	0,5	0,644200
16,625167	0,5	0,645850
16,633500	0,5	0,651750
16,641833	0,5	0,650500
16,650167	0,5	0,664950
16,658500	0,5	0,665000
16,666833	0,5	0,660200
16,675167	0,5	0,673350
16,683500	0,5	0,682050
16,691833	0,5	0,676550
16,700167	0,5	0,681250
16,708500	0,5	0,673450
16,716833	0,5	0,682250
16,725167	0,5	0,688650
16,733500	0,5	0,691800
16,741833	0,5	0,690950
16,750167	0,5	0,696250
16,758500	0,5	0,694200
16,766833	0,5	0,686950
16,775167	0,5	0,686650
16,783500	0,5	0,685950
16,791833	0,5	0,692800
16,800167	0,5	0,692050
16,808500	0,5	0,690350
16,816833	0,5	0,693300
16,825167	0,5	0,709900
16,833500	0,5	0,711200
16,841833	0,5	0,704800
16,850167	0,5	0,684700
16,858500	0,5	0,666900
16,866833	0,5	0,659900
16,875167	0,5	0,647250
16,883500	0,5	0,629700
16,891833	0,5	0,618000
16,900167	0,5	0,605300
16,908500	0,5	0,596300
16,916833	0,5	0,593550
16,925167	0,5	0,586700
16,933500	0,5	0,581650
16,941833	0,5	0,577600
16,950167	0,5	0,580800
16,958500	0,5	0,566900
16,966833	0,5	0,564250
16,975167	0,5	0,564800
16,983500	0,5	0,563000
16,991833	0,5	0,554050
17,000167	0,5	0,536800
17,008500	0,5	0,531550
17,016833	0,5	0,540300
17,025167	0,5	0,533750
17,033500	0,5	0,532950
17,041833	0,5	0,524600
17,050167	0,5	0,527400
17,058500	0,5	0,519000
17,066833	0,5	0,521150
17,075167	0,5	0,512700
17,083500	0,5	0,506300
17,091833	0,5	0,509400
17,100167	0,5	0,503450
17,108500	0,5	0,487300
17,116833	0,5	0,496700
17,125167	0,5	0,495750
17,133500	0,5	0,493200
17,141833	0,5	0,483850
17,150167	0,5	0,467450
17,158500	0,5	0,473750
17,166833	0,5	0,468550
17,175167	0,5	0,473100
17,183500	0,5	0,465600
17,191833	0,5	0,465000
17,200167	0,5	0,453900
17,208500	0,5	0,454350
17,216833	0,5	0,453850
17,225167	0,5	0,451650
17,233500	0,5	0,451550
17,241833	0,5	0,451250
17,250167	0,5	0,447550
17,258500	0,5	0,440750
17,266833	0,5	0,450750
17,275167	0,5	0,444350
17,283500	0,5	0,438900
17,291833	0,5	0,425300
17,300167	0,5	0,415150
17,308500	0,5	0,420750
17,316833	0,5	0,425250
17,325167	0,5	0,417550
17,333500	0,5	0,423800
17,341833	0,5	0,415500
17,350167	0,5	0,420550
17,358500	0,5	0,411600
17,366833	0,5	0,413500
17,375167	0,5	0,410800
17,383500	0,5	0,408850
17,391833	0,5	0,408000
17,400167	0,5	0,399150
17,408500	0,5	0,396250
17,416833	0,5	0,400950
17,425167	0,5	0,393350
17,433500	0,5	0,388800
17,441833	0,5	0,372650
17,450167	0,5	0,360900
17,458500	0,5	0,365550
17,466833	0,5	0,358300
17,475167	0,5	0,359600
17,483500	0,5	0,353150
17,491833	0,5	0,351200
17,500167	0,5	0,346350
17,508500	0,5	0,349600
17,516833	0,5	0,346200
17,525167	0,5	0,344300
17,533500	0,5	0,348800
17,541833	0,5	0,346150
17,550167	0,5	0,333150
17,558500	0,5	0,339550
17,566833	0,5	0,340550
17,575167	0,5	0,334250
17,583500	0,5	0,327550
17,591833	0,5	0,310600
17,600167	0,5	0,312300
17,608500	0,5	0,312950
17,616833	0,5	0,317650
17,625167	0,5	0,314650
17,633500	0,5	0,317350
17,641833	0,5	0,316000
17,650167	0,5	0,322250
17,658500	0,5	0,316000
17,666833	0,5	0,324500
17,675167	0,5	0,328350
17,683500	0,5	0,335500
17,691833	0,5	0,322800
17,700167	0,5	0,332650
17,708500	0,5	0,342700
17,716833	0,5	0,350850
17,725167	0,5	0,351650
17,733500	0,5	0,350400
17,741833	0,5	0,350850
17,750167	0,5	0,357250
17,758500	0,5	0,365650
17,766833	0,5	0,374150
17,775167	0,5	0,380100
17,783500	0,5	0,388200
17,791833	0,5	0,391650
17,800167	0,5	0,400500
17,808500	0,5	0,412250
17,816833	0,5	0,410600
17,825167	0,5	0,419650
17,833500	0,5	0,425150
17,841833	0,5	0,414000
17,850167	0,5	0,426800
17,858500	0,5	0,433200
17,866833	0,5	0,438250
17,875167	0,5	0,436200
17,883500	0,5	0,419100
17,891833	0,5	0,428500
17,900167	0,5	0,440350
17,908500	0,5	0,443800
17,916833	0,5	0,444400
17,925167	0,5	0,443850
17,933500	0,5	0,448400
17,941833	0,5	0,444150
17,950167	0,5	0,443750
17,958500	0,5	0,435200
17,966833	0,5	0,428850
17,975167	0,5	0,419450
17,983500	0,5	0,411550
17,991833	0,5	0,387300
18,000167	0,5	0,393850
18,008500	0,5	0,384050
18,016833	0,5	0,375550
18,025167	0,5	0,361650
18,033500	0,5	0,343350
18,041833	0,5	0,343950
18,050167	0,5	0,342800
18,058500	0,5	0,329350
18,066833	0,5	0,323500
18,075167	0,5	0,316950
18,083500	0,5	0,303700
18,091833	0,5	0,301250
18,100167	0,5	0,300350
18,108500	0,5	0,286750
18,116833	0,5	0,281150
18,125167	0,5	0,280100
18,133500	0,5	0,271350
18,141833	0,5	0,262250
18,150167	0,5	0,265850
18,158500	0,5	0,256400
18,166833	0,5	0,245400
18,175167	0,5	0,232950
18,183500	0,5	0,211950
18,191833	0,5	0,218050
18,200167	0,5	0,212550
18,208500	0,5	0,213200
18,216833	0,5	0,206700
18,225167	0,5	0,206600
18,233500	0,5	0,203000
18,241833	0,5	0,199950
18,250167	0,5	0,197600
18,258500	0,5	0,196200
18,266833	0,5	0,197400
18,275167	0,5	0,191800
18,283500	0,5	0,182900
18,291833	0,5	0,187650
18,300167	0,5	0,192650
18,308500	0,5	0,189050
18,316833	0,5	0,181900
18,325167	0,5	0,171600
18,333500	0,5	0,173100
18,341833	0,5	0,176750
18,350167	0,5	0,179550
18,358500	0,5	0,176700
18,366833	0,5	0,180750
18,375167	0,5	0,172950
18,383500	0,5	0,176350
18,391833	0,5	0,178500
18,400167	0,5	0,179450
18,408500	0,5	0,179500
18,416833	0,5	0,178800
18,425167	0,5	0,173400
18,433500	0,5	0,174200
18,441833	0,5	0,184750
18,450167	0,5	0,183250
18,458500	0,5	0,182450
18,466833	0,5	0,171050
18,475167	0,5	0,159550
18,483500	0,5	0,156500
18,491833	0,5	0,166250
18,500167	0,5	0,163200
18,508500	0,5	0,166750
18,516833	0,5	0,164250
18,525167	0,5	0,168700
18,533500	0,5	0,169050
18,541833	0,5	0,170400
18,550167	0,5	0,169900
18,558500	0,5	0,172700
18,566833	0,5	0,177450
18,575167	0,5	0,166200
18,583500	0,5	0,169800
18,591833	0,5	0,178050
18,600167	0,5	0,173350
18,608500	0,5	0,171750
18,616833	0,5	0,160600
18,625167	0,5	0,157350
18,633500	0,5	0,164600
18,641833	0,5	0,161550
18,650167	0,5	0,166750
18,658500	0,5	0,161250
18,666833	0,5	0,171000
18,675167	0,5	0,162600
18,683500	0,5	0,169200
18,691833	0,5	0,167550
18,700167	0,5	0,164500
18,708500	0,5	0,173200
18,716833	0,5	0,175100
18,725167	0,5	0,154400
18,733500	0,5	0,162500
18,741833	0,5	0,163500
18,750167	0,5	0,156900
18,758500	0,5	0,151150
18,766833	0,5	0,134100
18,775167	0,5	0,135500
18,783500	0,5	0,134400
18,791833	0,5	0,139750
18,800167	0,5	0,134500
18,808500	0,5	0,136050
18,816833	0,5	0,131500
18,825167	0,5	0,134650
18,833500	0,5	0,136300
18,841833	0,5	0,137400
18,850167	0,5	0,136000
18,858500	0,5	0,141550
18,866833	0,5	0,131000
18,875167	0,5	0,132550
18,883500	0,5	0,137000
18,891833	0,5	0,140450
18,900167	0,5	0,134300
18,908500	0,5	0,125300
18,916833	0,5	0,115450
18,925167	0,5	0,114000
18,933500	0,5	0,115350
18,941833	0,5	0,108400
18,950167	0,5	0,111400
18,958500	0,5	0,108300
18,966833	0,5	0,108350
18,975167	0,5	0,101300
18,983500	0,5	0,101650
18,991833	0,5	0,102050
19,000167	0,5	0,102500
19,008500	0,5	0,105600
19,016833	0,5	0,097400
19,025167	0,5	0,102450
19,033500	0,5	0,103500
19,041833	0,5	0,102800
19,050167	0,5	0,096500
19,058500	0,5	0,084250
19,066833	0,5	0,074600
19,075167	0,5	0,078800
19,083500	0,5	0,080000
19,091833	0,5	0,076100
19,100167	0,5	0,075200
19,108500	0,5	0,078400
19,116833	0,5	0,077550
19,125167	0,5	0,083550
19,133500	0,5	0,078400
19,141833	0,5	0,081350
19,150167	0,5	0,082900
19,158500	0,5	0,089500
19,166833	0,5	0,071100
19,175167	0,5	0,084450
19,183500	0,5	0,079500
19,191833	0,5	0,081550
19,200167	0,5	0,075050
19,208500	0,5	0,057000
19,216833	0,5	0,063600
19,225167	0,5	0,067400
19,233500	0,5	0,065400
19,241833	0,5	0,069350
19,250167	0,5	0,074400
19,258500	0,5	0,071650
19,266833	0,5	0,069600
19,275167	0,5	0,070650
19,283500	0,5	0,078200
19,291833	0,5	0,074500
19,300167	0,5	0,088400
19,308500	0,5	0,087800
19,316833	0,5	0,085400
19,325167	0,5	0,096500
19,333500	0,5	0,097150
19,341833	0,5	0,095400
19,350167	0,5	0,089500
19,358500	0,5	0,077000
19,366833	0,5	0,079900
19,375167	0,5	0,081900
19,383500	0,5	0,086050
19,391833	0,5	0,079800
19,400167	0,5	0,078700
19,408500	0,5	0,076450
19,416833	0,5	0,078050
19,425167	0,5	0,082850
19,433500	0,5	0,078350
19,441833	0,5	0,090100
19,450167	0,5	0,094000
19,458500	0,5	0,086600
19,466833	0,5	0,083300
19,475167	0,5	0,092450
19,483500	0,5	0,086350
19,491833	0,5	0,086100
19,500167	0,5	0,069850
19,508500	0,5	0,068150
19,516833	0,5	0,074450
19,525167	0,5	0,077250
19,533500	0,5	0,076500
19,541833	0,5	0,074300
19,550167	0,5	0,075150
19,558500	0,5	0,072050
19,566833	0,5	0,077300
19,575167	0,5	0,070650
19,583500	0,5	0,074300
19,591833	0,5	0,084350
19,600167	0,5	0,083850
19,608500	0,5	0,077050
19,616833	0,5	0,082350
19,625167	0,5	0,082050
19,633500	0,5	0,079250
19,641833	0,5	0,063400
19,650167	0,5	0,060800
19,658500	0,5	0,056400
19,666833	0,5	0,059000
19,675167	0,5	0,061350
19,683500	0,5	0,067350
19,691833	0,5	0,067700
19,700167	0,5	0,066300
19,708500	0,5	0,068250
19,716833	0,5	0,067800
19,725167	0,5	0,072500
19,733500	0,5	0,073950
19,741833	0,5	0,082850
19,750167	0,5	0,078750
19,758500	0,5	0,078350
19,766833	0,5	0,082350
19,775167	0,5	0,085250
19,783500	0,5	0,079500
19,791833	0,5	0,070400
19,800167	0,5	0,073050
19,808500	0,5	0,081400
19,816833	0,5	0,078150
19,825167	0,5	0,080650
19,833500	0,5	0,083900
19,841833	0,5	0,090000
19,850167	0,5	0,087900
19,858500	0,5	0,090350
19,866833	0,5	0,098300
19,875167	0,5	0,098250
19,883500	0,5	0,110500
19,891833	0,5	0,113700
19,900167	0,5	0,102150
19,908500	0,5	0,118600
19,916833	0,5	0,125800
19,925167	0,5	0,129100
19,933500	0,5	0,131000
19,941833	0,5	0,121000
19,950167	0,5	0,135250
19,958500	0,5	0,139150
19,966833	0,5	0,152200
19,975167	0,5	0,145750
19,983500	0,5	0,153250
19,991833	0,5	0,149950
20,000167	0,5	0,148050
20,008500	0,5	0,144500
20,016833	0,5	0,135550
20,025167	0,5	0,134600
20,033500	0,5	0,142800
20,041833	0,5	0,144500
20,050167	0,5	0,133650
20,058500	0,5	0,143000
20,066833	0,5	0,137100
20,075167	0,5	0,137000
20,083500	0,5	0,129450
20,091833	0,5	0,122550
20,100167	0,5	0,123950
20,108500	0,5	0,134200
20,116833	0,5	0,129750
20,125167	0,5	0,136250
20,133500	0,5	0,136600
20,141833	0,5	0,144550
20,150167	0,5	0,143900
20,158500	0,5	0,147250
20,166833	0,5	0,151850
20,175167	0,5	0,152900
20,183500	0,5	0,155600
20,191833	0,5	0,147750
20,200167	0,5	0,141600
20,208500	0,5	0,145500
20,216833	0,5	0,138450
20,225167	0,5	0,135300
20,233500	0,5	0,123500
20,241833	0,5	0,116400
20,250167	0,5	0,120900
20,258500	0,5	0,117150
20,266833	0,5	0,124750
20,275167	0,5	0,124000
20,283500	0,5	0,128300
20,291833	0,5	0,126350
20,300167	0,5	0,129000
20,308500	0,5	0,127000
20,316833	0,5	0,123350
20,325167	0,5	0,140100
20,333500	0,5	0,144900
20,341833	0,5	0,131550
20,350167	0,5	0,137350
20,358500	0,5	0,136600
20,366833	0,5	0,130650
20,375167	0,5	0,121350
20,383500	0,5	0,111000
20,391833	0,5	0,121150
20,400167	0,5	0,118150
20,408500	0,5	0,128950
20,416833	0,5	0,127950
20,425167	0,5	0,130900
20,433500	0,5	0,130600
20,441833	0,5	0,136850
20,450167	0,5	0,135250
20,458500	0,5	0,137600
20,466833	0,5	0,152200
20,475167	0,5	0,162700
20,483500	0,5	0,167950
20,491833	0,5	0,163700
20,500167	0,5	0,166600
20,508500	0,5	0,168750
20,516833	0,5	0,169800
20,525167	0,5	0,155250
20,533500	0,5	0,156100
20,541833	0,5	0,146850
20,550167	0,5	0,158600
20,558500	0,5	0,156600
20,566833	0,5	0,169250
20,575167	0,5	0,163750
20,583500	0,5	0,169500
20,591833	0,5	0,172300
20,600167	0,5	0,179500
20,608500	0,5	0,184550
20,616833	0,5	0,198050
20,625167	0,5	0,209000
20,633500	0,5	0,205450
20,641833	0,5	0,203450
20,650167	0,5	0,206850
20,658500	0,5	0,200950
20,666833	0,5	0,201950
20,675167	0,5	0,194100
20,683500	0,5	0,199100
20,691833	0,5	0,209900
20,700167	0,5	0,211400
20,708500	0,5	0,218700
20,716833	0,5	0,226100
20,725167	0,5	0,234050
20,733500	0,5	0,236200
20,741833	0,5	0,238150
20,750167	0,5	0,241800
20,758500	0,5	0,253700
20,766833	0,5	0,275500
20,775167	0,5	0,293600
20,783500	0,5	0,290000
20,791833	0,5	0,295100
20,800167	0,5	0,299400
20,808500	0,5	0,295600
20,816833	0,5	0,289700
20,825167	0,5	0,289150
20,833500	0,5	0,302500
20,841833	0,5	0,298400
20,850167	0,5	0,303700
20,858500	0,5	0,304200
20,866833	0,5	0,317050
20,875167	0,5	0,318400
20,883500	0,5	0,330550
20,891833	0,5	0,331750
20,900167	0,5	0,337000
20,908500	0,5	0,359100
20,916833	0,5	0,376400
20,925167	0,5	0,381850
20,933500	0,5	0,386450
20,941833	0,5	0,383650
20,950167	0,5	0,391400
20,958500	0,5	0,394000
20,966833	0,5	0,388700
20,975167	0,5	0,407800
20,983500	0,5	0,413500
20,991833	0,5	0,424550
21,000167	0,5	0,431600
21,008500	0,5	0,446100
21,016833	0,5	0,444100
21,025167	0,5	0,455700
21,033500	0,5	0,454000
21,041833	0,5	0,457050
21,050167	0,5	0,464250
21,058500	0,5	0,486900
21,066833	0,5	0,508500
21,075167	0,5	0,503850
21,083500	0,5	0,507300
21,091833	0,5	0,508650
21,100167	0,5	0,504750
21,108500	0,5	0,499750
21,116833	0,5	0,499250
21,125167	0,5	0,508300
21,133500	0,5	0,520850
21,141833	0,5	0,527900
21,150167	0,5	0,540300
21,158500	0,5	0,550650
21,166833	0,5	0,567750
21,175167	0,5	0,578250
21,183500	0,5	0,591100
21,191833	0,5	0,602050
21,200167	0,5	0,627600
21,208500	0,5	0,648100
21,216833	0,5	0,668750
21,225167	0,5	0,677000
21,233500	0,5	0,688850
21,241833	0,5	0,703550
21,250167	0,5	0,718850
21,258500	0,5	0,736150
21,266833	0,5	0,750500
21,275167	0,5	0,768000
21,283500	0,5	0,766600
21,291833	0,5	0,768250
21,300167	0,5	0,757200
21,308500	0,5	0,761000
21,316833	0,5	0,748400
21,325167	0,5	0,756100
21,333500	0,5	0,749050
21,341833	0,5	0,758350
21,350167	0,5	0,783750
21,358500	0,5	0,805400
21,366833	0,5	0,818050
21,375167	0,5	0,825600
21,383500	0,5	0,827700
21,391833	0,5	0,825850
21,400167	0,5	0,818400
21,408500	0,5	0,816100
21,416833	0,5	0,830700
21,425167	0,5	0,840000
21,433500	0,5	0,849450
21,441833	0,5	0,864150
21,450167	0,5	0,882300
21,458500	0,5	0,893300
21,466833	0,5	0,917850
21,475167	0,5	0,935400
21,483500	0,5	0,953350
21,491833	0,5	0,978100
21,500167	0,5	1,005150
21,508500	0,5	1,025250
21,516833	0,5	1,026050
21,525167	0,5	1,038850
21,533500	0,5	1,039100
21,541833	0,5	1,044650
21,550167	0,5	1,046200
21,558500	0,5	1,063000
21,566833	0,5	1,069600
21,575167	0,5	1,087950
21,583500	0,5	1,095600
21,591833	0,5	1,116000
21,600167	0,5	1,127450
21,608500	0,5	1,148000
21,616833	0,5	1,161200
21,625167	0,5	1,184150
21,633500	0,5	1,196750
21,641833	0,5	1,231250
21,650167	0,5	1,253700
21,658500	0,5	1,252050
21,666833	0,5	1,254650
21,675167	0,5	1,266800
21,683500	0,5	1,274750
21,691833	0,5	1,278900
21,700167	0,5	1,285800
21,708500	0,5	1,304050
21,716833	0,5	1,322800
21,725167	0,5	1,333300
21,733500	0,5	1,352200
21,741833	0,5	1,369850
21,750167	0,5	1,392300
21,758500	0,5	1,415100
21,766833	0,5	1,436800
21,775167	0,5	1,457350
21,783500	0,5	1,493150
21,791833	0,5	1,529300
21,800167	0,5	1,558050
21,808500	0,5	1,579500
21,816833	0,5	1,601100
21,825167	0,5	1,620350
21,833500	0,5	1,636800
21,841833	0,5	1,653150
21,850167	0,5	1,678200
21,858500	0,5	1,707700
21,866833	0,5	1,722300
21,875167	0,5	1,740950
21,883500	0,5	1,758850
21,891833	0,5	1,780750
21,900167	0,5	1,797350
21,908500	0,5	1,821250
21,916833	0,5	1,835800
21,925167	0,5	1,853800
21,933500	0,5	1,887000
21,941833	0,5	1,915900
21,950167	0,5	1,923050
21,958500	0,5	1,948450
21,966833	0,5	1,968850
21,975167	0,5	1,987300
21,983500	0,5	2,005400
21,991833	0,5	2,016150
22,000167	0,5	2,052200
22,008500	0,5	2,076750
22,016833	0,5	2,106950
22,025167	0,5	2,128750
22,033500	0,5	2,168550
22,041833	0,5	2,203050
22,050167	0,5	2,238750
22,058500	0,5	2,267650
22,066833	0,5	2,305900
22,075167	0,5	2,343600
22,083500	0,5	2,383100
22,091833	0,5	2,403050
22,100167	0,5	2,425700
22,108500	0,5	2,449400
22,116833	0,5	2,467750
22,125167	0,5	2,489950
22,133500	0,5	2,509400
22,141833	0,5	2,539650
22,150167	0,5	2,574000
22,158500	0,5	2,616150
22,166833	0,5	2,642350
22,175167	0,5	2,674900
22,183500	0,5	2,702350
22,191833	0,5	2,738850
22,200167	0,5	2,767250
22,208500	0,5	2,807200
22,216833	0,5	2,836000
22,225167	0,5	2,875250
22,233500	0,5	2,913450
22,241833	0,5	2,958050
22,250167	0,5	3,010000
22,258500	0,5	3,048350
22,266833	0,5	3,090200
22,275167	0,5	3,120650
22,283500	0,5	3,162100
22,291833	0,5	3,207450
22,300167	0,5	3,269200
22,308500	0,5	3,325250
22,316833	0,5	3,382350
22,325167	0,5	3,437800
22,333500	0,5	3,494650
22,341833	0,5	3,540450
22,350167	0,5	3,587400
22,358500	0,5	3,626650
22,366833	0,5	3,672950
22,375167	0,5	3,706450
22,383500	0,5	3,746050
22,391833	0,5	3,797600
22,400167	0,5	3,856000
22,408500	0,5	3,896200
22,416833	0,5	3,945500
22,425167	0,5	3,989250
22,433500	0,5	4,041150
22,441833	0,5	4,102100
22,450167	0,5	4,163900
22,458500	0,5	4,231500
22,466833	0,5	4,286350
22,475167	0,5	4,353750
22,483500	0,5	4,414350
22,491833	0,5	4,483100
22,500167	0,5	4,546300
22,508500	0,5	4,601250
22,516833	0,5	4,648700
22,525167	0,5	4,699600
22,533500	0,5	4,740900
22,541833	0,5	4,801750
22,550167	0,5	4,847650
22,558500	0,5	4,887400
22,566833	0,5	4,918450
22,575167	0,5	4,945450
22,583500	0,5	4,982650
22,591833	0,5	5,010400
22,600167	0,5	5,037500
22,608500	0,5	5,047100
22,616833	0,5	5,068700
22,625167	0,5	5,076650
22,633500	0,5	5,084650
22,641833	0,5	5,080150
22,650167	0,5	5,071150
22,658500	0,5	5,049650
22,666833	0,5	5,007550
22,675167	0,5	4,970900
22,683500	0,5	4,954400
22,691833	0,5	4,913700
22,700167	0,5	4,855250
22,708500	0,5	4,780450
22,716833	0,5	4,698650
22,725167	0,5	4,616450
22,733500	0,5	4,535700
22,741833	0,5	4,449700
22,750167	0,5	4,341000
22,758500	0,5	4,233050
22,766833	0,5	4,117550
22,775167	0,5	3,997800
22,783500	0,5	3,877300
22,791833	0,5	3,757650
22,800167	0,5	3,627600
22,808500	0,5	3,486500
22,816833	0,5	3,343550
22,825167	0,5	3,215850
22,833500	0,5	3,095300
22,841833	0,5	2,947950
22,850167	0,5	2,800650
22,858500	0,5	2,657300
22,866833	0,5	2,507350
22,875167	0,5	2,350450
22,883500	0,5	2,193700
22,891833	0,5	2,051150
22,900167	0,5	1,905250
22,908500	0,5	1,759400
22,916833	0,5	1,612450
22,925167	0,5	1,475750
22,933500	0,5	1,334700
22,941833	0,5	1,202500
22,950167	0,5	1,073050
22,958500	0,5	0,962350
22,966833	0,5	0,831600
22,975167	0,5	0,704600
22,983500	0,5	0,552600
22,991833	0,5	0,450000
23,000167	0,5	0,338050
23,008500	0,5	0,235550
23,016833	0,5	0,139250
23,025167	0,5	0,031600
23,033500	0,5	-0,057400
23,041833	0,5	-0,143500
23,050167	0,5	-0,225250
23,058500	0,5	-0,305800
23,066833	0,5	-0,378400
23,075167	0,5	-0,457300
23,083500	0,5	-0,519200
23,091833	0,5	-0,586700
23,100167	0,5	-0,626750
23,108500	0,5	-0,682700
23,116833	0,5	-0,750050
23,125167	0,5	-0,831000
23,133500	0,5	-0,897750
23,141833	0,5	-0,944100
23,150167	0,5	-0,983050
23,158500	0,5	-1,021850
23,166833	0,5	-1,058800
23,175167	0,5	-1,097050
23,183500	0,5	-1,126050
23,191833	0,5	-1,162450
23,200167	0,5	-1,187700
23,208500	0,5	-1,210200
23,216833	0,5	-1,235800
23,225167	0,5	-1,256750
23,233500	0,5	-1,281550
23,241833	0,5	-1,298000
23,250167	0,5	-1,300500
23,258500	0,5	-1,326900
23,266833	0,5	-1,327550
23,275167	0,5	-1,368450
23,283500	0,5	-1,398750
23,291833	0,5	-1,409300
23,300167	0,5	-1,415700
23,308500	0,5	-1,416900
23,316833	0,5	-1,423650
23,325167	0,5	-1,429350
23,333500	0,5	-1,435750
23,341833	0,5	-1,433600
23,350167	0,5	-1,437650
23,358500	0,5	-1,434850
23,366833	0,5	-1,433050
23,375167	0,5	-1,427100
23,383500	0,5	-1,421450
23,391833	0,5	-1,419400
23,400167	0,5	-1,447950
23,408500	0,5	-1,416650
23,416833	0,5	-1,396600
23,425167	0,5	-1,407450
23,433500	0,5	-1,414600
23,441833	0,5	-1,412100
23,450167	0,5	-1,402900
23,458500	0,5	-1,399600
23,466833	0,5	-1,393200
23,475167	0,5	-1,389500
23,483500	0,5	-1,383050
23,491833	0,5	-1,379400
23,500167	0,5	-1,366900
23,508500	0,5	-1,358050
23,516833	0,5	-1,352250
23,525167	0,5	-1,343350
23,533500	0,5	-1,331700
23,541833	0,5	-1,340700
23,550167	0,5	-1,362800
23,558500	0,5	-1,341300
23,566833	0,5	-1,284750
23,575167	0,5	-1,280450
23,583500	0,5	-1,280000
23,591833	0,5	-1,273750
23,600167	0,5	-1,265900
23,608500	0,5	-1,257300
23,616833	0,5	-1,248000
23,625167	0,5	-1,236600
23,633500	0,5	-1,229150
23,641833	0,5	-1,217650
23,650167	0,5	-1,207200
23,658500	0,5	-1,196400
23,666833	0,5	-1,187350
23,675167	0,5	-1,180650
23,683500	0,5	-1,170850
23,691833	0,5	-1,234800
23,700167	0,5	-1,210650
23,708500	0,5	-1,194850
23,716833	0,5	-1,133250
23,725167	0,5	-1,117100
23,733500	0,5	-1,105650
23,741833	0,5	-1,098050
23,750167	0,5	-1,098800
23,758500	0,5	-1,078750
23,766833	0,5	-1,071300
23,775167	0,5	-1,054200
23,783500	0,5	-1,047400
23,791833	0,5	-1,027300
23,800167	0,5	-1,014650
23,808500	0,5	-1,001550
23,816833	0,5	-0,990300
23,825167	0,5	-0,977900
23,833500	0,5	-0,979550
23,841833	0,5	-1,057100
23,850167	0,5	-1,013950
23,858500	0,5	-0,981500
23,866833	0,5	-0,938350
23,875167	0,5	-0,920950
23,883500	0,5	-0,908200
23,891833	0,5	-0,906300
23,900167	0,5	-0,904950
23,908500	0,5	-0,886200
23,916833	0,5	-0,868300
23,925167	0,5	-0,859850
23,933500	0,5	-0,842400
23,941833	0,5	-0,831900
23,950167	0,5	-0,815800
23,958500	0,5	-0,803900
23,966833	0,5	-0,787950
23,975167	0,5	-0,776350
23,983500	0,5	-0,822700
23,991833	0,5	-0,843900
24,000167	0,5	-0,799800
24,008500	0,5	-0,763850
24,016833	0,5	-0,722700
24,025167	0,5	-0,711800
24,033500	0,5	-0,699500
24,041833	0,5	-0,695450
24,050167	0,5	-0,692700
24,058500	0,5	-0,678400
24,066833	0,5	-0,666950
24,075167	0,5	-0,651150
24,083500	0,5	-0,643500
24,091833	0,5	-0,623650
24,100167	0,5	-0,614550
24,108500	0,5	-0,597400
24,116833	0,5	-0,587850
24,125167	0,5	-0,576250
24,133500	0,5	-0,655500
24,141833	0,5	-0,619750
24,150167	0,5	-0,602150
24,158500	0,5	-0,556950
24,166833	0,5	-0,534750
24,175167	0,5	-0,519500
24,183500	0,5	-0,510350
24,191833	0,5	-0,511950
24,200167	0,5	-0,502800
24,208500	0,5	-0,483950
24,216833	0,5	-0,468700
24,225167	0,5	-0,457800
24,233500	0,5	-0,443800
24,241833	0,5	-0,434100
24,250167	0,5	-0,422800
24,258500	0,5	-0,420200
24,266833	0,5	-0,405750
24,275167	0,5	-0,412450
24,283500	0,5	-0,453700
24,291833	0,5	-0,433950
24,300167	0,5	-0,406950
24,308500	0,5	-0,376050
24,316833	0,5	-0,358650
24,325167	0,5	-0,350350
24,333500	0,5	-0,343550
24,341833	0,5	-0,351250
24,350167	0,5	-0,344650
24,358500	0,5	-0,339000
24,366833	0,5	-0,316950
24,375167	0,5	-0,313150
24,383500	0,5	-0,297650
24,391833	0,5	-0,284850
24,400167	0,5	-0,274750
24,408500	0,5	-0,264350
24,416833	0,5	-0,259150
24,425167	0,5	-0,275300
24,433500	0,5	-0,294000
24,441833	0,5	-0,279250
24,450167	0,5	-0,257700
24,458500	0,5	-0,231700
24,466833	0,5	-0,223250
24,475167	0,5	-0,216550
24,483500	0,5	-0,222200
24,491833	0,5	-0,218300
24,500167	0,5	-0,213850
24,508500	0,5	-0,200300
24,516833	0,5	-0,197150
24,525167	0,5	-0,184050
24,533500	0,5	-0,179150
24,541833	0,5	-0,171800
24,550167	0,5	-0,169300
24,558500	0,5	-0,159050
24,566833	0,5	-0,151900
24,575167	0,5	-0,181700
24,583500	0,5	-0,165600
24,591833	0,5	-0,163800
24,600167	0,5	-0,138300
24,608500	0,5	-0,124050
24,616833	0,5	-0,120300
24,625167	0,5	-0,117400
24,633500	0,5	-0,123200
24,641833	0,5	-0,116250
24,650167	0,5	-0,111100
24,658500	0,5	-0,111100
24,666833	0,5	-0,103350
24,675167	0,5	-0,103100
24,683500	0,5	-0,094850
24,691833	0,5	-0,090300
24,700167	0,5	-0,084950
24,708500	0,5	-0,081400
24,716833	0,5	-0,078550
24,725167	0,5	-0,097450
24,733500	0,5	-0,084300
24,741833	0,5	-0,081950
24,750167	0,5	-0,062550
24,758500	0,5	-0,055850
24,766833	0,5	-0,051200
24,775167	0,5	-0,051550
24,783500	0,5	-0,058600
24,791833	0,5	-0,045450
24,800167	0,5	-0,040900
24,808500	0,5	-0,037200
24,816833	0,5	-0,036700
24,825167	0,5	-0,032150
24,833500	0,5	-0,028150
24,841833	0,5	-0,028250
24,850167	0,5	-0,024550
24,858500	0,5	-0,019650
24,866833	0,5	-0,033700
24,875167	0,5	-0,031150
24,883500	0,5	-0,025550
24,891833	0,5	-0,017950
24,900167	0,5	-0,006500
24,908500	0,5	-0,004400
24,916833	0,5	-0,002800
24,925167	0,5	-0,005900
24,933500	0,5	-0,004000
24,941833	0,5	-0,003400
24,950167	0,5	0,002250
24,958500	0,5	0,004800
24,966833	0,5	0,007150
24,975167	0,5	0,011450
24,983500	0,5	0,014450
24,991833	0,5	0,014650
25,000167	0,5	0,020550
25,008500	0,5	0,018400
25,016833	0,5	0,013300
25,025167	0,5	0,017000
25,033500	0,5	0,017000
25,041833	0,5	0,022800
25,050167	0,5	0,028300
25,058500	0,5	0,032100
25,066833	0,5	0,030900
25,075167	0,5	0,027400
25,083500	0,5	0,025750
25,091833	0,5	0,032700
25,100167	0,5	0,034250
25,108500	0,5	0,033450
25,116833	0,5	0,035150
25,125167	0,5	0,039600
25,133500	0,5	0,039750
25,141833	0,5	0,042050
25,150167	0,5	0,044250
25,158500	0,5	0,045400
25,166833	0,5	0,041700
25,175167	0,5	0,046050
25,183500	0,5	0,046900
25,191833	0,5	0,051650
25,200167	0,5	0,051350
25,208500	0,5	0,052750
25,216833	0,5	0,052650
25,225167	0,5	0,054650
25,233500	0,5	0,051000
25,241833	0,5	0,052050
25,250167	0,5	0,054300
25,258500	0,5	0,055050
25,266833	0,5	0,054300
25,275167	0,5	0,057800
25,283500	0,5	0,057350
25,291833	0,5	0,059550
25,300167	0,5	0,061500
25,308500	0,5	0,059250
25,316833	0,5	0,059200
25,325167	0,5	0,063150
25,333500	0,5	0,063000
25,341833	0,5	0,061350
25,350167	0,5	0,066700
25,358500	0,5	0,065550
25,366833	0,5	0,065900
25,375167	0,5	0,067100
25,383500	0,5	0,065750
25,391833	0,5	0,067250
25,400167	0,5	0,069600
25,408500	0,5	0,065100
25,416833	0,5	0,067050
25,425167	0,5	0,064900
25,433500	0,5	0,067450
25,441833	0,5	0,067650
25,450167	0,5	0,070450
25,458500	0,5	0,067800
25,466833	0,5	0,071700
25,475167	0,5	0,071100
25,483500	0,5	0,070100
25,491833	0,5	0,072850
25,500167	0,5	0,073150
25,508500	0,5	0,073850
25,516833	0,5	0,073900
25,525167	0,5	0,075100
25,533500	0,5	0,076600
25,541833	0,5	0,075550
25,550167	0,5	0,076300
25,558500	0,5	0,074650
25,566833	0,5	0,076900
25,575167	0,5	0,076150
25,583500	0,5	0,076050
25,591833	0,5	0,077450
25,600167	0,5	0,078850
25,608500	0,5	0,081100
25,616833	0,5	0,080150
25,625167	0,5	0,080000
25,633500	0,5	0,078650
25,641833	0,5	0,078950
25,650167	0,5	0,076500
25,658500	0,5	0,079150
25,666833	0,5	0,080500
25,675167	0,5	0,084300
25,683500	0,5	0,080750
25,691833	0,5	0,084350
25,700167	0,5	0,083200
25,708500	0,5	0,084650
25,716833	0,5	0,085950
25,725167	0,5	0,084750
25,733500	0,5	0,085050
25,741833	0,5	0,082300
25,750167	0,5	0,086550
25,758500	0,5	0,085900
25,766833	0,5	0,087450
25,775167	0,5	0,091450
25,783500	0,5	0,084950
25,791833	0,5	0,087850
25,800167	0,5	0,089050
25,808500	0,5	0,093250
25,816833	0,5	0,098650
25,825167	0,5	0,092250
25,833500	0,5	0,095950
25,841833	0,5	0,095550
25,850167	0,5	0,096950
25,858500	0,5	0,096450
25,866833	0,5	0,098500
25,875167	0,5	0,095850
25,883500	0,5	0,099050
25,891833	0,5	0,100000
25,900167	0,5	0,104200
25,908500	0,5	0,099100
25,916833	0,5	0,105750
25,925167	0,5	0,102200
25,933500	0,5	0,099700
25,941833	0,5	0,099950
25,950167	0,5	0,100050
25,958500	0,5	0,106850
25,966833	0,5	0,108200
25,975167	0,5	0,110000
25,983500	0,5	0,108650
25,991833	0,5	0,112150
26,000167	0,5	0,112150
