File Path	chrom://chromeleon01/ikbm_chromeleon/2022/ICS-5000/ED1/Esteban/20220612_Cell_7_4_eg.seq/727.smp/ED_1.channel/ED_1.chm
Channel	ED_1

Injection Information:
Data Vault	ikbm_chromeleon
Injection	7_24h-EGI_NA
Injection Number	59
Position	GA7
Comment	
Processing Method	Stop sequence after Cell Death
Instrument Method	ICS5000_PA200_FullNative_Ox_26min_ED1
Type	Unknown
Status	Finished
Injection Date	13.06.2022
Injection Time	19:40:08
Injection Volume (µl)	5,0
Dilution Factor	1,0000
Weight	1,0000

Chromatogram Data Information:
Time Min. (min)	0,000333
Time Max. (min)	26,000333
Data Points	3121
Detector	EDet1
Generating Data System	Chromeleon 7.2.9.11323
Exporting Data System	Chromeleon 7.2.9.0
Operator	Instrument Controller
Signal Quantity	
Signal Unit	nC
Signal Min.	-2,233000
Signal Max.	2 381,092735
Channel	ED_1
Driver Name	DC-5000
Channel Type	Evaluation
Min. Step (s)	0,5
Max. Step (s)	0,5
Average Step (s)	0,5

Signal Parameter Information:
Signal Info	

Chromatogram Data:
Time (min)	Step (s)	Value (nC)
0,000333	n.a.	-0,073500
0,008667	0,5	-0,063850
0,017000	0,5	-0,057250
0,025333	0,5	-0,048800
0,033667	0,5	-0,031950
0,042000	0,5	-0,045450
0,050333	0,5	-0,036400
0,058667	0,5	-0,031800
0,067000	0,5	-0,046200
0,075333	0,5	-0,051250
0,083667	0,5	-0,049650
0,092000	0,5	-0,028000
0,100333	0,5	-0,006500
0,108667	0,5	-0,007750
0,117000	0,5	-0,012250
0,125333	0,5	-0,012750
0,133667	0,5	-0,011050
0,142000	0,5	-0,015700
0,150333	0,5	-0,019200
0,158667	0,5	-0,022650
0,167000	0,5	-0,028750
0,175333	0,5	-0,022350
0,183667	0,5	-0,036250
0,192000	0,5	-0,040200
0,200333	0,5	-0,032350
0,208667	0,5	-0,025250
0,217000	0,5	-0,049500
0,225333	0,5	-0,043650
0,233667	0,5	-0,049650
0,242000	0,5	-0,026550
0,250333	0,5	-0,012750
0,258667	0,5	-0,013200
0,267000	0,5	-0,020350
0,275333	0,5	-0,019500
0,283667	0,5	-0,026050
0,292000	0,5	0,002550
0,300333	0,5	0,016850
0,308667	0,5	-0,002300
0,317000	0,5	-0,035550
0,325333	0,5	-0,047250
0,333667	0,5	-0,050500
0,342000	0,5	-0,056400
0,350333	0,5	-0,044050
0,358667	0,5	-0,056050
0,367000	0,5	-0,064750
0,375333	0,5	-0,065050
0,383667	0,5	-0,057200
0,392000	0,5	-0,040500
0,400333	0,5	-0,040450
0,408667	0,5	-0,047350
0,417000	0,5	-0,033950
0,425333	0,5	-0,040500
0,433667	0,5	-0,038600
0,442000	0,5	-0,050800
0,450333	0,5	-0,045250
0,458667	0,5	-0,051900
0,467000	0,5	-0,049600
0,475333	0,5	-0,048550
0,483667	0,5	-0,059100
0,492000	0,5	-0,065200
0,500333	0,5	-0,043050
0,508667	0,5	-0,062950
0,517000	0,5	-0,064650
0,525333	0,5	-0,062200
0,533667	0,5	-0,061200
0,542000	0,5	-0,025600
0,550333	0,5	-0,039350
0,558667	0,5	-0,036250
0,567000	0,5	-0,038250
0,575333	0,5	-0,028100
0,583667	0,5	-0,036650
0,592000	0,5	-0,036250
0,600333	0,5	-0,046900
0,608667	0,5	-0,038950
0,617000	0,5	-0,036000
0,625333	0,5	-0,034550
0,633667	0,5	-0,044850
0,642000	0,5	-0,041350
0,650333	0,5	-0,029850
0,658667	0,5	-0,049500
0,667000	0,5	-0,053050
0,675333	0,5	-0,046100
0,683667	0,5	-0,035700
0,692000	0,5	-0,016550
0,700333	0,5	-0,024650
0,708667	0,5	-0,025500
0,717000	0,5	-0,022050
0,725333	0,5	-0,028550
0,733667	0,5	-0,023200
0,742000	0,5	-0,028800
0,750333	0,5	-0,028750
0,758667	0,5	-0,047200
0,767000	0,5	-0,032500
0,775333	0,5	-0,021950
0,783667	0,5	-0,031000
0,792000	0,5	-0,028200
0,800333	0,5	-0,026000
0,808667	0,5	-0,041450
0,817000	0,5	-0,040200
0,825333	0,5	-0,037000
0,833667	0,5	-0,018850
0,842000	0,5	-0,009550
0,850333	0,5	-0,017950
0,858667	0,5	-0,014000
0,867000	0,5	-0,014750
0,875333	0,5	-0,014000
0,883667	0,5	-0,018450
0,892000	0,5	-0,015450
0,900333	0,5	-0,021600
0,908667	0,5	-0,014350
0,917000	0,5	-0,019900
0,925333	0,5	-0,017050
0,933667	0,5	-0,029950
0,942000	0,5	-0,006150
0,950333	0,5	-0,023350
0,958667	0,5	-0,030200
0,967000	0,5	-0,031100
0,975333	0,5	-0,018000
0,983667	0,5	-0,004550
0,992000	0,5	0,009300
1,000333	0,5	0,009100
1,008667	0,5	0,005950
1,017000	0,5	0,002800
1,025333	0,5	-0,000800
1,033667	0,5	0,000150
1,042000	0,5	-0,005150
1,050333	0,5	-0,005350
1,058667	0,5	-0,001300
1,067000	0,5	0,002300
1,075333	0,5	-0,008550
1,083667	0,5	-0,009600
1,092000	0,5	0,001750
1,100333	0,5	-0,009850
1,108667	0,5	-0,015400
1,117000	0,5	-0,009800
1,125333	0,5	-0,002450
1,133667	0,5	0,021400
1,142000	0,5	0,021800
1,150333	0,5	0,021850
1,158667	0,5	0,011750
1,167000	0,5	0,020550
1,175333	0,5	0,014800
1,183667	0,5	0,018600
1,192000	0,5	0,017600
1,200333	0,5	0,015450
1,208667	0,5	0,018450
1,217000	0,5	0,012750
1,225333	0,5	0,010650
1,233667	0,5	0,015800
1,242000	0,5	0,014850
1,250333	0,5	-0,003700
1,258667	0,5	-0,002550
1,267000	0,5	-0,003850
1,275333	0,5	0,012700
1,283667	0,5	0,021950
1,292000	0,5	0,033300
1,300333	0,5	0,024350
1,308667	0,5	0,025200
1,317000	0,5	0,015100
1,325333	0,5	0,012300
1,333667	0,5	0,006200
1,342000	0,5	0,005200
1,350333	0,5	0,001800
1,358667	0,5	-0,000950
1,367000	0,5	-0,000200
1,375333	0,5	-0,007000
1,383667	0,5	0,013050
1,392000	0,5	-0,003700
1,400333	0,5	-0,019350
1,408667	0,5	-0,022650
1,417000	0,5	-0,020700
1,425333	0,5	-0,006800
1,433667	0,5	-0,006250
1,442000	0,5	-0,016800
1,450333	0,5	-0,018100
1,458667	0,5	-0,025250
1,467000	0,5	-0,023300
1,475333	0,5	-0,028900
1,483667	0,5	-0,029400
1,492000	0,5	-0,040850
1,500333	0,5	-0,044150
1,508667	0,5	-0,049000
1,517000	0,5	-0,058150
1,525333	0,5	-0,071250
1,533667	0,5	-0,049100
1,542000	0,5	-0,071900
1,550333	0,5	-0,065850
1,558667	0,5	-0,021150
1,567000	0,5	0,112950
1,575333	0,5	0,598400
1,583667	0,5	3,512200
1,592000	0,5	19,284200
1,600333	0,5	82,639951
1,608667	0,5	293,060454
1,617000	0,5	819,283262
1,625333	0,5	1 557,272823
1,633667	0,5	2 213,552933
1,642000	0,5	2 381,092735
1,650333	0,5	2 247,359633
1,658667	0,5	1 859,053028
1,667000	0,5	1 326,338870
1,675333	0,5	872,464813
1,683667	0,5	590,811509
1,692000	0,5	422,082856
1,700333	0,5	318,998305
1,708667	0,5	250,861654
1,717000	0,5	203,983953
1,725333	0,5	167,891903
1,733667	0,5	138,808702
1,742000	0,5	116,058502
1,750333	0,5	98,975851
1,758667	0,5	86,336701
1,767000	0,5	76,841401
1,775333	0,5	69,591451
1,783667	0,5	64,338501
1,792000	0,5	60,980151
1,800333	0,5	58,712651
1,808667	0,5	55,996451
1,817000	0,5	52,191651
1,825333	0,5	47,945851
1,833667	0,5	43,986251
1,842000	0,5	40,554501
1,850333	0,5	37,683701
1,858667	0,5	35,262401
1,867000	0,5	33,227000
1,875333	0,5	31,475250
1,883667	0,5	29,961850
1,892000	0,5	28,691850
1,900333	0,5	27,821900
1,908667	0,5	28,139300
1,917000	0,5	31,639100
1,925333	0,5	42,065351
1,933667	0,5	68,054501
1,942000	0,5	130,206702
1,950333	0,5	250,609954
1,958667	0,5	394,644806
1,967000	0,5	460,971457
1,975333	0,5	408,891856
1,983667	0,5	300,426604
1,992000	0,5	204,012153
2,000333	0,5	139,496602
2,008667	0,5	100,117851
2,017000	0,5	76,542801
2,025333	0,5	62,798351
2,033667	0,5	55,068451
2,042000	0,5	50,124851
2,050333	0,5	45,613101
2,058667	0,5	41,240701
2,067000	0,5	37,588551
2,075333	0,5	34,755751
2,083667	0,5	32,565700
2,092000	0,5	31,122850
2,100333	0,5	30,393550
2,108667	0,5	29,996900
2,117000	0,5	29,717700
2,125333	0,5	29,200650
2,133667	0,5	28,073500
2,142000	0,5	26,584950
2,150333	0,5	25,207500
2,158667	0,5	24,128100
2,167000	0,5	23,284700
2,175333	0,5	22,615850
2,183667	0,5	22,127350
2,192000	0,5	21,740050
2,200333	0,5	21,430900
2,208667	0,5	21,186550
2,217000	0,5	21,071000
2,225333	0,5	20,993850
2,233667	0,5	20,849850
2,242000	0,5	20,625300
2,250333	0,5	20,417450
2,258667	0,5	20,299250
2,267000	0,5	20,278150
2,275333	0,5	20,350150
2,283667	0,5	20,914950
2,292000	0,5	22,542200
2,300333	0,5	23,306100
2,308667	0,5	22,148500
2,317000	0,5	20,800500
2,325333	0,5	20,113900
2,333667	0,5	19,878950
2,342000	0,5	19,959100
2,350333	0,5	20,343050
2,358667	0,5	21,160750
2,367000	0,5	22,545150
2,375333	0,5	24,509300
2,383667	0,5	26,752950
2,392000	0,5	28,788100
2,400333	0,5	30,158750
2,408667	0,5	30,684950
2,417000	0,5	30,482550
2,425333	0,5	29,719000
2,433667	0,5	28,694900
2,442000	0,5	27,695450
2,450333	0,5	27,133350
2,458667	0,5	27,913950
2,467000	0,5	31,850600
2,475333	0,5	41,369701
2,483667	0,5	57,837051
2,492000	0,5	81,836251
2,500333	0,5	118,959202
2,508667	0,5	197,792153
2,517000	0,5	404,432206
2,525333	0,5	800,596062
2,533667	0,5	1 193,582568
2,542000	0,5	1 390,062121
2,550333	0,5	1 390,609021
2,558667	0,5	1 263,648719
2,567000	0,5	1 077,628816
2,575333	0,5	881,004963
2,583667	0,5	699,020110
2,592000	0,5	548,460458
2,600333	0,5	430,653056
2,608667	0,5	335,503855
2,617000	0,5	260,992804
2,625333	0,5	203,744453
2,633667	0,5	161,099902
2,642000	0,5	130,113202
2,650333	0,5	107,848702
2,658667	0,5	91,768401
2,667000	0,5	79,775551
2,675333	0,5	70,406651
2,683667	0,5	62,795601
2,692000	0,5	56,589001
2,700333	0,5	51,547451
2,708667	0,5	47,543951
2,717000	0,5	44,336351
2,725333	0,5	41,670151
2,733667	0,5	39,394801
2,742000	0,5	37,385601
2,750333	0,5	35,548051
2,758667	0,5	33,853501
2,767000	0,5	32,279650
2,775333	0,5	30,925600
2,783667	0,5	29,850650
2,792000	0,5	29,110250
2,800333	0,5	28,623900
2,808667	0,5	28,206600
2,817000	0,5	27,588300
2,825333	0,5	26,616250
2,833667	0,5	25,331400
2,842000	0,5	23,878100
2,850333	0,5	22,473550
2,858667	0,5	21,237200
2,867000	0,5	20,186200
2,875333	0,5	19,283300
2,883667	0,5	18,523050
2,892000	0,5	17,867650
2,900333	0,5	17,310450
2,908667	0,5	16,811800
2,917000	0,5	16,352750
2,925333	0,5	15,908950
2,933667	0,5	15,491350
2,942000	0,5	15,056000
2,950333	0,5	14,639850
2,958667	0,5	14,233200
2,967000	0,5	13,854100
2,975333	0,5	13,511400
2,983667	0,5	13,211900
2,992000	0,5	12,958650
3,000333	0,5	12,729300
3,008667	0,5	12,541900
3,017000	0,5	12,345600
3,025333	0,5	12,152850
3,033667	0,5	11,957750
3,042000	0,5	11,760250
3,050333	0,5	11,558250
3,058667	0,5	11,356450
3,067000	0,5	11,139600
3,075333	0,5	10,936500
3,083667	0,5	10,728000
3,092000	0,5	10,526150
3,100333	0,5	10,319000
3,108667	0,5	10,120950
3,117000	0,5	9,930300
3,125333	0,5	9,761200
3,133667	0,5	9,600650
3,142000	0,5	9,440700
3,150333	0,5	9,303000
3,158667	0,5	9,177200
3,167000	0,5	9,041150
3,175333	0,5	8,940450
3,183667	0,5	8,882900
3,192000	0,5	8,886600
3,200333	0,5	8,944200
3,208667	0,5	9,026000
3,217000	0,5	9,108600
3,225333	0,5	9,146800
3,233667	0,5	9,126700
3,242000	0,5	9,020900
3,250333	0,5	8,860650
3,258667	0,5	8,652450
3,267000	0,5	8,433000
3,275333	0,5	8,212500
3,283667	0,5	8,005900
3,292000	0,5	7,823050
3,300333	0,5	7,686700
3,308667	0,5	7,558350
3,317000	0,5	7,460650
3,325333	0,5	7,393050
3,333667	0,5	7,352700
3,342000	0,5	7,352800
3,350333	0,5	7,374450
3,358667	0,5	7,424750
3,367000	0,5	7,487950
3,375333	0,5	7,579750
3,383667	0,5	7,659450
3,392000	0,5	7,736000
3,400333	0,5	7,772200
3,408667	0,5	7,781950
3,417000	0,5	7,760150
3,425333	0,5	7,709100
3,433667	0,5	7,628150
3,442000	0,5	7,538350
3,450333	0,5	7,450500
3,458667	0,5	7,342700
3,467000	0,5	7,230750
3,475333	0,5	7,138600
3,483667	0,5	7,057450
3,492000	0,5	7,023050
3,500333	0,5	6,992350
3,508667	0,5	7,018250
3,517000	0,5	7,101400
3,525333	0,5	7,224200
3,533667	0,5	7,365350
3,542000	0,5	7,487100
3,550333	0,5	7,546900
3,558667	0,5	7,528500
3,567000	0,5	7,441900
3,575333	0,5	7,291900
3,583667	0,5	7,118250
3,592000	0,5	6,939150
3,600333	0,5	6,805800
3,608667	0,5	6,666300
3,617000	0,5	6,584800
3,625333	0,5	6,546250
3,633667	0,5	6,557350
3,642000	0,5	6,602900
3,650333	0,5	6,658250
3,658667	0,5	6,718200
3,667000	0,5	6,780300
3,675333	0,5	6,818350
3,683667	0,5	6,837950
3,692000	0,5	6,825100
3,700333	0,5	6,801900
3,708667	0,5	6,780700
3,717000	0,5	6,780500
3,725333	0,5	6,819500
3,733667	0,5	6,898100
3,742000	0,5	7,068700
3,750333	0,5	7,320200
3,758667	0,5	7,637400
3,767000	0,5	8,036050
3,775333	0,5	8,504450
3,783667	0,5	9,033700
3,792000	0,5	9,651200
3,800333	0,5	10,387800
3,808667	0,5	11,392900
3,817000	0,5	12,766300
3,825333	0,5	14,634700
3,833667	0,5	16,975700
3,842000	0,5	19,635600
3,850333	0,5	22,271400
3,858667	0,5	24,477050
3,867000	0,5	25,843100
3,875333	0,5	26,123100
3,883667	0,5	25,303650
3,892000	0,5	23,581450
3,900333	0,5	21,233600
3,908667	0,5	18,612100
3,917000	0,5	16,037750
3,925333	0,5	13,712100
3,933667	0,5	11,758550
3,942000	0,5	10,205600
3,950333	0,5	9,040700
3,958667	0,5	8,214400
3,967000	0,5	7,666250
3,975333	0,5	7,297850
3,983667	0,5	7,051950
3,992000	0,5	6,850300
4,000333	0,5	6,665600
4,008667	0,5	6,472200
4,017000	0,5	6,260200
4,025333	0,5	6,029300
4,033667	0,5	5,802800
4,042000	0,5	5,597000
4,050333	0,5	5,399450
4,058667	0,5	5,232350
4,067000	0,5	5,101300
4,075333	0,5	4,998000
4,083667	0,5	4,925850
4,092000	0,5	4,863200
4,100333	0,5	4,795550
4,108667	0,5	4,743150
4,117000	0,5	4,681550
4,125333	0,5	4,629200
4,133667	0,5	4,570950
4,142000	0,5	4,527950
4,150333	0,5	4,480850
4,158667	0,5	4,446200
4,167000	0,5	4,414800
4,175333	0,5	4,384650
4,183667	0,5	4,359750
4,192000	0,5	4,340750
4,200333	0,5	4,306800
4,208667	0,5	4,286550
4,217000	0,5	4,263050
4,225333	0,5	4,252400
4,233667	0,5	4,234750
4,242000	0,5	4,211200
4,250333	0,5	4,183750
4,258667	0,5	4,148450
4,267000	0,5	4,119650
4,275333	0,5	4,084000
4,283667	0,5	4,049000
4,292000	0,5	4,014300
4,300333	0,5	3,983150
4,308667	0,5	3,957850
4,317000	0,5	3,928900
4,325333	0,5	3,902900
4,333667	0,5	3,900450
4,342000	0,5	3,877700
4,350333	0,5	3,860300
4,358667	0,5	3,849500
4,367000	0,5	3,854900
4,375333	0,5	3,857150
4,383667	0,5	3,859200
4,392000	0,5	3,853850
4,400333	0,5	3,850050
4,408667	0,5	3,840450
4,417000	0,5	3,829400
4,425333	0,5	3,814750
4,433667	0,5	3,794300
4,442000	0,5	3,777450
4,450333	0,5	3,761100
4,458667	0,5	3,748100
4,467000	0,5	3,728050
4,475333	0,5	3,717300
4,483667	0,5	3,725000
4,492000	0,5	3,717250
4,500333	0,5	3,719150
4,508667	0,5	3,734450
4,517000	0,5	3,757200
4,525333	0,5	3,803950
4,533667	0,5	3,835250
4,542000	0,5	3,872900
4,550333	0,5	3,909650
4,558667	0,5	3,951400
4,567000	0,5	3,985400
4,575333	0,5	4,020550
4,583667	0,5	4,043850
4,592000	0,5	4,068350
4,600333	0,5	4,095450
4,608667	0,5	4,116000
4,617000	0,5	4,141150
4,625333	0,5	4,153100
4,633667	0,5	4,186500
4,642000	0,5	4,181150
4,650333	0,5	4,188950
4,658667	0,5	4,187850
4,667000	0,5	4,189100
4,675333	0,5	4,186550
4,683667	0,5	4,167150
4,692000	0,5	4,148800
4,700333	0,5	4,144750
4,708667	0,5	4,136050
4,717000	0,5	4,148700
4,725333	0,5	4,166900
4,733667	0,5	4,201450
4,742000	0,5	4,252200
4,750333	0,5	4,312700
4,758667	0,5	4,384550
4,767000	0,5	4,436950
4,775333	0,5	4,476550
4,783667	0,5	4,493700
4,792000	0,5	4,463100
4,800333	0,5	4,398150
4,808667	0,5	4,312900
4,817000	0,5	4,211900
4,825333	0,5	4,108550
4,833667	0,5	3,982450
4,842000	0,5	3,878550
4,850333	0,5	3,783800
4,858667	0,5	3,711900
4,867000	0,5	3,641950
4,875333	0,5	3,589850
4,883667	0,5	3,543100
4,892000	0,5	3,503950
4,900333	0,5	3,469250
4,908667	0,5	3,434900
4,917000	0,5	3,395950
4,925333	0,5	3,374650
4,933667	0,5	3,344400
4,942000	0,5	3,312150
4,950333	0,5	3,289450
4,958667	0,5	3,272750
4,967000	0,5	3,264050
4,975333	0,5	3,250500
4,983667	0,5	3,238350
4,992000	0,5	3,225800
5,000333	0,5	3,217800
5,008667	0,5	3,209300
5,017000	0,5	3,205400
5,025333	0,5	3,195950
5,033667	0,5	3,189500
5,042000	0,5	3,182050
5,050333	0,5	3,181500
5,058667	0,5	3,174200
5,067000	0,5	3,172550
5,075333	0,5	3,171300
5,083667	0,5	3,160000
5,092000	0,5	3,151000
5,100333	0,5	3,143800
5,108667	0,5	3,138000
5,117000	0,5	3,138050
5,125333	0,5	3,134050
5,133667	0,5	3,119200
5,142000	0,5	3,102850
5,150333	0,5	3,089400
5,158667	0,5	3,078300
5,167000	0,5	3,065200
5,175333	0,5	3,056100
5,183667	0,5	3,049600
5,192000	0,5	3,049400
5,200333	0,5	3,044800
5,208667	0,5	3,042700
5,217000	0,5	3,045850
5,225333	0,5	3,053100
5,233667	0,5	3,043400
5,242000	0,5	3,052950
5,250333	0,5	3,071100
5,258667	0,5	3,111950
5,267000	0,5	3,165850
5,275333	0,5	3,230650
5,283667	0,5	3,301650
5,292000	0,5	3,383100
5,300333	0,5	3,457900
5,308667	0,5	3,515350
5,317000	0,5	3,551800
5,325333	0,5	3,550850
5,333667	0,5	3,532800
5,342000	0,5	3,486650
5,350333	0,5	3,427600
5,358667	0,5	3,370000
5,367000	0,5	3,338350
5,375333	0,5	3,305700
5,383667	0,5	3,288050
5,392000	0,5	3,291000
5,400333	0,5	3,314550
5,408667	0,5	3,366200
5,417000	0,5	3,428700
5,425333	0,5	3,496350
5,433667	0,5	3,577350
5,442000	0,5	3,641250
5,450333	0,5	3,699800
5,458667	0,5	3,711350
5,467000	0,5	3,687650
5,475333	0,5	3,618350
5,483667	0,5	3,515250
5,492000	0,5	3,391350
5,500333	0,5	3,249550
5,508667	0,5	3,121850
5,517000	0,5	3,023350
5,525333	0,5	2,930600
5,533667	0,5	2,861000
5,542000	0,5	2,818450
5,550333	0,5	2,795250
5,558667	0,5	2,801200
5,567000	0,5	2,799100
5,575333	0,5	2,813550
5,583667	0,5	2,834000
5,592000	0,5	2,870600
5,600333	0,5	2,905350
5,608667	0,5	2,953100
5,617000	0,5	2,995950
5,625333	0,5	3,038200
5,633667	0,5	3,069600
5,642000	0,5	3,088750
5,650333	0,5	3,094900
5,658667	0,5	3,077600
5,667000	0,5	3,059100
5,675333	0,5	3,016250
5,683667	0,5	2,978350
5,692000	0,5	2,944200
5,700333	0,5	2,918250
5,708667	0,5	2,896750
5,717000	0,5	2,869650
5,725333	0,5	2,843000
5,733667	0,5	2,823700
5,742000	0,5	2,803850
5,750333	0,5	2,785550
5,758667	0,5	2,759500
5,767000	0,5	2,737200
5,775333	0,5	2,713450
5,783667	0,5	2,695500
5,792000	0,5	2,682750
5,800333	0,5	2,661150
5,808667	0,5	2,651700
5,817000	0,5	2,658600
5,825333	0,5	2,657900
5,833667	0,5	2,673650
5,842000	0,5	2,697750
5,850333	0,5	2,742000
5,858667	0,5	2,792400
5,867000	0,5	2,825100
5,875333	0,5	2,858550
5,883667	0,5	2,879350
5,892000	0,5	2,880800
5,900333	0,5	2,864650
5,908667	0,5	2,827400
5,917000	0,5	2,782600
5,925333	0,5	2,732800
5,933667	0,5	2,686100
5,942000	0,5	2,635200
5,950333	0,5	2,595900
5,958667	0,5	2,573100
5,967000	0,5	2,551700
5,975333	0,5	2,543700
5,983667	0,5	2,552500
5,992000	0,5	2,571100
6,000333	0,5	2,595650
6,008667	0,5	2,623850
6,017000	0,5	2,638950
6,025333	0,5	2,649550
6,033667	0,5	2,649600
6,042000	0,5	2,641950
6,050333	0,5	2,622600
6,058667	0,5	2,592350
6,067000	0,5	2,558950
6,075333	0,5	2,514700
6,083667	0,5	2,475800
6,092000	0,5	2,429150
6,100333	0,5	2,387200
6,108667	0,5	2,352250
6,117000	0,5	2,324550
6,125333	0,5	2,294350
6,133667	0,5	2,278950
6,142000	0,5	2,267050
6,150333	0,5	2,268400
6,158667	0,5	2,263700
6,167000	0,5	2,256800
6,175333	0,5	2,250900
6,183667	0,5	2,254050
6,192000	0,5	2,251650
6,200333	0,5	2,250200
6,208667	0,5	2,255600
6,217000	0,5	2,260750
6,225333	0,5	2,278200
6,233667	0,5	2,297700
6,242000	0,5	2,328450
6,250333	0,5	2,369950
6,258667	0,5	2,418200
6,267000	0,5	2,458450
6,275333	0,5	2,499050
6,283667	0,5	2,529250
6,292000	0,5	2,546350
6,300333	0,5	2,546650
6,308667	0,5	2,523950
6,317000	0,5	2,480350
6,325333	0,5	2,436000
6,333667	0,5	2,383300
6,342000	0,5	2,336950
6,350333	0,5	2,293300
6,358667	0,5	2,255150
6,367000	0,5	2,226400
6,375333	0,5	2,201650
6,383667	0,5	2,182000
6,392000	0,5	2,159250
6,400333	0,5	2,156200
6,408667	0,5	2,147050
6,417000	0,5	2,135750
6,425333	0,5	2,133100
6,433667	0,5	2,133400
6,442000	0,5	2,140200
6,450333	0,5	2,149750
6,458667	0,5	2,154150
6,467000	0,5	2,165750
6,475333	0,5	2,181350
6,483667	0,5	2,204150
6,492000	0,5	2,229850
6,500333	0,5	2,275650
6,508667	0,5	2,333600
6,517000	0,5	2,400900
6,525333	0,5	2,483100
6,533667	0,5	2,555050
6,542000	0,5	2,622200
6,550333	0,5	2,673750
6,558667	0,5	2,689150
6,567000	0,5	2,668500
6,575333	0,5	2,624400
6,583667	0,5	2,564950
6,592000	0,5	2,503800
6,600333	0,5	2,431950
6,608667	0,5	2,376950
6,617000	0,5	2,336550
6,625333	0,5	2,323650
6,633667	0,5	2,323950
6,642000	0,5	2,348050
6,650333	0,5	2,383250
6,658667	0,5	2,438100
6,667000	0,5	2,505000
6,675333	0,5	2,591200
6,683667	0,5	2,696150
6,692000	0,5	2,842150
6,700333	0,5	3,042000
6,708667	0,5	3,300850
6,717000	0,5	3,633600
6,725333	0,5	4,036150
6,733667	0,5	4,467350
6,742000	0,5	4,902050
6,750333	0,5	5,244250
6,758667	0,5	5,457900
6,767000	0,5	5,508250
6,775333	0,5	5,384100
6,783667	0,5	5,116850
6,792000	0,5	4,754700
6,800333	0,5	4,368600
6,808667	0,5	4,011900
6,817000	0,5	3,719950
6,825333	0,5	3,509850
6,833667	0,5	3,373850
6,842000	0,5	3,292700
6,850333	0,5	3,251400
6,858667	0,5	3,219450
6,867000	0,5	3,195050
6,875333	0,5	3,175000
6,883667	0,5	3,165250
6,892000	0,5	3,168750
6,900333	0,5	3,195400
6,908667	0,5	3,281150
6,917000	0,5	3,434750
6,925333	0,5	3,677350
6,933667	0,5	4,001000
6,942000	0,5	4,381700
6,950333	0,5	4,763300
6,958667	0,5	5,098450
6,967000	0,5	5,317450
6,975333	0,5	5,382400
6,983667	0,5	5,268500
6,992000	0,5	5,014600
7,000333	0,5	4,645550
7,008667	0,5	4,225750
7,017000	0,5	3,821000
7,025333	0,5	3,469350
7,033667	0,5	3,188800
7,042000	0,5	2,991950
7,050333	0,5	2,859600
7,058667	0,5	2,779850
7,067000	0,5	2,738000
7,075333	0,5	2,709450
7,083667	0,5	2,675800
7,092000	0,5	2,620850
7,100333	0,5	2,549500
7,108667	0,5	2,464850
7,117000	0,5	2,376400
7,125333	0,5	2,293200
7,133667	0,5	2,227700
7,142000	0,5	2,188800
7,150333	0,5	2,155400
7,158667	0,5	2,134400
7,167000	0,5	2,119100
7,175333	0,5	2,108350
7,183667	0,5	2,097200
7,192000	0,5	2,087350
7,200333	0,5	2,078100
7,208667	0,5	2,074750
7,217000	0,5	2,076150
7,225333	0,5	2,080000
7,233667	0,5	2,085400
7,242000	0,5	2,083650
7,250333	0,5	2,075400
7,258667	0,5	2,067550
7,267000	0,5	2,049300
7,275333	0,5	2,025950
7,283667	0,5	2,009200
7,292000	0,5	1,988800
7,300333	0,5	1,969100
7,308667	0,5	1,954450
7,317000	0,5	1,952650
7,325333	0,5	1,961350
7,333667	0,5	1,968700
7,342000	0,5	1,983500
7,350333	0,5	1,986400
7,358667	0,5	1,990450
7,367000	0,5	1,989700
7,375333	0,5	1,984900
7,383667	0,5	1,966050
7,392000	0,5	1,955550
7,400333	0,5	1,950100
7,408667	0,5	1,957700
7,417000	0,5	1,979000
7,425333	0,5	2,025250
7,433667	0,5	2,106100
7,442000	0,5	2,199500
7,450333	0,5	2,289650
7,458667	0,5	2,359700
7,467000	0,5	2,389200
7,475333	0,5	2,365900
7,483667	0,5	2,305000
7,492000	0,5	2,219050
7,500333	0,5	2,140100
7,508667	0,5	2,078750
7,517000	0,5	2,041650
7,525333	0,5	2,021300
7,533667	0,5	2,016500
7,542000	0,5	2,021200
7,550333	0,5	2,027650
7,558667	0,5	2,025950
7,567000	0,5	2,006850
7,575333	0,5	1,978900
7,583667	0,5	1,950150
7,592000	0,5	1,903050
7,600333	0,5	1,860200
7,608667	0,5	1,829650
7,617000	0,5	1,804200
7,625333	0,5	1,793750
7,633667	0,5	1,785600
7,642000	0,5	1,780200
7,650333	0,5	1,777050
7,658667	0,5	1,776250
7,667000	0,5	1,774000
7,675333	0,5	1,772950
7,683667	0,5	1,779200
7,692000	0,5	1,775500
7,700333	0,5	1,778850
7,708667	0,5	1,781100
7,717000	0,5	1,780050
7,725333	0,5	1,782600
7,733667	0,5	1,792050
7,742000	0,5	1,800400
7,750333	0,5	1,812100
7,758667	0,5	1,822850
7,767000	0,5	1,840700
7,775333	0,5	1,871900
7,783667	0,5	1,899150
7,792000	0,5	1,933400
7,800333	0,5	1,960550
7,808667	0,5	1,983950
7,817000	0,5	1,990900
7,825333	0,5	1,982700
7,833667	0,5	1,968850
7,842000	0,5	1,963450
7,850333	0,5	1,986650
7,858667	0,5	2,050700
7,867000	0,5	2,171850
7,875333	0,5	2,350650
7,883667	0,5	2,565550
7,892000	0,5	2,767900
7,900333	0,5	2,917550
7,908667	0,5	2,965950
7,917000	0,5	2,922800
7,925333	0,5	2,801750
7,933667	0,5	2,643350
7,942000	0,5	2,487150
7,950333	0,5	2,368600
7,958667	0,5	2,289500
7,967000	0,5	2,246600
7,975333	0,5	2,223400
7,983667	0,5	2,204950
7,992000	0,5	2,178350
8,000333	0,5	2,137300
8,008667	0,5	2,086800
8,017000	0,5	2,036450
8,025333	0,5	2,001400
8,033667	0,5	1,986950
8,042000	0,5	2,003750
8,050333	0,5	2,054600
8,058667	0,5	2,131500
8,067000	0,5	2,217650
8,075333	0,5	2,276050
8,083667	0,5	2,290050
8,092000	0,5	2,255100
8,100333	0,5	2,172600
8,108667	0,5	2,082500
8,117000	0,5	1,996300
8,125333	0,5	1,925900
8,133667	0,5	1,869600
8,142000	0,5	1,833900
8,150333	0,5	1,808100
8,158667	0,5	1,793850
8,167000	0,5	1,792450
8,175333	0,5	1,803050
8,183667	0,5	1,810000
8,192000	0,5	1,821500
8,200333	0,5	1,834750
8,208667	0,5	1,844950
8,217000	0,5	1,853350
8,225333	0,5	1,861550
8,233667	0,5	1,861850
8,242000	0,5	1,868250
8,250333	0,5	1,874000
8,258667	0,5	1,881050
8,267000	0,5	1,890650
8,275333	0,5	1,895900
8,283667	0,5	1,899100
8,292000	0,5	1,894000
8,300333	0,5	1,889650
8,308667	0,5	1,876250
8,317000	0,5	1,864900
8,325333	0,5	1,851750
8,333667	0,5	1,843000
8,342000	0,5	1,832900
8,350333	0,5	1,822750
8,358667	0,5	1,819150
8,367000	0,5	1,823150
8,375333	0,5	1,827900
8,383667	0,5	1,839850
8,392000	0,5	1,858500
8,400333	0,5	1,885800
8,408667	0,5	1,921350
8,417000	0,5	1,969500
8,425333	0,5	2,024950
8,433667	0,5	2,093750
8,442000	0,5	2,168700
8,450333	0,5	2,259250
8,458667	0,5	2,365500
8,467000	0,5	2,501800
8,475333	0,5	2,678550
8,483667	0,5	2,939650
8,492000	0,5	3,344200
8,500333	0,5	3,970900
8,508667	0,5	4,847600
8,517000	0,5	5,950200
8,525333	0,5	7,146900
8,533667	0,5	8,230650
8,542000	0,5	8,964100
8,550333	0,5	9,190850
8,558667	0,5	8,869200
8,567000	0,5	8,091000
8,575333	0,5	7,042250
8,583667	0,5	5,923150
8,592000	0,5	4,892250
8,600333	0,5	4,038650
8,608667	0,5	3,396250
8,617000	0,5	2,939000
8,625333	0,5	2,625000
8,633667	0,5	2,412000
8,642000	0,5	2,270200
8,650333	0,5	2,180200
8,658667	0,5	2,126000
8,667000	0,5	2,091850
8,675333	0,5	2,065100
8,683667	0,5	2,039300
8,692000	0,5	2,014750
8,700333	0,5	1,990500
8,708667	0,5	1,965350
8,717000	0,5	1,944100
8,725333	0,5	1,928950
8,733667	0,5	1,912550
8,742000	0,5	1,902200
8,750333	0,5	1,895600
8,758667	0,5	1,901650
8,767000	0,5	1,920250
8,775333	0,5	1,969100
8,783667	0,5	2,045850
8,792000	0,5	2,148950
8,800333	0,5	2,255000
8,808667	0,5	2,347750
8,817000	0,5	2,388700
8,825333	0,5	2,370250
8,833667	0,5	2,304750
8,842000	0,5	2,214900
8,850333	0,5	2,121350
8,858667	0,5	2,038250
8,867000	0,5	1,974700
8,875333	0,5	1,923200
8,883667	0,5	1,887250
8,892000	0,5	1,860800
8,900333	0,5	1,834900
8,908667	0,5	1,818350
8,917000	0,5	1,809550
8,925333	0,5	1,815250
8,933667	0,5	1,833550
8,942000	0,5	1,870250
8,950333	0,5	1,913500
8,958667	0,5	1,953050
8,967000	0,5	1,970350
8,975333	0,5	1,961400
8,983667	0,5	1,926850
8,992000	0,5	1,886400
9,000333	0,5	1,846650
9,008667	0,5	1,816250
9,017000	0,5	1,798150
9,025333	0,5	1,784650
9,033667	0,5	1,778550
9,042000	0,5	1,776900
9,050333	0,5	1,775200
9,058667	0,5	1,778500
9,067000	0,5	1,788750
9,075333	0,5	1,801850
9,083667	0,5	1,826550
9,092000	0,5	1,863650
9,100333	0,5	1,906900
9,108667	0,5	1,946550
9,117000	0,5	1,980350
9,125333	0,5	1,995200
9,133667	0,5	1,995400
9,142000	0,5	1,971800
9,150333	0,5	1,943000
9,158667	0,5	1,907000
9,167000	0,5	1,869000
9,175333	0,5	1,842200
9,183667	0,5	1,818200
9,192000	0,5	1,801400
9,200333	0,5	1,785550
9,208667	0,5	1,775000
9,217000	0,5	1,772500
9,225333	0,5	1,766450
9,233667	0,5	1,767700
9,242000	0,5	1,775800
9,250333	0,5	1,787000
9,258667	0,5	1,809900
9,267000	0,5	1,844750
9,275333	0,5	1,881800
9,283667	0,5	1,920750
9,292000	0,5	1,953350
9,300333	0,5	1,964350
9,308667	0,5	1,955350
9,317000	0,5	1,936850
9,325333	0,5	1,917100
9,333667	0,5	1,906700
9,342000	0,5	1,901000
9,350333	0,5	1,903650
9,358667	0,5	1,905200
9,367000	0,5	1,896300
9,375333	0,5	1,876450
9,383667	0,5	1,847600
9,392000	0,5	1,818800
9,400333	0,5	1,794550
9,408667	0,5	1,781200
9,417000	0,5	1,766650
9,425333	0,5	1,760300
9,433667	0,5	1,750450
9,442000	0,5	1,745050
9,450333	0,5	1,735500
9,458667	0,5	1,729200
9,467000	0,5	1,721500
9,475333	0,5	1,720950
9,483667	0,5	1,722300
9,492000	0,5	1,722850
9,500333	0,5	1,728150
9,508667	0,5	1,743100
9,517000	0,5	1,760650
9,525333	0,5	1,781350
9,533667	0,5	1,825050
9,542000	0,5	1,871700
9,550333	0,5	1,932500
9,558667	0,5	1,991750
9,567000	0,5	2,037100
9,575333	0,5	2,069250
9,583667	0,5	2,075800
9,592000	0,5	2,069450
9,600333	0,5	2,050400
9,608667	0,5	2,025450
9,617000	0,5	2,008850
9,625333	0,5	2,005850
9,633667	0,5	2,023700
9,642000	0,5	2,061850
9,650333	0,5	2,104550
9,658667	0,5	2,135950
9,667000	0,5	2,142200
9,675333	0,5	2,117300
9,683667	0,5	2,067900
9,692000	0,5	2,002650
9,700333	0,5	1,933300
9,708667	0,5	1,864100
9,717000	0,5	1,807100
9,725333	0,5	1,764900
9,733667	0,5	1,740450
9,742000	0,5	1,729400
9,750333	0,5	1,728700
9,758667	0,5	1,743600
9,767000	0,5	1,774850
9,775333	0,5	1,813450
9,783667	0,5	1,860350
9,792000	0,5	1,887900
9,800333	0,5	1,907650
9,808667	0,5	1,905700
9,817000	0,5	1,880850
9,825333	0,5	1,844150
9,833667	0,5	1,806000
9,842000	0,5	1,771900
9,850333	0,5	1,742250
9,858667	0,5	1,723350
9,867000	0,5	1,707850
9,875333	0,5	1,701250
9,883667	0,5	1,695550
9,892000	0,5	1,695050
9,900333	0,5	1,705500
9,908667	0,5	1,728600
9,917000	0,5	1,772700
9,925333	0,5	1,836100
9,933667	0,5	1,897200
9,942000	0,5	1,941700
9,950333	0,5	1,964150
9,958667	0,5	1,952800
9,967000	0,5	1,909600
9,975333	0,5	1,860650
9,983667	0,5	1,804550
9,992000	0,5	1,750350
10,000333	0,5	1,707500
10,008667	0,5	1,667100
10,017000	0,5	1,635150
10,025333	0,5	1,611600
10,033667	0,5	1,593900
10,042000	0,5	1,587950
10,050333	0,5	1,586350
10,058667	0,5	1,588250
10,067000	0,5	1,599650
10,075333	0,5	1,612400
10,083667	0,5	1,635100
10,092000	0,5	1,664650
10,100333	0,5	1,701500
10,108667	0,5	1,740700
10,117000	0,5	1,781650
10,125333	0,5	1,820300
10,133667	0,5	1,848750
10,142000	0,5	1,873800
10,150333	0,5	1,875400
10,158667	0,5	1,852700
10,167000	0,5	1,814050
10,175333	0,5	1,760800
10,183667	0,5	1,702900
10,192000	0,5	1,649250
10,200333	0,5	1,600600
10,208667	0,5	1,569200
10,217000	0,5	1,558200
10,225333	0,5	1,569800
10,233667	0,5	1,599400
10,242000	0,5	1,651850
10,250333	0,5	1,715200
10,258667	0,5	1,768050
10,267000	0,5	1,799000
10,275333	0,5	1,806250
10,283667	0,5	1,787550
10,292000	0,5	1,746100
10,300333	0,5	1,695350
10,308667	0,5	1,645300
10,317000	0,5	1,601100
10,325333	0,5	1,558450
10,333667	0,5	1,528800
10,342000	0,5	1,499450
10,350333	0,5	1,476850
10,358667	0,5	1,454000
10,367000	0,5	1,440350
10,375333	0,5	1,433350
10,383667	0,5	1,422550
10,392000	0,5	1,428400
10,400333	0,5	1,432200
10,408667	0,5	1,435050
10,417000	0,5	1,438550
10,425333	0,5	1,441050
10,433667	0,5	1,447250
10,442000	0,5	1,459300
10,450333	0,5	1,472900
10,458667	0,5	1,479850
10,467000	0,5	1,489500
10,475333	0,5	1,482100
10,483667	0,5	1,474650
10,492000	0,5	1,462650
10,500333	0,5	1,463650
10,508667	0,5	1,478050
10,517000	0,5	1,518950
10,525333	0,5	1,574000
10,533667	0,5	1,635150
10,542000	0,5	1,693650
10,550333	0,5	1,722850
10,558667	0,5	1,724950
10,567000	0,5	1,701700
10,575333	0,5	1,657900
10,583667	0,5	1,616000
10,592000	0,5	1,571600
10,600333	0,5	1,530450
10,608667	0,5	1,493250
10,617000	0,5	1,457350
10,625333	0,5	1,431300
10,633667	0,5	1,402750
10,642000	0,5	1,388050
10,650333	0,5	1,375050
10,658667	0,5	1,371850
10,667000	0,5	1,380200
10,675333	0,5	1,396300
10,683667	0,5	1,407050
10,692000	0,5	1,420450
10,700333	0,5	1,418700
10,708667	0,5	1,413650
10,717000	0,5	1,401250
10,725333	0,5	1,394950
10,733667	0,5	1,392500
10,742000	0,5	1,405650
10,750333	0,5	1,436250
10,758667	0,5	1,486250
10,767000	0,5	1,555150
10,775333	0,5	1,620550
10,783667	0,5	1,668300
10,792000	0,5	1,687400
10,800333	0,5	1,672950
10,808667	0,5	1,634200
10,817000	0,5	1,575900
10,825333	0,5	1,506950
10,833667	0,5	1,443200
10,842000	0,5	1,382350
10,850333	0,5	1,337150
10,858667	0,5	1,295800
10,867000	0,5	1,277550
10,875333	0,5	1,273750
10,883667	0,5	1,288000
10,892000	0,5	1,309550
10,900333	0,5	1,334850
10,908667	0,5	1,356400
10,917000	0,5	1,372950
10,925333	0,5	1,379700
10,933667	0,5	1,383800
10,942000	0,5	1,389450
10,950333	0,5	1,406950
10,958667	0,5	1,434200
10,967000	0,5	1,465300
10,975333	0,5	1,486800
10,983667	0,5	1,490750
10,992000	0,5	1,470550
11,000333	0,5	1,437100
11,008667	0,5	1,392350
11,017000	0,5	1,344300
11,025333	0,5	1,306600
11,033667	0,5	1,280850
11,042000	0,5	1,260650
11,050333	0,5	1,249850
11,058667	0,5	1,251700
11,067000	0,5	1,271250
11,075333	0,5	1,300450
11,083667	0,5	1,338300
11,092000	0,5	1,380000
11,100333	0,5	1,429350
11,108667	0,5	1,480200
11,117000	0,5	1,535950
11,125333	0,5	1,591400
11,133667	0,5	1,642600
11,142000	0,5	1,674450
11,150333	0,5	1,688700
11,158667	0,5	1,677200
11,167000	0,5	1,646450
11,175333	0,5	1,597700
11,183667	0,5	1,544750
11,192000	0,5	1,493750
11,200333	0,5	1,456600
11,208667	0,5	1,443850
11,217000	0,5	1,450000
11,225333	0,5	1,467650
11,233667	0,5	1,482050
11,242000	0,5	1,474300
11,250333	0,5	1,446450
11,258667	0,5	1,415050
11,267000	0,5	1,386100
11,275333	0,5	1,373550
11,283667	0,5	1,384750
11,292000	0,5	1,424650
11,300333	0,5	1,536600
11,308667	0,5	1,762150
11,317000	0,5	2,025150
11,325333	0,5	2,159300
11,333667	0,5	2,045900
11,342000	0,5	1,809150
11,350333	0,5	1,519850
11,358667	0,5	1,149600
11,367000	0,5	0,791550
11,375333	0,5	0,493100
11,383667	0,5	0,306300
11,392000	0,5	0,193650
11,400333	0,5	0,119750
11,408667	0,5	0,065650
11,417000	0,5	0,020650
11,425333	0,5	0,001000
11,433667	0,5	-0,012400
11,442000	0,5	-0,013750
11,450333	0,5	-0,008550
11,458667	0,5	0,001400
11,467000	0,5	0,031900
11,475333	0,5	0,057900
11,483667	0,5	0,085300
11,492000	0,5	0,108500
11,500333	0,5	0,126350
11,508667	0,5	0,128450
11,517000	0,5	0,123350
11,525333	0,5	0,102000
11,533667	0,5	0,074000
11,542000	0,5	0,037950
11,550333	0,5	0,001950
11,558667	0,5	-0,043800
11,567000	0,5	-0,086850
11,575333	0,5	-0,123450
11,583667	0,5	-0,157900
11,592000	0,5	-0,191150
11,600333	0,5	-0,221700
11,608667	0,5	-0,249100
11,617000	0,5	-0,268950
11,625333	0,5	-0,286600
11,633667	0,5	-0,304150
11,642000	0,5	-0,325400
11,650333	0,5	-0,338650
11,658667	0,5	-0,349750
11,667000	0,5	-0,361150
11,675333	0,5	-0,372200
11,683667	0,5	-0,378400
11,692000	0,5	-0,382700
11,700333	0,5	-0,387450
11,708667	0,5	-0,391250
11,717000	0,5	-0,395700
11,725333	0,5	-0,390350
11,733667	0,5	-0,385700
11,742000	0,5	-0,384550
11,750333	0,5	-0,380050
11,758667	0,5	-0,366900
11,767000	0,5	-0,350650
11,775333	0,5	-0,327700
11,783667	0,5	-0,310800
11,792000	0,5	-0,290550
11,800333	0,5	-0,271450
11,808667	0,5	-0,256300
11,817000	0,5	-0,245200
11,825333	0,5	-0,237050
11,833667	0,5	-0,232400
11,842000	0,5	-0,237300
11,850333	0,5	-0,241650
11,858667	0,5	-0,255350
11,867000	0,5	-0,267950
11,875333	0,5	-0,283650
11,883667	0,5	-0,300800
11,892000	0,5	-0,317000
11,900333	0,5	-0,337000
11,908667	0,5	-0,347500
11,917000	0,5	-0,356500
11,925333	0,5	-0,362800
11,933667	0,5	-0,367550
11,942000	0,5	-0,378450
11,950333	0,5	-0,384700
11,958667	0,5	-0,388100
11,967000	0,5	-0,393600
11,975333	0,5	-0,396200
11,983667	0,5	-0,401550
11,992000	0,5	-0,400100
12,000333	0,5	-0,405300
12,008667	0,5	-0,411450
12,017000	0,5	-0,410850
12,025333	0,5	-0,412850
12,033667	0,5	-0,416600
12,042000	0,5	-0,419550
12,050333	0,5	-0,425250
12,058667	0,5	-0,423150
12,067000	0,5	-0,423600
12,075333	0,5	-0,417850
12,083667	0,5	-0,416900
12,092000	0,5	-0,409750
12,100333	0,5	-0,408600
12,108667	0,5	-0,405250
12,117000	0,5	-0,402650
12,125333	0,5	-0,399200
12,133667	0,5	-0,394450
12,142000	0,5	-0,385950
12,150333	0,5	-0,388750
12,158667	0,5	-0,380150
12,167000	0,5	-0,371000
12,175333	0,5	-0,364700
12,183667	0,5	-0,361800
12,192000	0,5	-0,360100
12,200333	0,5	-0,352950
12,208667	0,5	-0,344900
12,217000	0,5	-0,332050
12,225333	0,5	-0,324600
12,233667	0,5	-0,313300
12,242000	0,5	-0,304750
12,250333	0,5	-0,302600
12,258667	0,5	-0,294550
12,267000	0,5	-0,286000
12,275333	0,5	-0,281600
12,283667	0,5	-0,269750
12,292000	0,5	-0,263650
12,300333	0,5	-0,261100
12,308667	0,5	-0,255650
12,317000	0,5	-0,244700
12,325333	0,5	-0,241550
12,333667	0,5	-0,238650
12,342000	0,5	-0,242650
12,350333	0,5	-0,239050
12,358667	0,5	-0,230150
12,367000	0,5	-0,227700
12,375333	0,5	-0,219200
12,383667	0,5	-0,218600
12,392000	0,5	-0,213700
12,400333	0,5	-0,213650
12,408667	0,5	-0,206050
12,417000	0,5	-0,204150
12,425333	0,5	-0,203500
12,433667	0,5	-0,198150
12,442000	0,5	-0,194950
12,450333	0,5	-0,203150
12,458667	0,5	-0,193900
12,467000	0,5	-0,191600
12,475333	0,5	-0,193550
12,483667	0,5	-0,192900
12,492000	0,5	-0,197650
12,500333	0,5	-0,192800
12,508667	0,5	-0,193000
12,517000	0,5	-0,191100
12,525333	0,5	-0,187900
12,533667	0,5	-0,188550
12,542000	0,5	-0,184500
12,550333	0,5	-0,182750
12,558667	0,5	-0,184900
12,567000	0,5	-0,179350
12,575333	0,5	-0,180100
12,583667	0,5	-0,171350
12,592000	0,5	-0,175350
12,600333	0,5	-0,176100
12,608667	0,5	-0,171350
12,617000	0,5	-0,170400
12,625333	0,5	-0,175300
12,633667	0,5	-0,175150
12,642000	0,5	-0,179600
12,650333	0,5	-0,174950
12,658667	0,5	-0,173800
12,667000	0,5	-0,170400
12,675333	0,5	-0,170600
12,683667	0,5	-0,166400
12,692000	0,5	-0,166800
12,700333	0,5	-0,164950
12,708667	0,5	-0,166400
12,717000	0,5	-0,166550
12,725333	0,5	-0,164000
12,733667	0,5	-0,162950
12,742000	0,5	-0,165400
12,750333	0,5	-0,167000
12,758667	0,5	-0,161450
12,767000	0,5	-0,161350
12,775333	0,5	-0,161400
12,783667	0,5	-0,166550
12,792000	0,5	-0,162700
12,800333	0,5	-0,159700
12,808667	0,5	-0,153550
12,817000	0,5	-0,151300
12,825333	0,5	-0,146800
12,833667	0,5	-0,146100
12,842000	0,5	-0,140250
12,850333	0,5	-0,138000
12,858667	0,5	-0,137100
12,867000	0,5	-0,135500
12,875333	0,5	-0,134250
12,883667	0,5	-0,128650
12,892000	0,5	-0,129450
12,900333	0,5	-0,124050
12,908667	0,5	-0,123050
12,917000	0,5	-0,121300
12,925333	0,5	-0,121900
12,933667	0,5	-0,122450
12,942000	0,5	-0,119700
12,950333	0,5	-0,115750
12,958667	0,5	-0,110900
12,967000	0,5	-0,104950
12,975333	0,5	-0,103650
12,983667	0,5	-0,098600
12,992000	0,5	-0,098800
13,000333	0,5	-0,093700
13,008667	0,5	-0,091750
13,017000	0,5	-0,087400
13,025333	0,5	-0,082200
13,033667	0,5	-0,079950
13,042000	0,5	-0,080100
13,050333	0,5	-0,071500
13,058667	0,5	-0,066700
13,067000	0,5	-0,061150
13,075333	0,5	-0,062400
13,083667	0,5	-0,060200
13,092000	0,5	-0,052900
13,100333	0,5	-0,042750
13,108667	0,5	-0,036050
13,117000	0,5	-0,031050
13,125333	0,5	-0,024350
13,133667	0,5	-0,020400
13,142000	0,5	-0,015750
13,150333	0,5	-0,012500
13,158667	0,5	-0,007700
13,167000	0,5	0,000450
13,175333	0,5	0,010950
13,183667	0,5	0,009200
13,192000	0,5	0,020500
13,200333	0,5	0,029750
13,208667	0,5	0,035950
13,217000	0,5	0,044500
13,225333	0,5	0,041400
13,233667	0,5	0,051350
13,242000	0,5	0,058350
13,250333	0,5	0,071350
13,258667	0,5	0,081750
13,267000	0,5	0,097800
13,275333	0,5	0,109250
13,283667	0,5	0,120150
13,292000	0,5	0,134600
13,300333	0,5	0,146700
13,308667	0,5	0,157050
13,317000	0,5	0,171400
13,325333	0,5	0,178050
13,333667	0,5	0,186450
13,342000	0,5	0,202150
13,350333	0,5	0,218500
13,358667	0,5	0,230800
13,367000	0,5	0,243500
13,375333	0,5	0,242300
13,383667	0,5	0,247600
13,392000	0,5	0,243650
13,400333	0,5	0,238900
13,408667	0,5	0,229000
13,417000	0,5	0,223800
13,425333	0,5	0,225300
13,433667	0,5	0,224850
13,442000	0,5	0,231800
13,450333	0,5	0,236700
13,458667	0,5	0,246600
13,467000	0,5	0,259650
13,475333	0,5	0,276950
13,483667	0,5	0,282350
13,492000	0,5	0,312750
13,500333	0,5	0,341950
13,508667	0,5	0,374800
13,517000	0,5	0,410350
13,525333	0,5	0,438000
13,533667	0,5	0,466250
13,542000	0,5	0,471400
13,550333	0,5	0,450600
13,558667	0,5	0,431050
13,567000	0,5	0,408550
13,575333	0,5	0,384500
13,583667	0,5	0,368800
13,592000	0,5	0,359550
13,600333	0,5	0,359800
13,608667	0,5	0,366000
13,617000	0,5	0,391150
13,625333	0,5	0,409450
13,633667	0,5	0,444750
13,642000	0,5	0,487250
13,650333	0,5	0,532200
13,658667	0,5	0,564800
13,667000	0,5	0,588100
13,675333	0,5	0,594250
13,683667	0,5	0,592000
13,692000	0,5	0,563550
13,700333	0,5	0,523600
13,708667	0,5	0,486050
13,717000	0,5	0,485700
13,725333	0,5	0,418600
13,733667	0,5	0,400650
13,742000	0,5	0,397800
13,750333	0,5	0,408250
13,758667	0,5	0,431150
13,767000	0,5	0,459800
13,775333	0,5	0,479350
13,783667	0,5	0,507400
13,792000	0,5	0,519250
13,800333	0,5	0,515950
13,808667	0,5	0,500100
13,817000	0,5	0,471600
13,825333	0,5	0,447500
13,833667	0,5	0,420600
13,842000	0,5	0,397350
13,850333	0,5	0,381000
13,858667	0,5	0,378150
13,867000	0,5	0,378450
13,875333	0,5	0,386450
13,883667	0,5	0,393000
13,892000	0,5	0,398000
13,900333	0,5	0,398950
13,908667	0,5	0,395700
13,917000	0,5	0,393750
13,925333	0,5	0,379850
13,933667	0,5	0,375850
13,942000	0,5	0,361900
13,950333	0,5	0,347300
13,958667	0,5	0,330800
13,967000	0,5	0,319800
13,975333	0,5	0,310750
13,983667	0,5	0,308350
13,992000	0,5	0,298350
14,000333	0,5	0,288850
14,008667	0,5	0,278800
14,017000	0,5	0,275250
14,025333	0,5	0,266900
14,033667	0,5	0,259150
14,042000	0,5	0,253900
14,050333	0,5	0,250550
14,058667	0,5	0,251950
14,067000	0,5	0,246250
14,075333	0,5	0,245600
14,083667	0,5	0,246200
14,092000	0,5	0,243000
14,100333	0,5	0,237600
14,108667	0,5	0,222500
14,117000	0,5	0,212800
14,125333	0,5	0,208050
14,133667	0,5	0,199450
14,142000	0,5	0,190450
14,150333	0,5	0,180700
14,158667	0,5	0,177050
14,167000	0,5	0,169800
14,175333	0,5	0,169800
14,183667	0,5	0,161350
14,192000	0,5	0,156100
14,200333	0,5	0,156300
14,208667	0,5	0,154050
14,217000	0,5	0,141200
14,225333	0,5	0,148150
14,233667	0,5	0,145350
14,242000	0,5	0,137750
14,250333	0,5	0,133400
14,258667	0,5	0,121400
14,267000	0,5	0,123400
14,275333	0,5	0,121050
14,283667	0,5	0,120100
14,292000	0,5	0,114150
14,300333	0,5	0,110800
14,308667	0,5	0,111100
14,317000	0,5	0,110550
14,325333	0,5	0,105900
14,333667	0,5	0,105300
14,342000	0,5	0,096700
14,350333	0,5	0,100400
14,358667	0,5	0,091000
14,367000	0,5	0,085850
14,375333	0,5	0,086900
14,383667	0,5	0,086050
14,392000	0,5	0,081150
14,400333	0,5	0,075600
14,408667	0,5	0,071000
14,417000	0,5	0,070200
14,425333	0,5	0,072450
14,433667	0,5	0,071300
14,442000	0,5	0,063550
14,450333	0,5	0,058650
14,458667	0,5	0,057800
14,467000	0,5	0,054350
14,475333	0,5	0,054100
14,483667	0,5	0,048550
14,492000	0,5	0,049700
14,500333	0,5	0,051950
14,508667	0,5	0,052650
14,517000	0,5	0,047950
14,525333	0,5	0,047050
14,533667	0,5	0,046700
14,542000	0,5	0,032500
14,550333	0,5	0,022900
14,558667	0,5	0,017400
14,567000	0,5	0,022700
14,575333	0,5	0,025250
14,583667	0,5	0,025350
14,592000	0,5	0,027750
14,600333	0,5	0,025250
14,608667	0,5	0,021450
14,617000	0,5	0,014600
14,625333	0,5	0,010200
14,633667	0,5	0,012000
14,642000	0,5	0,001200
14,650333	0,5	0,009500
14,658667	0,5	-0,005700
14,667000	0,5	-0,001350
14,675333	0,5	-0,003600
14,683667	0,5	-0,009800
14,692000	0,5	-0,019600
14,700333	0,5	-0,028250
14,708667	0,5	-0,032700
14,717000	0,5	-0,028500
14,725333	0,5	-0,031150
14,733667	0,5	-0,032350
14,742000	0,5	-0,044050
14,750333	0,5	-0,040900
14,758667	0,5	-0,043550
14,767000	0,5	-0,046600
14,775333	0,5	-0,050350
14,783667	0,5	-0,051950
14,792000	0,5	-0,046950
14,800333	0,5	-0,054550
14,808667	0,5	-0,070000
14,817000	0,5	-0,068300
14,825333	0,5	-0,070150
14,833667	0,5	-0,076500
14,842000	0,5	-0,095200
14,850333	0,5	-0,106850
14,858667	0,5	-0,102100
14,867000	0,5	-0,106800
14,875333	0,5	-0,105300
14,883667	0,5	-0,111150
14,892000	0,5	-0,110850
14,900333	0,5	-0,113550
14,908667	0,5	-0,111550
14,917000	0,5	-0,111850
14,925333	0,5	-0,119450
14,933667	0,5	-0,119900
14,942000	0,5	-0,121200
14,950333	0,5	-0,123200
14,958667	0,5	-0,128000
14,967000	0,5	-0,122450
14,975333	0,5	-0,126600
14,983667	0,5	-0,129200
14,992000	0,5	-0,143800
15,000333	0,5	-0,150950
15,008667	0,5	-0,154950
15,017000	0,5	-0,150150
15,025333	0,5	-0,148800
15,033667	0,5	-0,146100
15,042000	0,5	-0,154750
15,050333	0,5	-0,149450
15,058667	0,5	-0,152100
15,067000	0,5	-0,154300
15,075333	0,5	-0,153900
15,083667	0,5	-0,151600
15,092000	0,5	-0,153950
15,100333	0,5	-0,161000
15,108667	0,5	-0,156100
15,117000	0,5	-0,151450
15,125333	0,5	-0,152850
15,133667	0,5	-0,155550
15,142000	0,5	-0,165850
15,150333	0,5	-0,163950
15,158667	0,5	-0,156500
15,167000	0,5	-0,156750
15,175333	0,5	-0,149900
15,183667	0,5	-0,153250
15,192000	0,5	-0,149600
15,200333	0,5	-0,152000
15,208667	0,5	-0,150050
15,217000	0,5	-0,152700
15,225333	0,5	-0,151650
15,233667	0,5	-0,144250
15,242000	0,5	-0,153250
15,250333	0,5	-0,165850
15,258667	0,5	-0,157400
15,267000	0,5	-0,157600
15,275333	0,5	-0,165050
15,283667	0,5	-0,167800
15,292000	0,5	-0,177700
15,300333	0,5	-0,175150
15,308667	0,5	-0,177750
15,317000	0,5	-0,180750
15,325333	0,5	-0,182250
15,333667	0,5	-0,183050
15,342000	0,5	-0,192600
15,350333	0,5	-0,190600
15,358667	0,5	-0,195250
15,367000	0,5	-0,195050
15,375333	0,5	-0,195250
15,383667	0,5	-0,191050
15,392000	0,5	-0,197050
15,400333	0,5	-0,200050
15,408667	0,5	-0,201450
15,417000	0,5	-0,203200
15,425333	0,5	-0,217000
15,433667	0,5	-0,237750
15,442000	0,5	-0,254150
15,450333	0,5	-0,260250
15,458667	0,5	-0,264000
15,467000	0,5	-0,272200
15,475333	0,5	-0,277200
15,483667	0,5	-0,280550
15,492000	0,5	-0,284000
15,500333	0,5	-0,290800
15,508667	0,5	-0,286200
15,517000	0,5	-0,296200
15,525333	0,5	-0,295050
15,533667	0,5	-0,300200
15,542000	0,5	-0,317800
15,550333	0,5	-0,315900
15,558667	0,5	-0,313700
15,567000	0,5	-0,317950
15,575333	0,5	-0,320200
15,583667	0,5	-0,335700
15,592000	0,5	-0,337050
15,600333	0,5	-0,332800
15,608667	0,5	-0,337450
15,617000	0,5	-0,336550
15,625333	0,5	-0,336600
15,633667	0,5	-0,338100
15,642000	0,5	-0,334850
15,650333	0,5	-0,332150
15,658667	0,5	-0,334950
15,667000	0,5	-0,331000
15,675333	0,5	-0,329900
15,683667	0,5	-0,323050
15,692000	0,5	-0,337000
15,700333	0,5	-0,332300
15,708667	0,5	-0,335300
15,717000	0,5	-0,339450
15,725333	0,5	-0,347900
15,733667	0,5	-0,370250
15,742000	0,5	-0,370600
15,750333	0,5	-0,366100
15,758667	0,5	-0,371400
15,767000	0,5	-0,373150
15,775333	0,5	-0,377900
15,783667	0,5	-0,381150
15,792000	0,5	-0,381700
15,800333	0,5	-0,385450
15,808667	0,5	-0,384650
15,817000	0,5	-0,386550
15,825333	0,5	-0,381100
15,833667	0,5	-0,389900
15,842000	0,5	-0,398900
15,850333	0,5	-0,388750
15,858667	0,5	-0,394200
15,867000	0,5	-0,400950
15,875333	0,5	-0,407950
15,883667	0,5	-0,421400
15,892000	0,5	-0,415850
15,900333	0,5	-0,420650
15,908667	0,5	-0,417200
15,917000	0,5	-0,420150
15,925333	0,5	-0,419600
15,933667	0,5	-0,424100
15,942000	0,5	-0,422200
15,950333	0,5	-0,419650
15,958667	0,5	-0,420650
15,967000	0,5	-0,411600
15,975333	0,5	-0,411550
15,983667	0,5	-0,415000
15,992000	0,5	-0,414500
16,000333	0,5	-0,409750
16,008667	0,5	-0,417500
16,017000	0,5	-0,422850
16,025333	0,5	-0,442050
16,033667	0,5	-0,450600
16,042000	0,5	-0,451600
16,050333	0,5	-0,447150
16,058667	0,5	-0,448600
16,067000	0,5	-0,438800
16,075333	0,5	-0,441100
16,083667	0,5	-0,441750
16,092000	0,5	-0,446300
16,100333	0,5	-0,450600
16,108667	0,5	-0,457650
16,117000	0,5	-0,456650
16,125333	0,5	-0,463450
16,133667	0,5	-0,477200
16,142000	0,5	-0,472250
16,150333	0,5	-0,470250
16,158667	0,5	-0,473400
16,167000	0,5	-0,484400
16,175333	0,5	-0,496700
16,183667	0,5	-0,497900
16,192000	0,5	-0,495650
16,200333	0,5	-0,497450
16,208667	0,5	-0,497350
16,217000	0,5	-0,498300
16,225333	0,5	-0,497900
16,233667	0,5	-0,500750
16,242000	0,5	-0,499550
16,250333	0,5	-0,503050
16,258667	0,5	-0,501650
16,267000	0,5	-0,498850
16,275333	0,5	-0,505400
16,283667	0,5	-0,510550
16,292000	0,5	-0,498100
16,300333	0,5	-0,498600
16,308667	0,5	-0,499800
16,317000	0,5	-0,505600
16,325333	0,5	-0,510900
16,333667	0,5	-0,505550
16,342000	0,5	-0,505750
16,350333	0,5	-0,499550
16,358667	0,5	-0,495200
16,367000	0,5	-0,491050
16,375333	0,5	-0,497700
16,383667	0,5	-0,487200
16,392000	0,5	-0,484850
16,400333	0,5	-0,479900
16,408667	0,5	-0,475550
16,417000	0,5	-0,464350
16,425333	0,5	-0,468800
16,433667	0,5	-0,455650
16,442000	0,5	-0,447700
16,450333	0,5	-0,441450
16,458667	0,5	-0,440050
16,467000	0,5	-0,448800
16,475333	0,5	-0,440700
16,483667	0,5	-0,429750
16,492000	0,5	-0,419850
16,500333	0,5	-0,416500
16,508667	0,5	-0,406150
16,517000	0,5	-0,398000
16,525333	0,5	-0,384150
16,533667	0,5	-0,380850
16,542000	0,5	-0,367650
16,550333	0,5	-0,363000
16,558667	0,5	-0,354800
16,567000	0,5	-0,348150
16,575333	0,5	-0,361350
16,583667	0,5	-0,352950
16,592000	0,5	-0,351650
16,600333	0,5	-0,351800
16,608667	0,5	-0,355950
16,617000	0,5	-0,369450
16,625333	0,5	-0,365150
16,633667	0,5	-0,362900
16,642000	0,5	-0,358700
16,650333	0,5	-0,354600
16,658667	0,5	-0,350650
16,667000	0,5	-0,343500
16,675333	0,5	-0,335650
16,683667	0,5	-0,331100
16,692000	0,5	-0,328350
16,700333	0,5	-0,321350
16,708667	0,5	-0,319600
16,717000	0,5	-0,312650
16,725333	0,5	-0,317900
16,733667	0,5	-0,306700
16,742000	0,5	-0,308150
16,750333	0,5	-0,304550
16,758667	0,5	-0,314400
16,767000	0,5	-0,322750
16,775333	0,5	-0,316750
16,783667	0,5	-0,318250
16,792000	0,5	-0,319200
16,800333	0,5	-0,317550
16,808667	0,5	-0,319000
16,817000	0,5	-0,319500
16,825333	0,5	-0,320400
16,833667	0,5	-0,326300
16,842000	0,5	-0,320650
16,850333	0,5	-0,318800
16,858667	0,5	-0,311800
16,867000	0,5	-0,316400
16,875333	0,5	-0,310400
16,883667	0,5	-0,304100
16,892000	0,5	-0,305950
16,900333	0,5	-0,315000
16,908667	0,5	-0,325300
16,917000	0,5	-0,331700
16,925333	0,5	-0,329300
16,933667	0,5	-0,341800
16,942000	0,5	-0,340200
16,950333	0,5	-0,348300
16,958667	0,5	-0,352800
16,967000	0,5	-0,357700
16,975333	0,5	-0,368750
16,983667	0,5	-0,375200
16,992000	0,5	-0,384700
17,000333	0,5	-0,382900
17,008667	0,5	-0,390900
17,017000	0,5	-0,401100
17,025333	0,5	-0,400300
17,033667	0,5	-0,405350
17,042000	0,5	-0,414700
17,050333	0,5	-0,420350
17,058667	0,5	-0,438150
17,067000	0,5	-0,439700
17,075333	0,5	-0,444600
17,083667	0,5	-0,442550
17,092000	0,5	-0,448950
17,100333	0,5	-0,449700
17,108667	0,5	-0,457050
17,117000	0,5	-0,456900
17,125333	0,5	-0,458100
17,133667	0,5	-0,469400
17,142000	0,5	-0,469200
17,150333	0,5	-0,464700
17,158667	0,5	-0,474200
17,167000	0,5	-0,478600
17,175333	0,5	-0,472850
17,183667	0,5	-0,480750
17,192000	0,5	-0,486300
17,200333	0,5	-0,501750
17,208667	0,5	-0,507150
17,217000	0,5	-0,511450
17,225333	0,5	-0,508100
17,233667	0,5	-0,523600
17,242000	0,5	-0,519950
17,250333	0,5	-0,526700
17,258667	0,5	-0,527150
17,267000	0,5	-0,533350
17,275333	0,5	-0,535150
17,283667	0,5	-0,541400
17,292000	0,5	-0,545700
17,300333	0,5	-0,545450
17,308667	0,5	-0,563000
17,317000	0,5	-0,558300
17,325333	0,5	-0,558750
17,333667	0,5	-0,567700
17,342000	0,5	-0,576500
17,350333	0,5	-0,593600
17,358667	0,5	-0,604350
17,367000	0,5	-0,597650
17,375333	0,5	-0,607550
17,383667	0,5	-0,608650
17,392000	0,5	-0,615150
17,400333	0,5	-0,609550
17,408667	0,5	-0,613000
17,417000	0,5	-0,615700
17,425333	0,5	-0,618650
17,433667	0,5	-0,626250
17,442000	0,5	-0,619200
17,450333	0,5	-0,618350
17,458667	0,5	-0,638550
17,467000	0,5	-0,629600
17,475333	0,5	-0,634150
17,483667	0,5	-0,642150
17,492000	0,5	-0,653700
17,500333	0,5	-0,670350
17,508667	0,5	-0,665000
17,517000	0,5	-0,675200
17,525333	0,5	-0,674700
17,533667	0,5	-0,687650
17,542000	0,5	-0,686650
17,550333	0,5	-0,693550
17,558667	0,5	-0,693100
17,567000	0,5	-0,697500
17,575333	0,5	-0,700850
17,583667	0,5	-0,707600
17,592000	0,5	-0,702550
17,600333	0,5	-0,712400
17,608667	0,5	-0,718200
17,617000	0,5	-0,711850
17,625333	0,5	-0,720800
17,633667	0,5	-0,728800
17,642000	0,5	-0,737900
17,650333	0,5	-0,745650
17,658667	0,5	-0,744400
17,667000	0,5	-0,746000
17,675333	0,5	-0,748200
17,683667	0,5	-0,748950
17,692000	0,5	-0,756500
17,700333	0,5	-0,756700
17,708667	0,5	-0,762050
17,717000	0,5	-0,757300
17,725333	0,5	-0,770700
17,733667	0,5	-0,771300
17,742000	0,5	-0,773350
17,750333	0,5	-0,779750
17,758667	0,5	-0,777200
17,767000	0,5	-0,775800
17,775333	0,5	-0,782400
17,783667	0,5	-0,791800
17,792000	0,5	-0,802850
17,800333	0,5	-0,817250
17,808667	0,5	-0,813300
17,817000	0,5	-0,817600
17,825333	0,5	-0,827150
17,833667	0,5	-0,830150
17,842000	0,5	-0,832300
17,850333	0,5	-0,839250
17,858667	0,5	-0,840800
17,867000	0,5	-0,847200
17,875333	0,5	-0,850250
17,883667	0,5	-0,853500
17,892000	0,5	-0,855250
17,900333	0,5	-0,867600
17,908667	0,5	-0,862650
17,917000	0,5	-0,871950
17,925333	0,5	-0,875100
17,933667	0,5	-0,890200
17,942000	0,5	-0,902250
17,950333	0,5	-0,905450
17,958667	0,5	-0,905650
17,967000	0,5	-0,908050
17,975333	0,5	-0,910400
17,983667	0,5	-0,916000
17,992000	0,5	-0,919700
18,000333	0,5	-0,916050
18,008667	0,5	-0,915000
18,017000	0,5	-0,913550
18,025333	0,5	-0,921800
18,033667	0,5	-0,913650
18,042000	0,5	-0,927800
18,050333	0,5	-0,924800
18,058667	0,5	-0,923650
18,067000	0,5	-0,931550
18,075333	0,5	-0,938900
18,083667	0,5	-0,954100
18,092000	0,5	-0,965950
18,100333	0,5	-0,968300
18,108667	0,5	-0,969450
18,117000	0,5	-0,969250
18,125333	0,5	-0,975700
18,133667	0,5	-0,974300
18,142000	0,5	-0,975650
18,150333	0,5	-0,978600
18,158667	0,5	-0,977900
18,167000	0,5	-0,982400
18,175333	0,5	-0,971350
18,183667	0,5	-0,975050
18,192000	0,5	-0,984850
18,200333	0,5	-0,981300
18,208667	0,5	-0,979850
18,217000	0,5	-0,984200
18,225333	0,5	-0,991900
18,233667	0,5	-1,008300
18,242000	0,5	-1,005100
18,250333	0,5	-1,006800
18,258667	0,5	-1,001300
18,267000	0,5	-1,004150
18,275333	0,5	-1,003200
18,283667	0,5	-1,002250
18,292000	0,5	-1,000000
18,300333	0,5	-0,996450
18,308667	0,5	-0,998050
18,317000	0,5	-0,994750
18,325333	0,5	-0,994750
18,333667	0,5	-0,990200
18,342000	0,5	-1,006100
18,350333	0,5	-0,987750
18,358667	0,5	-0,984850
18,367000	0,5	-0,985700
18,375333	0,5	-0,993500
18,383667	0,5	-0,999500
18,392000	0,5	-0,997300
18,400333	0,5	-0,994400
18,408667	0,5	-0,996750
18,417000	0,5	-0,992900
18,425333	0,5	-1,003150
18,433667	0,5	-0,997450
18,442000	0,5	-0,989200
18,450333	0,5	-0,989150
18,458667	0,5	-0,988350
18,467000	0,5	-0,984450
18,475333	0,5	-0,970600
18,483667	0,5	-0,973950
18,492000	0,5	-0,979050
18,500333	0,5	-0,971700
18,508667	0,5	-0,970150
18,517000	0,5	-0,977850
18,525333	0,5	-0,994300
18,533667	0,5	-0,998250
18,542000	0,5	-0,986950
18,550333	0,5	-0,989250
18,558667	0,5	-0,986100
18,567000	0,5	-0,991400
18,575333	0,5	-0,983700
18,583667	0,5	-0,989850
18,592000	0,5	-0,983100
18,600333	0,5	-0,984250
18,608667	0,5	-0,982050
18,617000	0,5	-0,975550
18,625333	0,5	-0,974900
18,633667	0,5	-0,988850
18,642000	0,5	-0,974350
18,650333	0,5	-0,972750
18,658667	0,5	-0,973400
18,667000	0,5	-0,977850
18,675333	0,5	-0,997700
18,683667	0,5	-0,988000
18,692000	0,5	-0,991950
18,700333	0,5	-0,985950
18,708667	0,5	-0,992300
18,717000	0,5	-0,989250
18,725333	0,5	-0,996400
18,733667	0,5	-0,986400
18,742000	0,5	-0,987300
18,750333	0,5	-0,985900
18,758667	0,5	-0,990300
18,767000	0,5	-0,983600
18,775333	0,5	-0,981650
18,783667	0,5	-0,989300
18,792000	0,5	-0,979300
18,800333	0,5	-0,983400
18,808667	0,5	-0,982950
18,817000	0,5	-0,996250
18,825333	0,5	-1,011850
18,833667	0,5	-1,010700
18,842000	0,5	-1,004050
18,850333	0,5	-1,007000
18,858667	0,5	-1,001850
18,867000	0,5	-1,003750
18,875333	0,5	-1,002650
18,883667	0,5	-1,010100
18,892000	0,5	-1,003500
18,900333	0,5	-1,006100
18,908667	0,5	-1,009900
18,917000	0,5	-1,011750
18,925333	0,5	-1,018950
18,933667	0,5	-1,022100
18,942000	0,5	-1,015650
18,950333	0,5	-1,019900
18,958667	0,5	-1,025750
18,967000	0,5	-1,042050
18,975333	0,5	-1,054150
18,983667	0,5	-1,050700
18,992000	0,5	-1,054700
19,000333	0,5	-1,057550
19,008667	0,5	-1,063700
19,017000	0,5	-1,065550
19,025333	0,5	-1,072350
19,033667	0,5	-1,067250
19,042000	0,5	-1,074000
19,050333	0,5	-1,073650
19,058667	0,5	-1,070150
19,067000	0,5	-1,070650
19,075333	0,5	-1,085500
19,083667	0,5	-1,078300
19,092000	0,5	-1,081600
19,100333	0,5	-1,088850
19,108667	0,5	-1,104150
19,117000	0,5	-1,117050
19,125333	0,5	-1,124700
19,133667	0,5	-1,127000
19,142000	0,5	-1,127250
19,150333	0,5	-1,131500
19,158667	0,5	-1,130250
19,167000	0,5	-1,135700
19,175333	0,5	-1,132750
19,183667	0,5	-1,138900
19,192000	0,5	-1,141200
19,200333	0,5	-1,145400
19,208667	0,5	-1,139250
19,217000	0,5	-1,156750
19,225333	0,5	-1,159050
19,233667	0,5	-1,158050
19,242000	0,5	-1,162350
19,250333	0,5	-1,171800
19,258667	0,5	-1,187350
19,267000	0,5	-1,198500
19,275333	0,5	-1,199900
19,283667	0,5	-1,201350
19,292000	0,5	-1,207650
19,300333	0,5	-1,209950
19,308667	0,5	-1,214600
19,317000	0,5	-1,220750
19,325333	0,5	-1,227950
19,333667	0,5	-1,221950
19,342000	0,5	-1,228950
19,350333	0,5	-1,226800
19,358667	0,5	-1,227650
19,367000	0,5	-1,244200
19,375333	0,5	-1,235650
19,383667	0,5	-1,235550
19,392000	0,5	-1,243300
19,400333	0,5	-1,248050
19,408667	0,5	-1,273250
19,417000	0,5	-1,273700
19,425333	0,5	-1,274400
19,433667	0,5	-1,275650
19,442000	0,5	-1,277100
19,450333	0,5	-1,278300
19,458667	0,5	-1,281450
19,467000	0,5	-1,283050
19,475333	0,5	-1,282700
19,483667	0,5	-1,289400
19,492000	0,5	-1,286200
19,500333	0,5	-1,289900
19,508667	0,5	-1,285600
19,517000	0,5	-1,309250
19,525333	0,5	-1,293800
19,533667	0,5	-1,294200
19,542000	0,5	-1,301050
19,550333	0,5	-1,308100
19,558667	0,5	-1,326000
19,567000	0,5	-1,317550
19,575333	0,5	-1,313850
19,583667	0,5	-1,321750
19,592000	0,5	-1,322150
19,600333	0,5	-1,321150
19,608667	0,5	-1,325600
19,617000	0,5	-1,327850
19,625333	0,5	-1,330050
19,633667	0,5	-1,327050
19,642000	0,5	-1,331550
19,650333	0,5	-1,318600
19,658667	0,5	-1,325600
19,667000	0,5	-1,329900
19,675333	0,5	-1,327900
19,683667	0,5	-1,327500
19,692000	0,5	-1,340400
19,700333	0,5	-1,345950
19,708667	0,5	-1,358750
19,717000	0,5	-1,358500
19,725333	0,5	-1,359300
19,733667	0,5	-1,361250
19,742000	0,5	-1,363450
19,750333	0,5	-1,365150
19,758667	0,5	-1,366150
19,767000	0,5	-1,365900
19,775333	0,5	-1,366950
19,783667	0,5	-1,371250
19,792000	0,5	-1,368350
19,800333	0,5	-1,367050
19,808667	0,5	-1,376150
19,817000	0,5	-1,372000
19,825333	0,5	-1,370800
19,833667	0,5	-1,372500
19,842000	0,5	-1,377950
19,850333	0,5	-1,396050
19,858667	0,5	-1,400250
19,867000	0,5	-1,401700
19,875333	0,5	-1,395350
19,883667	0,5	-1,395100
19,892000	0,5	-1,392750
19,900333	0,5	-1,390600
19,908667	0,5	-1,394800
19,917000	0,5	-1,397600
19,925333	0,5	-1,402250
19,933667	0,5	-1,395200
19,942000	0,5	-1,398500
19,950333	0,5	-1,400400
19,958667	0,5	-1,403550
19,967000	0,5	-1,395500
19,975333	0,5	-1,398050
19,983667	0,5	-1,402050
19,992000	0,5	-1,420300
20,000333	0,5	-1,423950
20,008667	0,5	-1,429400
20,017000	0,5	-1,424950
20,025333	0,5	-1,424050
20,033667	0,5	-1,420900
20,042000	0,5	-1,424250
20,050333	0,5	-1,415600
20,058667	0,5	-1,415350
20,067000	0,5	-1,414750
20,075333	0,5	-1,410300
20,083667	0,5	-1,405750
20,092000	0,5	-1,393400
20,100333	0,5	-1,397650
20,108667	0,5	-1,391050
20,117000	0,5	-1,384700
20,125333	0,5	-1,380750
20,133667	0,5	-1,382800
20,142000	0,5	-1,389150
20,150333	0,5	-1,393500
20,158667	0,5	-1,388650
20,167000	0,5	-1,392150
20,175333	0,5	-1,385650
20,183667	0,5	-1,385550
20,192000	0,5	-1,383800
20,200333	0,5	-1,384600
20,208667	0,5	-1,384300
20,217000	0,5	-1,386600
20,225333	0,5	-1,386950
20,233667	0,5	-1,375700
20,242000	0,5	-1,374250
20,250333	0,5	-1,385850
20,258667	0,5	-1,380450
20,267000	0,5	-1,383700
20,275333	0,5	-1,390900
20,283667	0,5	-1,398550
20,292000	0,5	-1,416000
20,300333	0,5	-1,406600
20,308667	0,5	-1,410400
20,317000	0,5	-1,407850
20,325333	0,5	-1,414650
20,333667	0,5	-1,407500
20,342000	0,5	-1,413100
20,350333	0,5	-1,414450
20,358667	0,5	-1,418750
20,367000	0,5	-1,423450
20,375333	0,5	-1,417400
20,383667	0,5	-1,406650
20,392000	0,5	-1,420450
20,400333	0,5	-1,419950
20,408667	0,5	-1,419450
20,417000	0,5	-1,420950
20,425333	0,5	-1,430100
20,433667	0,5	-1,445350
20,442000	0,5	-1,446250
20,450333	0,5	-1,451950
20,458667	0,5	-1,446150
20,467000	0,5	-1,453300
20,475333	0,5	-1,449500
20,483667	0,5	-1,453050
20,492000	0,5	-1,450050
20,500333	0,5	-1,450750
20,508667	0,5	-1,457700
20,517000	0,5	-1,457100
20,525333	0,5	-1,440850
20,533667	0,5	-1,435950
20,542000	0,5	-1,442200
20,550333	0,5	-1,439250
20,558667	0,5	-1,440100
20,567000	0,5	-1,443400
20,575333	0,5	-1,451050
20,583667	0,5	-1,468950
20,592000	0,5	-1,470400
20,600333	0,5	-1,458900
20,608667	0,5	-1,467050
20,617000	0,5	-1,454050
20,625333	0,5	-1,462050
20,633667	0,5	-1,456350
20,642000	0,5	-1,455200
20,650333	0,5	-1,449950
20,658667	0,5	-1,451900
20,667000	0,5	-1,446200
20,675333	0,5	-1,425750
20,683667	0,5	-1,417050
20,692000	0,5	-1,421250
20,700333	0,5	-1,409600
20,708667	0,5	-1,414150
20,717000	0,5	-1,419650
20,725333	0,5	-1,420650
20,733667	0,5	-1,432500
20,742000	0,5	-1,423450
20,750333	0,5	-1,423700
20,758667	0,5	-1,417800
20,767000	0,5	-1,417550
20,775333	0,5	-1,412050
20,783667	0,5	-1,411550
20,792000	0,5	-1,403400
20,800333	0,5	-1,402850
20,808667	0,5	-1,398100
20,817000	0,5	-1,378700
20,825333	0,5	-1,360350
20,833667	0,5	-1,359150
20,842000	0,5	-1,361650
20,850333	0,5	-1,360700
20,858667	0,5	-1,364550
20,867000	0,5	-1,376500
20,875333	0,5	-1,396350
20,883667	0,5	-1,402900
20,892000	0,5	-1,402050
20,900333	0,5	-1,391950
20,908667	0,5	-1,401000
20,917000	0,5	-1,390850
20,925333	0,5	-1,387450
20,933667	0,5	-1,378750
20,942000	0,5	-1,379250
20,950333	0,5	-1,373350
20,958667	0,5	-1,372700
20,967000	0,5	-1,351800
20,975333	0,5	-1,341550
20,983667	0,5	-1,344300
20,992000	0,5	-1,346350
21,000333	0,5	-1,344700
21,008667	0,5	-1,355800
21,017000	0,5	-1,368000
21,025333	0,5	-1,368200
21,033667	0,5	-1,372000
21,042000	0,5	-1,358250
21,050333	0,5	-1,359600
21,058667	0,5	-1,346900
21,067000	0,5	-1,349100
21,075333	0,5	-1,344500
21,083667	0,5	-1,344400
21,092000	0,5	-1,332500
21,100333	0,5	-1,332300
21,108667	0,5	-1,326450
21,117000	0,5	-1,306100
21,125333	0,5	-1,296200
21,133667	0,5	-1,303850
21,142000	0,5	-1,299000
21,150333	0,5	-1,303850
21,158667	0,5	-1,308450
21,167000	0,5	-1,321350
21,175333	0,5	-1,324650
21,183667	0,5	-1,310750
21,192000	0,5	-1,313700
21,200333	0,5	-1,307850
21,208667	0,5	-1,314850
21,217000	0,5	-1,304100
21,225333	0,5	-1,297900
21,233667	0,5	-1,290150
21,242000	0,5	-1,289550
21,250333	0,5	-1,282000
21,258667	0,5	-1,257000
21,267000	0,5	-1,237450
21,275333	0,5	-1,239600
21,283667	0,5	-1,234950
21,292000	0,5	-1,232250
21,300333	0,5	-1,234450
21,308667	0,5	-1,247450
21,317000	0,5	-1,251250
21,325333	0,5	-1,235450
21,333667	0,5	-1,231650
21,342000	0,5	-1,219400
21,350333	0,5	-1,219350
21,358667	0,5	-1,209850
21,367000	0,5	-1,202000
21,375333	0,5	-1,188850
21,383667	0,5	-1,182400
21,392000	0,5	-1,167050
21,400333	0,5	-1,148150
21,408667	0,5	-1,114850
21,417000	0,5	-1,090850
21,425333	0,5	-1,077200
21,433667	0,5	-1,052600
21,442000	0,5	-1,036350
21,450333	0,5	-1,027150
21,458667	0,5	-1,040600
21,467000	0,5	-1,044100
21,475333	0,5	-1,040550
21,483667	0,5	-1,036900
21,492000	0,5	-1,037150
21,500333	0,5	-1,025300
21,508667	0,5	-1,034150
21,517000	0,5	-1,024950
21,525333	0,5	-1,021050
21,533667	0,5	-1,017150
21,542000	0,5	-1,013950
21,550333	0,5	-0,986150
21,558667	0,5	-0,968600
21,567000	0,5	-0,963950
21,575333	0,5	-0,958350
21,583667	0,5	-0,955950
21,592000	0,5	-0,946850
21,600333	0,5	-0,952750
21,608667	0,5	-0,959900
21,617000	0,5	-0,937750
21,625333	0,5	-0,921750
21,633667	0,5	-0,906600
21,642000	0,5	-0,887400
21,650333	0,5	-0,870600
21,658667	0,5	-0,852850
21,667000	0,5	-0,842000
21,675333	0,5	-0,820300
21,683667	0,5	-0,807450
21,692000	0,5	-0,786100
21,700333	0,5	-0,749950
21,708667	0,5	-0,731900
21,717000	0,5	-0,726250
21,725333	0,5	-0,708100
21,733667	0,5	-0,697800
21,742000	0,5	-0,687000
21,750333	0,5	-0,679150
21,758667	0,5	-0,665700
21,767000	0,5	-0,645900
21,775333	0,5	-0,634750
21,783667	0,5	-0,622900
21,792000	0,5	-0,616650
21,800333	0,5	-0,600750
21,808667	0,5	-0,591950
21,817000	0,5	-0,569800
21,825333	0,5	-0,550350
21,833667	0,5	-0,533350
21,842000	0,5	-0,500950
21,850333	0,5	-0,474150
21,858667	0,5	-0,465300
21,867000	0,5	-0,446050
21,875333	0,5	-0,430000
21,883667	0,5	-0,416450
21,892000	0,5	-0,404050
21,900333	0,5	-0,398850
21,908667	0,5	-0,380500
21,917000	0,5	-0,353800
21,925333	0,5	-0,325400
21,933667	0,5	-0,301250
21,942000	0,5	-0,267500
21,950333	0,5	-0,242550
21,958667	0,5	-0,212250
21,967000	0,5	-0,184700
21,975333	0,5	-0,155050
21,983667	0,5	-0,123050
21,992000	0,5	-0,081250
22,000333	0,5	-0,062400
22,008667	0,5	-0,036250
22,017000	0,5	-0,008500
22,025333	0,5	0,004950
22,033667	0,5	0,017050
22,042000	0,5	0,013150
22,050333	0,5	0,027900
22,058667	0,5	0,042250
22,067000	0,5	0,070950
22,075333	0,5	0,087350
22,083667	0,5	0,112850
22,092000	0,5	0,134550
22,100333	0,5	0,152250
22,108667	0,5	0,176600
22,117000	0,5	0,204900
22,125333	0,5	0,233150
22,133667	0,5	0,264500
22,142000	0,5	0,294900
22,150333	0,5	0,318400
22,158667	0,5	0,357600
22,167000	0,5	0,388550
22,175333	0,5	0,423250
22,183667	0,5	0,451500
22,192000	0,5	0,480100
22,200333	0,5	0,515550
22,208667	0,5	0,566350
22,217000	0,5	0,600700
22,225333	0,5	0,639750
22,233667	0,5	0,677500
22,242000	0,5	0,719700
22,250333	0,5	0,757550
22,258667	0,5	0,800600
22,267000	0,5	0,836750
22,275333	0,5	0,882000
22,283667	0,5	0,926350
22,292000	0,5	0,964050
22,300333	0,5	1,020000
22,308667	0,5	1,080650
22,317000	0,5	1,134550
22,325333	0,5	1,173650
22,333667	0,5	1,209050
22,342000	0,5	1,244300
22,350333	0,5	1,296950
22,358667	0,5	1,335000
22,367000	0,5	1,382350
22,375333	0,5	1,420900
22,383667	0,5	1,470700
22,392000	0,5	1,512850
22,400333	0,5	1,563850
22,408667	0,5	1,613200
22,417000	0,5	1,669750
22,425333	0,5	1,711150
22,433667	0,5	1,766450
22,442000	0,5	1,814000
22,450333	0,5	1,891200
22,458667	0,5	1,954150
22,467000	0,5	2,008400
22,475333	0,5	2,060150
22,483667	0,5	2,101150
22,492000	0,5	2,171700
22,500333	0,5	2,226550
22,508667	0,5	2,289250
22,517000	0,5	2,347550
22,525333	0,5	2,412300
22,533667	0,5	2,470100
22,542000	0,5	2,530250
22,550333	0,5	2,594400
22,558667	0,5	2,656350
22,567000	0,5	2,712150
22,575333	0,5	2,738150
22,583667	0,5	2,808550
22,592000	0,5	2,865950
22,600333	0,5	2,932400
22,608667	0,5	2,977950
22,617000	0,5	3,021900
22,625333	0,5	3,059200
22,633667	0,5	3,090950
22,642000	0,5	3,126450
22,650333	0,5	3,162300
22,658667	0,5	3,189150
22,667000	0,5	3,223300
22,675333	0,5	3,238500
22,683667	0,5	3,255950
22,692000	0,5	3,255900
22,700333	0,5	3,259650
22,708667	0,5	3,247800
22,717000	0,5	3,203950
22,725333	0,5	3,171500
22,733667	0,5	3,153800
22,742000	0,5	3,124550
22,750333	0,5	3,075300
22,758667	0,5	3,007050
22,767000	0,5	2,923300
22,775333	0,5	2,837500
22,783667	0,5	2,734650
22,792000	0,5	2,647800
22,800333	0,5	2,547300
22,808667	0,5	2,447350
22,817000	0,5	2,340450
22,825333	0,5	2,231400
22,833667	0,5	2,117100
22,842000	0,5	1,993750
22,850333	0,5	1,868350
22,858667	0,5	1,741100
22,867000	0,5	1,564350
22,875333	0,5	1,433900
22,883667	0,5	1,303450
22,892000	0,5	1,166850
22,900333	0,5	1,013100
22,908667	0,5	0,863400
22,917000	0,5	0,712150
22,925333	0,5	0,572350
22,933667	0,5	0,423600
22,942000	0,5	0,289500
22,950333	0,5	0,147200
22,958667	0,5	0,020500
22,967000	0,5	-0,106950
22,975333	0,5	-0,225050
22,983667	0,5	-0,345100
22,992000	0,5	-0,465200
23,000333	0,5	-0,586400
23,008667	0,5	-0,678400
23,017000	0,5	-0,796850
23,025333	0,5	-0,899900
23,033667	0,5	-1,029250
23,042000	0,5	-1,151400
23,050333	0,5	-1,242950
23,058667	0,5	-1,334000
23,067000	0,5	-1,404900
23,075333	0,5	-1,488450
23,083667	0,5	-1,557050
23,092000	0,5	-1,632500
23,100333	0,5	-1,681050
23,108667	0,5	-1,738500
23,117000	0,5	-1,780750
23,125333	0,5	-1,830450
23,133667	0,5	-1,871400
23,142000	0,5	-1,918750
23,150333	0,5	-1,956650
23,158667	0,5	-1,965400
23,167000	0,5	-2,008000
23,175333	0,5	-2,041800
23,183667	0,5	-2,111700
23,192000	0,5	-2,156650
23,200333	0,5	-2,178600
23,208667	0,5	-2,195100
23,217000	0,5	-2,210700
23,225333	0,5	-2,221700
23,233667	0,5	-2,231650
23,242000	0,5	-2,232400
23,250333	0,5	-2,233000
23,258667	0,5	-2,224100
23,267000	0,5	-2,220400
23,275333	0,5	-2,208950
23,283667	0,5	-2,207900
23,292000	0,5	-2,199650
23,300333	0,5	-2,184200
23,308667	0,5	-2,193300
23,317000	0,5	-2,163500
23,325333	0,5	-2,149800
23,333667	0,5	-2,179550
23,342000	0,5	-2,185500
23,350333	0,5	-2,178350
23,358667	0,5	-2,160950
23,367000	0,5	-2,145850
23,375333	0,5	-2,139250
23,383667	0,5	-2,122200
23,392000	0,5	-2,103350
23,400333	0,5	-2,075750
23,408667	0,5	-2,050850
23,417000	0,5	-2,022350
23,425333	0,5	-1,998550
23,433667	0,5	-1,966650
23,442000	0,5	-1,940150
23,450333	0,5	-1,917050
23,458667	0,5	-1,910300
23,467000	0,5	-1,880850
23,475333	0,5	-1,824350
23,483667	0,5	-1,825150
23,492000	0,5	-1,819500
23,500333	0,5	-1,796450
23,508667	0,5	-1,776250
23,517000	0,5	-1,758100
23,525333	0,5	-1,745100
23,533667	0,5	-1,720850
23,542000	0,5	-1,702100
23,550333	0,5	-1,676700
23,558667	0,5	-1,650950
23,567000	0,5	-1,622650
23,575333	0,5	-1,600200
23,583667	0,5	-1,575900
23,592000	0,5	-1,547100
23,600333	0,5	-1,606150
23,608667	0,5	-1,563100
23,617000	0,5	-1,504500
23,625333	0,5	-1,450450
23,633667	0,5	-1,431500
23,642000	0,5	-1,413300
23,650333	0,5	-1,395850
23,658667	0,5	-1,373550
23,667000	0,5	-1,357100
23,675333	0,5	-1,335150
23,683667	0,5	-1,315800
23,692000	0,5	-1,294000
23,700333	0,5	-1,270650
23,708667	0,5	-1,251200
23,717000	0,5	-1,231650
23,725333	0,5	-1,210300
23,733667	0,5	-1,195800
23,742000	0,5	-1,186850
23,750333	0,5	-1,288500
23,758667	0,5	-1,219700
23,767000	0,5	-1,181350
23,775333	0,5	-1,120300
23,783667	0,5	-1,104050
23,792000	0,5	-1,088250
23,800333	0,5	-1,073800
23,808667	0,5	-1,059150
23,817000	0,5	-1,039800
23,825333	0,5	-1,013050
23,833667	0,5	-0,991800
23,842000	0,5	-0,968300
23,850333	0,5	-0,949950
23,858667	0,5	-0,924950
23,867000	0,5	-0,903600
23,875333	0,5	-0,883950
23,883667	0,5	-0,866250
23,892000	0,5	-0,933650
23,900333	0,5	-0,951750
23,908667	0,5	-0,911550
23,917000	0,5	-0,849800
23,925333	0,5	-0,805850
23,933667	0,5	-0,792050
23,942000	0,5	-0,777750
23,950333	0,5	-0,771400
23,958667	0,5	-0,774550
23,967000	0,5	-0,748700
23,975333	0,5	-0,735750
23,983667	0,5	-0,712650
23,992000	0,5	-0,697600
24,000333	0,5	-0,673450
24,008667	0,5	-0,653550
24,017000	0,5	-0,632350
24,025333	0,5	-0,614700
24,033667	0,5	-0,601900
24,042000	0,5	-0,699050
24,050333	0,5	-0,671950
24,058667	0,5	-0,638150
24,067000	0,5	-0,573200
24,075333	0,5	-0,536550
24,083667	0,5	-0,519750
24,092000	0,5	-0,506050
24,100333	0,5	-0,502450
24,108667	0,5	-0,480700
24,117000	0,5	-0,471350
24,125333	0,5	-0,445250
24,133667	0,5	-0,435600
24,142000	0,5	-0,412000
24,150333	0,5	-0,398950
24,158667	0,5	-0,387450
24,167000	0,5	-0,377050
24,175333	0,5	-0,360050
24,183667	0,5	-0,372950
24,192000	0,5	-0,448100
24,200333	0,5	-0,421100
24,208667	0,5	-0,370850
24,217000	0,5	-0,329300
24,225333	0,5	-0,300000
24,233667	0,5	-0,288150
24,242000	0,5	-0,283350
24,250333	0,5	-0,271550
24,258667	0,5	-0,264400
24,267000	0,5	-0,238400
24,275333	0,5	-0,224500
24,283667	0,5	-0,211700
24,292000	0,5	-0,195900
24,300333	0,5	-0,177200
24,308667	0,5	-0,163100
24,317000	0,5	-0,148050
24,325333	0,5	-0,141350
24,333667	0,5	-0,203050
24,342000	0,5	-0,199450
24,350333	0,5	-0,182000
24,358667	0,5	-0,147750
24,367000	0,5	-0,116800
24,375333	0,5	-0,102200
24,383667	0,5	-0,095150
24,392000	0,5	-0,098950
24,400333	0,5	-0,089450
24,408667	0,5	-0,071400
24,417000	0,5	-0,062350
24,425333	0,5	-0,050500
24,433667	0,5	-0,039550
24,442000	0,5	-0,025150
24,450333	0,5	-0,017800
24,458667	0,5	-0,003650
24,467000	0,5	0,007050
24,475333	0,5	0,015450
24,483667	0,5	-0,054800
24,492000	0,5	-0,015750
24,500333	0,5	-0,005000
24,508667	0,5	0,033950
24,517000	0,5	0,048300
24,525333	0,5	0,060300
24,533667	0,5	0,060850
24,542000	0,5	0,057900
24,550333	0,5	0,065300
24,558667	0,5	0,073000
24,567000	0,5	0,078300
24,575333	0,5	0,088350
24,583667	0,5	0,094250
24,592000	0,5	0,099350
24,600333	0,5	0,108050
24,608667	0,5	0,113400
24,617000	0,5	0,123450
24,625333	0,5	0,109750
24,633667	0,5	0,079200
24,642000	0,5	0,100650
24,650333	0,5	0,114700
24,658667	0,5	0,139300
24,667000	0,5	0,150900
24,675333	0,5	0,157900
24,683667	0,5	0,161700
24,692000	0,5	0,153650
24,700333	0,5	0,166050
24,708667	0,5	0,171400
24,717000	0,5	0,184500
24,725333	0,5	0,185100
24,733667	0,5	0,194000
24,742000	0,5	0,202950
24,750333	0,5	0,203500
24,758667	0,5	0,211550
24,767000	0,5	0,209600
24,775333	0,5	0,187800
24,783667	0,5	0,182100
24,792000	0,5	0,197250
24,800333	0,5	0,211100
24,808667	0,5	0,225600
24,817000	0,5	0,225850
24,825333	0,5	0,233950
24,833667	0,5	0,228650
24,842000	0,5	0,224150
24,850333	0,5	0,225050
24,858667	0,5	0,240800
24,867000	0,5	0,241350
24,875333	0,5	0,250450
24,883667	0,5	0,251450
24,892000	0,5	0,261350
24,900333	0,5	0,264900
24,908667	0,5	0,269900
24,917000	0,5	0,272600
24,925333	0,5	0,249650
24,933667	0,5	0,258200
24,942000	0,5	0,262500
24,950333	0,5	0,271100
24,958667	0,5	0,279000
24,967000	0,5	0,279050
24,975333	0,5	0,280300
24,983667	0,5	0,277150
24,992000	0,5	0,273350
25,000333	0,5	0,278500
25,008667	0,5	0,277650
25,017000	0,5	0,283650
25,025333	0,5	0,284350
25,033667	0,5	0,287850
25,042000	0,5	0,293750
25,050333	0,5	0,298350
25,058667	0,5	0,297450
25,067000	0,5	0,300950
25,075333	0,5	0,291900
25,083667	0,5	0,296250
25,092000	0,5	0,302300
25,100333	0,5	0,311000
25,108667	0,5	0,316150
25,117000	0,5	0,315850
25,125333	0,5	0,315000
25,133667	0,5	0,311100
25,142000	0,5	0,309950
25,150333	0,5	0,311650
25,158667	0,5	0,314200
25,167000	0,5	0,314300
25,175333	0,5	0,313400
25,183667	0,5	0,312100
25,192000	0,5	0,315750
25,200333	0,5	0,315550
25,208667	0,5	0,315800
25,217000	0,5	0,311200
25,225333	0,5	0,313900
25,233667	0,5	0,314550
25,242000	0,5	0,319200
25,250333	0,5	0,322600
25,258667	0,5	0,325450
25,267000	0,5	0,325500
25,275333	0,5	0,320400
25,283667	0,5	0,320400
25,292000	0,5	0,320800
25,300333	0,5	0,321250
25,308667	0,5	0,322450
25,317000	0,5	0,322400
25,325333	0,5	0,325050
25,333667	0,5	0,319600
25,342000	0,5	0,321350
25,350333	0,5	0,322450
25,358667	0,5	0,320250
25,367000	0,5	0,317900
25,375333	0,5	0,318150
25,383667	0,5	0,319950
25,392000	0,5	0,316450
25,400333	0,5	0,321100
25,408667	0,5	0,318650
25,417000	0,5	0,319550
25,425333	0,5	0,315200
25,433667	0,5	0,316550
25,442000	0,5	0,317600
25,450333	0,5	0,316150
25,458667	0,5	0,318050
25,467000	0,5	0,318800
25,475333	0,5	0,318400
25,483667	0,5	0,321450
25,492000	0,5	0,319450
25,500333	0,5	0,316100
25,508667	0,5	0,319200
25,517000	0,5	0,318500
25,525333	0,5	0,317800
25,533667	0,5	0,317800
25,542000	0,5	0,313050
25,550333	0,5	0,309700
25,558667	0,5	0,310050
25,567000	0,5	0,307100
25,575333	0,5	0,308200
25,583667	0,5	0,309200
25,592000	0,5	0,308450
25,600333	0,5	0,309450
25,608667	0,5	0,306750
25,617000	0,5	0,305250
25,625333	0,5	0,306800
25,633667	0,5	0,306850
25,642000	0,5	0,305900
25,650333	0,5	0,304350
25,658667	0,5	0,308200
25,667000	0,5	0,307050
25,675333	0,5	0,309400
25,683667	0,5	0,304900
25,692000	0,5	0,302550
25,700333	0,5	0,301500
25,708667	0,5	0,299750
25,717000	0,5	0,298250
25,725333	0,5	0,303250
25,733667	0,5	0,300000
25,742000	0,5	0,296900
25,750333	0,5	0,297050
25,758667	0,5	0,294400
25,767000	0,5	0,291400
25,775333	0,5	0,291150
25,783667	0,5	0,292850
25,792000	0,5	0,291650
25,800333	0,5	0,289600
25,808667	0,5	0,294000
25,817000	0,5	0,296250
25,825333	0,5	0,296750
25,833667	0,5	0,290000
25,842000	0,5	0,287650
25,850333	0,5	0,287600
25,858667	0,5	0,285400
25,867000	0,5	0,287850
25,875333	0,5	0,288650
25,883667	0,5	0,290700
25,892000	0,5	0,282600
25,900333	0,5	0,286950
25,908667	0,5	0,281150
25,917000	0,5	0,280150
25,925333	0,5	0,278650
25,933667	0,5	0,278150
25,942000	0,5	0,275850
25,950333	0,5	0,276000
25,958667	0,5	0,278550
25,967000	0,5	0,280850
25,975333	0,5	0,282400
25,983667	0,5	0,275300
25,992000	0,5	0,274900
26,000333	0,5	0,273050
