File Path	chrom://chromeleon01/ikbm_chromeleon/2022/ICS-5000/ED1/Esteban/20220612_Cell_7_4_eg.seq/852.smp/ED_1.channel/ED_1.chm
Channel	ED_1

Injection Information:
Data Vault	ikbm_chromeleon
Injection	7_24h-EGI_2
Injection Number	57
Position	GA5
Comment	
Processing Method	Stop sequence after Cell Death
Instrument Method	ICS5000_PA200_FullNative_Ox_26min_ED1
Type	Unknown
Status	Finished
Injection Date	13.06.2022
Injection Time	18:42:37
Injection Volume (µl)	5,0
Dilution Factor	1,0000
Weight	1,0000

Chromatogram Data Information:
Time Min. (min)	0,000167
Time Max. (min)	26,000167
Data Points	3121
Detector	EDet1
Generating Data System	Chromeleon 7.2.9.11323
Exporting Data System	Chromeleon 7.2.9.0
Operator	Instrument Controller
Signal Quantity	
Signal Unit	nC
Signal Min.	-2,119600
Signal Max.	1 796,830427
Channel	ED_1
Driver Name	DC-5000
Channel Type	Evaluation
Min. Step (s)	0,5
Max. Step (s)	0,5
Average Step (s)	0,5

Signal Parameter Information:
Signal Info	

Chromatogram Data:
Time (min)	Step (s)	Value (nC)
0,000167	n.a.	-0,070150
0,008500	0,5	-0,064000
0,016833	0,5	-0,060950
0,025167	0,5	-0,034200
0,033500	0,5	-0,027200
0,041833	0,5	-0,011250
0,050167	0,5	-0,015850
0,058500	0,5	-0,013900
0,066833	0,5	-0,020300
0,075167	0,5	-0,016700
0,083500	0,5	-0,021500
0,091833	0,5	-0,026550
0,100167	0,5	-0,026200
0,108500	0,5	-0,028450
0,116833	0,5	-0,025950
0,125167	0,5	-0,027550
0,133500	0,5	-0,009050
0,141833	0,5	-0,030000
0,150167	0,5	-0,040000
0,158500	0,5	-0,037800
0,166833	0,5	-0,020350
0,175167	0,5	-0,005650
0,183500	0,5	-0,012800
0,191833	0,5	-0,022300
0,200167	0,5	-0,014450
0,208500	0,5	-0,022500
0,216833	0,5	-0,021350
0,225167	0,5	-0,026700
0,233500	0,5	-0,024450
0,241833	0,5	-0,022900
0,250167	0,5	-0,028050
0,258500	0,5	-0,025950
0,266833	0,5	-0,046750
0,275167	0,5	-0,037250
0,283500	0,5	-0,028950
0,291833	0,5	-0,028900
0,300167	0,5	0,003600
0,308500	0,5	0,002800
0,316833	0,5	-0,024000
0,325167	0,5	-0,035550
0,333500	0,5	-0,049800
0,341833	0,5	-0,044950
0,350167	0,5	-0,042700
0,358500	0,5	-0,032900
0,366833	0,5	-0,040700
0,375167	0,5	-0,034800
0,383500	0,5	-0,047950
0,391833	0,5	-0,046500
0,400167	0,5	-0,044100
0,408500	0,5	-0,053200
0,416833	0,5	-0,066000
0,425167	0,5	-0,041700
0,433500	0,5	-0,053650
0,441833	0,5	-0,061100
0,450167	0,5	-0,064800
0,458500	0,5	-0,056550
0,466833	0,5	-0,034050
0,475167	0,5	-0,033050
0,483500	0,5	-0,034250
0,491833	0,5	-0,041250
0,500167	0,5	-0,039850
0,508500	0,5	-0,048400
0,516833	0,5	-0,045000
0,525167	0,5	-0,046000
0,533500	0,5	-0,044100
0,541833	0,5	-0,049250
0,550167	0,5	-0,046100
0,558500	0,5	-0,050200
0,566833	0,5	-0,055800
0,575167	0,5	-0,049600
0,583500	0,5	-0,065200
0,591833	0,5	-0,067900
0,600167	0,5	-0,066000
0,608500	0,5	-0,054650
0,616833	0,5	-0,032500
0,625167	0,5	-0,021750
0,633500	0,5	-0,035700
0,641833	0,5	-0,034750
0,650167	0,5	-0,036750
0,658500	0,5	-0,037450
0,666833	0,5	-0,041950
0,675167	0,5	-0,039950
0,683500	0,5	-0,049250
0,691833	0,5	-0,045500
0,700167	0,5	-0,049500
0,708500	0,5	-0,047650
0,716833	0,5	-0,047150
0,725167	0,5	-0,032850
0,733500	0,5	-0,056850
0,741833	0,5	-0,056200
0,750167	0,5	-0,057950
0,758500	0,5	-0,035650
0,766833	0,5	-0,021950
0,775167	0,5	-0,019900
0,783500	0,5	-0,025000
0,791833	0,5	-0,022050
0,800167	0,5	-0,023650
0,808500	0,5	-0,026400
0,816833	0,5	-0,025450
0,825167	0,5	-0,033300
0,833500	0,5	-0,028600
0,841833	0,5	-0,032450
0,850167	0,5	-0,033350
0,858500	0,5	-0,039400
0,866833	0,5	-0,025750
0,875167	0,5	-0,035050
0,883500	0,5	-0,042850
0,891833	0,5	-0,042800
0,900167	0,5	-0,034850
0,908500	0,5	-0,015500
0,916833	0,5	-0,001850
0,925167	0,5	-0,005850
0,933500	0,5	-0,007100
0,941833	0,5	-0,011650
0,950167	0,5	-0,008850
0,958500	0,5	-0,011900
0,966833	0,5	-0,011000
0,975167	0,5	-0,013800
0,983500	0,5	-0,014200
0,991833	0,5	-0,010200
1,000167	0,5	-0,028900
1,008500	0,5	-0,024350
1,016833	0,5	0,001400
1,025167	0,5	-0,022100
1,033500	0,5	-0,030150
1,041833	0,5	-0,021600
1,050167	0,5	-0,018450
1,058500	0,5	0,009750
1,066833	0,5	0,000350
1,075167	0,5	0,007750
1,083500	0,5	0,004000
1,091833	0,5	0,012450
1,100167	0,5	0,005100
1,108500	0,5	0,010350
1,116833	0,5	0,002400
1,125167	0,5	0,003200
1,133500	0,5	0,003150
1,141833	0,5	0,001950
1,150167	0,5	-0,006650
1,158500	0,5	-0,003850
1,166833	0,5	0,010400
1,175167	0,5	-0,005900
1,183500	0,5	-0,011200
1,191833	0,5	-0,004700
1,200167	0,5	0,015150
1,208500	0,5	0,028050
1,216833	0,5	0,023050
1,225167	0,5	0,014550
1,233500	0,5	0,021650
1,241833	0,5	0,014150
1,250167	0,5	0,018650
1,258500	0,5	0,015600
1,266833	0,5	0,016600
1,275167	0,5	0,012000
1,283500	0,5	0,019100
1,291833	0,5	0,022750
1,300167	0,5	0,015400
1,308500	0,5	0,018600
1,316833	0,5	0,020450
1,325167	0,5	0,005300
1,333500	0,5	0,004550
1,341833	0,5	0,008100
1,350167	0,5	0,018850
1,358500	0,5	0,030350
1,366833	0,5	0,018350
1,375167	0,5	0,025150
1,383500	0,5	0,019700
1,391833	0,5	0,032050
1,400167	0,5	0,023700
1,408500	0,5	0,024000
1,416833	0,5	0,009350
1,425167	0,5	0,014150
1,433500	0,5	0,005650
1,441833	0,5	0,008000
1,450167	0,5	-0,007500
1,458500	0,5	0,008700
1,466833	0,5	-0,005350
1,475167	0,5	-0,013500
1,483500	0,5	-0,018200
1,491833	0,5	-0,006100
1,500167	0,5	0,004200
1,508500	0,5	0,004550
1,516833	0,5	-0,003700
1,525167	0,5	-0,009150
1,533500	0,5	-0,010400
1,541833	0,5	-0,014950
1,550167	0,5	-0,010700
1,558500	0,5	0,013050
1,566833	0,5	0,099050
1,575167	0,5	0,286050
1,583500	0,5	1,355150
1,591833	0,5	7,986300
1,600167	0,5	36,507151
1,608500	0,5	134,603502
1,616833	0,5	402,439356
1,625167	0,5	885,710463
1,633500	0,5	1 391,729271
1,641833	0,5	1 633,337724
1,650167	0,5	1 553,686073
1,658500	0,5	1 240,848168
1,666833	0,5	868,123513
1,675167	0,5	585,676509
1,683500	0,5	406,436756
1,691833	0,5	298,062304
1,700167	0,5	231,345453
1,708500	0,5	194,061403
1,716833	0,5	170,031403
1,725167	0,5	147,758802
1,733500	0,5	124,709602
1,741833	0,5	104,061602
1,750167	0,5	88,702201
1,758500	0,5	79,710501
1,766833	0,5	76,612901
1,775167	0,5	77,686501
1,783500	0,5	80,589851
1,791833	0,5	83,628901
1,800167	0,5	85,148451
1,808500	0,5	83,675001
1,816833	0,5	79,166801
1,825167	0,5	73,238401
1,833500	0,5	67,321251
1,841833	0,5	62,101601
1,850167	0,5	57,822201
1,858500	0,5	54,663301
1,866833	0,5	52,866951
1,875167	0,5	52,904051
1,883500	0,5	54,951951
1,891833	0,5	57,230401
1,900167	0,5	57,140601
1,908500	0,5	55,400401
1,916833	0,5	57,116251
1,925167	0,5	69,638401
1,933500	0,5	106,601852
1,941833	0,5	198,880153
1,950167	0,5	374,299156
1,958500	0,5	568,934108
1,966833	0,5	640,521910
1,975167	0,5	553,473258
1,983500	0,5	401,684206
1,991833	0,5	272,538854
2,000167	0,5	188,025553
2,008500	0,5	138,096952
2,016833	0,5	111,826602
2,025167	0,5	103,551702
2,033500	0,5	106,006752
2,041833	0,5	106,399952
2,050167	0,5	97,588551
2,058500	0,5	83,420701
2,066833	0,5	70,213051
2,075167	0,5	60,135851
2,083500	0,5	52,935101
2,091833	0,5	48,219251
2,100167	0,5	45,292851
2,108500	0,5	43,534701
2,116833	0,5	42,352101
2,125167	0,5	40,974351
2,133500	0,5	39,059151
2,141833	0,5	37,177351
2,150167	0,5	35,576501
2,158500	0,5	33,983901
2,166833	0,5	32,299450
2,175167	0,5	30,814350
2,183500	0,5	29,671100
2,191833	0,5	28,843300
2,200167	0,5	28,241350
2,208500	0,5	27,839900
2,216833	0,5	27,610050
2,225167	0,5	27,364050
2,233500	0,5	27,019300
2,241833	0,5	26,704150
2,250167	0,5	26,518500
2,258500	0,5	26,442500
2,266833	0,5	26,614550
2,275167	0,5	28,065250
2,283500	0,5	32,748150
2,291833	0,5	36,189051
2,300167	0,5	34,477101
2,308500	0,5	31,412500
2,316833	0,5	29,552450
2,325167	0,5	28,626350
2,333500	0,5	28,211450
2,341833	0,5	28,202400
2,350167	0,5	28,642950
2,358500	0,5	29,663400
2,366833	0,5	31,525150
2,375167	0,5	34,259801
2,383500	0,5	37,567851
2,391833	0,5	40,822901
2,400167	0,5	43,606301
2,408500	0,5	46,035951
2,416833	0,5	48,300451
2,425167	0,5	50,132001
2,433500	0,5	51,024651
2,441833	0,5	51,560801
2,450167	0,5	54,753251
2,458500	0,5	65,532051
2,466833	0,5	86,865401
2,475167	0,5	119,601852
2,483500	0,5	170,783903
2,491833	0,5	282,542404
2,500167	0,5	593,012809
2,508500	0,5	1 145,912367
2,516833	0,5	1 550,468323
2,525167	0,5	1 796,830427
2,533500	0,5	1 769,413276
2,541833	0,5	1 604,810274
2,550167	0,5	1 370,915470
2,558500	0,5	1 129,421417
2,566833	0,5	916,423114
2,575167	0,5	737,239611
2,583500	0,5	593,802909
2,591833	0,5	479,537257
2,600167	0,5	389,729956
2,608500	0,5	318,616055
2,616833	0,5	269,098704
2,625167	0,5	239,466704
2,633500	0,5	224,993303
2,641833	0,5	216,919153
2,650167	0,5	206,016803
2,658500	0,5	187,788253
2,666833	0,5	163,676452
2,675167	0,5	138,189152
2,683500	0,5	115,335502
2,691833	0,5	96,947551
2,700167	0,5	83,117801
2,708500	0,5	72,996301
2,716833	0,5	65,599101
2,725167	0,5	60,008901
2,733500	0,5	55,617651
2,741833	0,5	51,981551
2,750167	0,5	48,878751
2,758500	0,5	46,235901
2,766833	0,5	44,037601
2,775167	0,5	42,291851
2,783500	0,5	40,893601
2,791833	0,5	39,608751
2,800167	0,5	38,185501
2,808500	0,5	36,503701
2,816833	0,5	34,587751
2,825167	0,5	32,619350
2,833500	0,5	30,747800
2,841833	0,5	29,104850
2,850167	0,5	27,694500
2,858500	0,5	26,552950
2,866833	0,5	25,641400
2,875167	0,5	25,034250
2,883500	0,5	24,854500
2,891833	0,5	25,378500
2,900167	0,5	26,851850
2,908500	0,5	29,219900
2,916833	0,5	31,753000
2,925167	0,5	33,301000
2,933500	0,5	33,138300
2,941833	0,5	31,257650
2,950167	0,5	28,323450
2,958500	0,5	25,175050
2,966833	0,5	22,425850
2,975167	0,5	20,355250
2,983500	0,5	18,900850
2,991833	0,5	17,879100
3,000167	0,5	17,156300
3,008500	0,5	16,585150
3,016833	0,5	16,119100
3,025167	0,5	15,700600
3,033500	0,5	15,331950
3,041833	0,5	14,987000
3,050167	0,5	14,685000
3,058500	0,5	14,416900
3,066833	0,5	14,146450
3,075167	0,5	13,855250
3,083500	0,5	13,565100
3,091833	0,5	13,215350
3,100167	0,5	12,878750
3,108500	0,5	12,564900
3,116833	0,5	12,286150
3,125167	0,5	12,044500
3,133500	0,5	11,796700
3,141833	0,5	11,580950
3,150167	0,5	11,380700
3,158500	0,5	11,225300
3,166833	0,5	11,115750
3,175167	0,5	11,085450
3,183500	0,5	11,116650
3,191833	0,5	11,199650
3,200167	0,5	11,272100
3,208500	0,5	11,300750
3,216833	0,5	11,220300
3,225167	0,5	11,067550
3,233500	0,5	10,826850
3,241833	0,5	10,518350
3,250167	0,5	10,215150
3,258500	0,5	9,941150
3,266833	0,5	9,707300
3,275167	0,5	9,523750
3,283500	0,5	9,360550
3,291833	0,5	9,240000
3,300167	0,5	9,159700
3,308500	0,5	9,117000
3,316833	0,5	9,114750
3,325167	0,5	9,159550
3,333500	0,5	9,245600
3,341833	0,5	9,367350
3,350167	0,5	9,516150
3,358500	0,5	9,657650
3,366833	0,5	9,760150
3,375167	0,5	9,819300
3,383500	0,5	9,836900
3,391833	0,5	9,813850
3,400167	0,5	9,793250
3,408500	0,5	9,758550
3,416833	0,5	9,731500
3,425167	0,5	9,681700
3,433500	0,5	9,591250
3,441833	0,5	9,480000
3,450167	0,5	9,347600
3,458500	0,5	9,199500
3,466833	0,5	9,036550
3,475167	0,5	8,867050
3,483500	0,5	8,687850
3,491833	0,5	8,515250
3,500167	0,5	8,341800
3,508500	0,5	8,178600
3,516833	0,5	8,012650
3,525167	0,5	7,872800
3,533500	0,5	7,709650
3,541833	0,5	7,565400
3,550167	0,5	7,430350
3,558500	0,5	7,322100
3,566833	0,5	7,228100
3,575167	0,5	7,150600
3,583500	0,5	7,076550
3,591833	0,5	7,042450
3,600167	0,5	7,037600
3,608500	0,5	7,072500
3,616833	0,5	7,143950
3,625167	0,5	7,247100
3,633500	0,5	7,366150
3,641833	0,5	7,496000
3,650167	0,5	7,623000
3,658500	0,5	7,734650
3,666833	0,5	7,846450
3,675167	0,5	7,962950
3,683500	0,5	8,072050
3,691833	0,5	8,222950
3,700167	0,5	8,430000
3,708500	0,5	8,716200
3,716833	0,5	9,107850
3,725167	0,5	9,568900
3,733500	0,5	10,138200
3,741833	0,5	10,800200
3,750167	0,5	11,602900
3,758500	0,5	12,598950
3,766833	0,5	13,959600
3,775167	0,5	15,884500
3,783500	0,5	18,634000
3,791833	0,5	22,338750
3,800167	0,5	26,897600
3,808500	0,5	31,888400
3,816833	0,5	36,628751
3,825167	0,5	40,244501
3,833500	0,5	42,064751
3,841833	0,5	41,818801
3,850167	0,5	39,604201
3,858500	0,5	35,912851
3,866833	0,5	31,351100
3,875167	0,5	26,578950
3,883500	0,5	22,085650
3,891833	0,5	18,226700
3,900167	0,5	15,122150
3,908500	0,5	12,799350
3,916833	0,5	11,148750
3,925167	0,5	10,058050
3,933500	0,5	9,360850
3,941833	0,5	8,930700
3,950167	0,5	8,629100
3,958500	0,5	8,380050
3,966833	0,5	8,134650
3,975167	0,5	7,844700
3,983500	0,5	7,528300
3,991833	0,5	7,222200
4,000167	0,5	6,935850
4,008500	0,5	6,709700
4,016833	0,5	6,517400
4,025167	0,5	6,370200
4,033500	0,5	6,268650
4,041833	0,5	6,188150
4,050167	0,5	6,113450
4,058500	0,5	6,025150
4,066833	0,5	5,924700
4,075167	0,5	5,802800
4,083500	0,5	5,678400
4,091833	0,5	5,553100
4,100167	0,5	5,438450
4,108500	0,5	5,349100
4,116833	0,5	5,309550
4,125167	0,5	5,267950
4,133500	0,5	5,268850
4,141833	0,5	5,289400
4,150167	0,5	5,321050
4,158500	0,5	5,350300
4,166833	0,5	5,339750
4,175167	0,5	5,307500
4,183500	0,5	5,251500
4,191833	0,5	5,177350
4,200167	0,5	5,084600
4,208500	0,5	4,992000
4,216833	0,5	4,888100
4,225167	0,5	4,800250
4,233500	0,5	4,714100
4,241833	0,5	4,642450
4,250167	0,5	4,568350
4,258500	0,5	4,512500
4,266833	0,5	4,469150
4,275167	0,5	4,424100
4,283500	0,5	4,387850
4,291833	0,5	4,371200
4,300167	0,5	4,361600
4,308500	0,5	4,371400
4,316833	0,5	4,360300
4,325167	0,5	4,362550
4,333500	0,5	4,357200
4,341833	0,5	4,361100
4,350167	0,5	4,354950
4,358500	0,5	4,345950
4,366833	0,5	4,333750
4,375167	0,5	4,311100
4,383500	0,5	4,296000
4,391833	0,5	4,269450
4,400167	0,5	4,240950
4,408500	0,5	4,225250
4,416833	0,5	4,204050
4,425167	0,5	4,180600
4,433500	0,5	4,171200
4,441833	0,5	4,166650
4,450167	0,5	4,179100
4,458500	0,5	4,189150
4,466833	0,5	4,198200
4,475167	0,5	4,205950
4,483500	0,5	4,222050
4,491833	0,5	4,236450
4,500167	0,5	4,257850
4,508500	0,5	4,276900
4,516833	0,5	4,299100
4,525167	0,5	4,325000
4,533500	0,5	4,362550
4,541833	0,5	4,409300
4,550167	0,5	4,462850
4,558500	0,5	4,534250
4,566833	0,5	4,598950
4,575167	0,5	4,676950
4,583500	0,5	4,764400
4,591833	0,5	4,858700
4,600167	0,5	4,951150
4,608500	0,5	5,028250
4,616833	0,5	5,075450
4,625167	0,5	5,112400
4,633500	0,5	5,112250
4,641833	0,5	5,130350
4,650167	0,5	5,116950
4,658500	0,5	5,106050
4,666833	0,5	5,093900
4,675167	0,5	5,098400
4,683500	0,5	5,110450
4,691833	0,5	5,138400
4,700167	0,5	5,188500
4,708500	0,5	5,255950
4,716833	0,5	5,308450
4,725167	0,5	5,362850
4,733500	0,5	5,394550
4,741833	0,5	5,391250
4,750167	0,5	5,344900
4,758500	0,5	5,233900
4,766833	0,5	5,089050
4,775167	0,5	4,914700
4,783500	0,5	4,741250
4,791833	0,5	4,570650
4,800167	0,5	4,425950
4,808500	0,5	4,291500
4,816833	0,5	4,183000
4,825167	0,5	4,083750
4,833500	0,5	3,992050
4,841833	0,5	3,905950
4,850167	0,5	3,849400
4,858500	0,5	3,784750
4,866833	0,5	3,724950
4,875167	0,5	3,671700
4,883500	0,5	3,632150
4,891833	0,5	3,605550
4,900167	0,5	3,577200
4,908500	0,5	3,548900
4,916833	0,5	3,524150
4,925167	0,5	3,507500
4,933500	0,5	3,496250
4,941833	0,5	3,490300
4,950167	0,5	3,482600
4,958500	0,5	3,487850
4,966833	0,5	3,495650
4,975167	0,5	3,510450
4,983500	0,5	3,522800
4,991833	0,5	3,539550
5,000167	0,5	3,572750
5,008500	0,5	3,584900
5,016833	0,5	3,595950
5,025167	0,5	3,609800
5,033500	0,5	3,613650
5,041833	0,5	3,621150
5,050167	0,5	3,602700
5,058500	0,5	3,568900
5,066833	0,5	3,523100
5,075167	0,5	3,481200
5,083500	0,5	3,434700
5,091833	0,5	3,391950
5,100167	0,5	3,355500
5,108500	0,5	3,318100
5,116833	0,5	3,295200
5,125167	0,5	3,272250
5,133500	0,5	3,256700
5,141833	0,5	3,239300
5,150167	0,5	3,240400
5,158500	0,5	3,226650
5,166833	0,5	3,222350
5,175167	0,5	3,225950
5,183500	0,5	3,236200
5,191833	0,5	3,255500
5,200167	0,5	3,265250
5,208500	0,5	3,279500
5,216833	0,5	3,314950
5,225167	0,5	3,359500
5,233500	0,5	3,421800
5,241833	0,5	3,495000
5,250167	0,5	3,573950
5,258500	0,5	3,651250
5,266833	0,5	3,720950
5,275167	0,5	3,776850
5,283500	0,5	3,799450
5,291833	0,5	3,818450
5,300167	0,5	3,834300
5,308500	0,5	3,828800
5,316833	0,5	3,846200
5,325167	0,5	3,892100
5,333500	0,5	3,971350
5,341833	0,5	4,092900
5,350167	0,5	4,222050
5,358500	0,5	4,389100
5,366833	0,5	4,566200
5,375167	0,5	4,752400
5,383500	0,5	4,917000
5,391833	0,5	5,058900
5,400167	0,5	5,145650
5,408500	0,5	5,172300
5,416833	0,5	5,125400
5,425167	0,5	4,998650
5,433500	0,5	4,801150
5,441833	0,5	4,566550
5,450167	0,5	4,301800
5,458500	0,5	4,031150
5,466833	0,5	3,788950
5,475167	0,5	3,586950
5,483500	0,5	3,432350
5,491833	0,5	3,319250
5,500167	0,5	3,232850
5,508500	0,5	3,174300
5,516833	0,5	3,150900
5,525167	0,5	3,148400
5,533500	0,5	3,168350
5,541833	0,5	3,207350
5,550167	0,5	3,274950
5,558500	0,5	3,363400
5,566833	0,5	3,468350
5,575167	0,5	3,583600
5,583500	0,5	3,704750
5,591833	0,5	3,817750
5,600167	0,5	3,901300
5,608500	0,5	3,942150
5,616833	0,5	3,958550
5,625167	0,5	3,945750
5,633500	0,5	3,915800
5,641833	0,5	3,865950
5,650167	0,5	3,803300
5,658500	0,5	3,744450
5,666833	0,5	3,690200
5,675167	0,5	3,645050
5,683500	0,5	3,601400
5,691833	0,5	3,555500
5,700167	0,5	3,514100
5,708500	0,5	3,476000
5,716833	0,5	3,430400
5,725167	0,5	3,387250
5,733500	0,5	3,344750
5,741833	0,5	3,312150
5,750167	0,5	3,264650
5,758500	0,5	3,231800
5,766833	0,5	3,207300
5,775167	0,5	3,203550
5,783500	0,5	3,209100
5,791833	0,5	3,220700
5,800167	0,5	3,241500
5,808500	0,5	3,273900
5,816833	0,5	3,315950
5,825167	0,5	3,363100
5,833500	0,5	3,408450
5,841833	0,5	3,438950
5,850167	0,5	3,454150
5,858500	0,5	3,446700
5,866833	0,5	3,419400
5,875167	0,5	3,364650
5,883500	0,5	3,322550
5,891833	0,5	3,267150
5,900167	0,5	3,218500
5,908500	0,5	3,181750
5,916833	0,5	3,170250
5,925167	0,5	3,184450
5,933500	0,5	3,211750
5,941833	0,5	3,252300
5,950167	0,5	3,300100
5,958500	0,5	3,346000
5,966833	0,5	3,387700
5,975167	0,5	3,409400
5,983500	0,5	3,410800
5,991833	0,5	3,389600
6,000167	0,5	3,350700
6,008500	0,5	3,304250
6,016833	0,5	3,245450
6,025167	0,5	3,177900
6,033500	0,5	3,129150
6,041833	0,5	3,056650
6,050167	0,5	2,991450
6,058500	0,5	2,934500
6,066833	0,5	2,882750
6,075167	0,5	2,856300
6,083500	0,5	2,827650
6,091833	0,5	2,810750
6,100167	0,5	2,795600
6,108500	0,5	2,791700
6,116833	0,5	2,795450
6,125167	0,5	2,808300
6,133500	0,5	2,824450
6,141833	0,5	2,846750
6,150167	0,5	2,870700
6,158500	0,5	2,894850
6,166833	0,5	2,920650
6,175167	0,5	2,931750
6,183500	0,5	2,954700
6,191833	0,5	2,950950
6,200167	0,5	2,955250
6,208500	0,5	2,970000
6,216833	0,5	3,004000
6,225167	0,5	3,047900
6,233500	0,5	3,089450
6,241833	0,5	3,122800
6,250167	0,5	3,147050
6,258500	0,5	3,143400
6,266833	0,5	3,118750
6,275167	0,5	3,065550
6,283500	0,5	3,004900
6,291833	0,5	2,930100
6,300167	0,5	2,856800
6,308500	0,5	2,798300
6,316833	0,5	2,738450
6,325167	0,5	2,699750
6,333500	0,5	2,668150
6,341833	0,5	2,636600
6,350167	0,5	2,611300
6,358500	0,5	2,599000
6,366833	0,5	2,588100
6,375167	0,5	2,585800
6,383500	0,5	2,575850
6,391833	0,5	2,568050
6,400167	0,5	2,560250
6,408500	0,5	2,558750
6,416833	0,5	2,557300
6,425167	0,5	2,565350
6,433500	0,5	2,569500
6,441833	0,5	2,584200
6,450167	0,5	2,607250
6,458500	0,5	2,639800
6,466833	0,5	2,670850
6,475167	0,5	2,724750
6,483500	0,5	2,784550
6,491833	0,5	2,845650
6,500167	0,5	2,924400
6,508500	0,5	2,997450
6,516833	0,5	3,064500
6,525167	0,5	3,108500
6,533500	0,5	3,120750
6,541833	0,5	3,099400
6,550167	0,5	3,054300
6,558500	0,5	2,990950
6,566833	0,5	2,929950
6,575167	0,5	2,872900
6,583500	0,5	2,839500
6,591833	0,5	2,823600
6,600167	0,5	2,838000
6,608500	0,5	2,877600
6,616833	0,5	2,948700
6,625167	0,5	3,045500
6,633500	0,5	3,159400
6,641833	0,5	3,296400
6,650167	0,5	3,463500
6,658500	0,5	3,677000
6,666833	0,5	3,946350
6,675167	0,5	4,281450
6,683500	0,5	4,686400
6,691833	0,5	5,162500
6,700167	0,5	5,692500
6,708500	0,5	6,230600
6,716833	0,5	6,704350
6,725167	0,5	7,053950
6,733500	0,5	7,215250
6,741833	0,5	7,165150
6,750167	0,5	6,908400
6,758500	0,5	6,493450
6,766833	0,5	5,995900
6,775167	0,5	5,497950
6,783500	0,5	5,043200
6,791833	0,5	4,695150
6,800167	0,5	4,459050
6,808500	0,5	4,336900
6,816833	0,5	4,296100
6,825167	0,5	4,304450
6,833500	0,5	4,339850
6,841833	0,5	4,394700
6,850167	0,5	4,453350
6,858500	0,5	4,536600
6,866833	0,5	4,665800
6,875167	0,5	4,872300
6,883500	0,5	5,214100
6,891833	0,5	5,711800
6,900167	0,5	6,386250
6,908500	0,5	7,189850
6,916833	0,5	8,060300
6,925167	0,5	8,848750
6,933500	0,5	9,428850
6,941833	0,5	9,686750
6,950167	0,5	9,581700
6,958500	0,5	9,123950
6,966833	0,5	8,386550
6,975167	0,5	7,484650
6,983500	0,5	6,555250
6,991833	0,5	5,686300
7,000167	0,5	4,951750
7,008500	0,5	4,371900
7,016833	0,5	3,950800
7,025167	0,5	3,662050
7,033500	0,5	3,481650
7,041833	0,5	3,376050
7,050167	0,5	3,316700
7,058500	0,5	3,279000
7,066833	0,5	3,247300
7,075167	0,5	3,179100
7,083500	0,5	3,093550
7,091833	0,5	2,994800
7,100167	0,5	2,886850
7,108500	0,5	2,801300
7,116833	0,5	2,719950
7,125167	0,5	2,663700
7,133500	0,5	2,623000
7,141833	0,5	2,603850
7,150167	0,5	2,585550
7,158500	0,5	2,574050
7,166833	0,5	2,556150
7,175167	0,5	2,541650
7,183500	0,5	2,535900
7,191833	0,5	2,527100
7,200167	0,5	2,511650
7,208500	0,5	2,507500
7,216833	0,5	2,494400
7,225167	0,5	2,470050
7,233500	0,5	2,440450
7,241833	0,5	2,410600
7,250167	0,5	2,381950
7,258500	0,5	2,363850
7,266833	0,5	2,341000
7,275167	0,5	2,323500
7,283500	0,5	2,315350
7,291833	0,5	2,311750
7,300167	0,5	2,319750
7,308500	0,5	2,328050
7,316833	0,5	2,340000
7,325167	0,5	2,346450
7,333500	0,5	2,353800
7,341833	0,5	2,350700
7,350167	0,5	2,339150
7,358500	0,5	2,319050
7,366833	0,5	2,305500
7,375167	0,5	2,285300
7,383500	0,5	2,278100
7,391833	0,5	2,286650
7,400167	0,5	2,314750
7,408500	0,5	2,365450
7,416833	0,5	2,426700
7,425167	0,5	2,510450
7,433500	0,5	2,604250
7,441833	0,5	2,701650
7,450167	0,5	2,773700
7,458500	0,5	2,809750
7,466833	0,5	2,801150
7,475167	0,5	2,749950
7,483500	0,5	2,668850
7,491833	0,5	2,593400
7,500167	0,5	2,528550
7,508500	0,5	2,496800
7,516833	0,5	2,483000
7,525167	0,5	2,490100
7,533500	0,5	2,507700
7,541833	0,5	2,520050
7,550167	0,5	2,520300
7,558500	0,5	2,502050
7,566833	0,5	2,458150
7,575167	0,5	2,402700
7,583500	0,5	2,337500
7,591833	0,5	2,279100
7,600167	0,5	2,230650
7,608500	0,5	2,190600
7,616833	0,5	2,164550
7,625167	0,5	2,146750
7,633500	0,5	2,141400
7,641833	0,5	2,132900
7,650167	0,5	2,132150
7,658500	0,5	2,140650
7,666833	0,5	2,148950
7,675167	0,5	2,156400
7,683500	0,5	2,170450
7,691833	0,5	2,180550
7,700167	0,5	2,200050
7,708500	0,5	2,209250
7,716833	0,5	2,218600
7,725167	0,5	2,229900
7,733500	0,5	2,247650
7,741833	0,5	2,271300
7,750167	0,5	2,319050
7,758500	0,5	2,380650
7,766833	0,5	2,449100
7,775167	0,5	2,516650
7,783500	0,5	2,559800
7,791833	0,5	2,559750
7,800167	0,5	2,528750
7,808500	0,5	2,476550
7,816833	0,5	2,412500
7,825167	0,5	2,359950
7,833500	0,5	2,327900
7,841833	0,5	2,332750
7,850167	0,5	2,366100
7,858500	0,5	2,439350
7,866833	0,5	2,574000
7,875167	0,5	2,770800
7,883500	0,5	3,032150
7,891833	0,5	3,315150
7,900167	0,5	3,572750
7,908500	0,5	3,733750
7,916833	0,5	3,761650
7,925167	0,5	3,657350
7,933500	0,5	3,460850
7,941833	0,5	3,231850
7,950167	0,5	3,027900
7,958500	0,5	2,872050
7,966833	0,5	2,770000
7,975167	0,5	2,719800
7,983500	0,5	2,693400
7,991833	0,5	2,681500
8,000167	0,5	2,668900
8,008500	0,5	2,646300
8,016833	0,5	2,621350
8,025167	0,5	2,594750
8,033500	0,5	2,562700
8,041833	0,5	2,531050
8,050167	0,5	2,501250
8,058500	0,5	2,490500
8,066833	0,5	2,507550
8,075167	0,5	2,543750
8,083500	0,5	2,578150
8,091833	0,5	2,591000
8,100167	0,5	2,578750
8,108500	0,5	2,537450
8,116833	0,5	2,482800
8,125167	0,5	2,432450
8,133500	0,5	2,408850
8,141833	0,5	2,419950
8,150167	0,5	2,458000
8,158500	0,5	2,525850
8,166833	0,5	2,619750
8,175167	0,5	2,734400
8,183500	0,5	2,870700
8,191833	0,5	3,018650
8,200167	0,5	3,172150
8,208500	0,5	3,338250
8,216833	0,5	3,508350
8,225167	0,5	3,690650
8,233500	0,5	3,875400
8,241833	0,5	4,076050
8,250167	0,5	4,286200
8,258500	0,5	4,492300
8,266833	0,5	4,681200
8,275167	0,5	4,843750
8,283500	0,5	4,969400
8,291833	0,5	5,048800
8,300167	0,5	5,071250
8,308500	0,5	5,034850
8,316833	0,5	4,942150
8,325167	0,5	4,790550
8,333500	0,5	4,597050
8,341833	0,5	4,365450
8,350167	0,5	4,116150
8,358500	0,5	3,876200
8,366833	0,5	3,653700
8,375167	0,5	3,471300
8,383500	0,5	3,345650
8,391833	0,5	3,288200
8,400167	0,5	3,304750
8,408500	0,5	3,387950
8,416833	0,5	3,540900
8,425167	0,5	3,738700
8,433500	0,5	3,961400
8,441833	0,5	4,184400
8,450167	0,5	4,382350
8,458500	0,5	4,571650
8,466833	0,5	4,794950
8,475167	0,5	5,160700
8,483500	0,5	5,803950
8,491833	0,5	6,878800
8,500167	0,5	8,468200
8,508500	0,5	10,492700
8,516833	0,5	12,668300
8,525167	0,5	14,557450
8,533500	0,5	15,717400
8,541833	0,5	15,874350
8,550167	0,5	15,008200
8,558500	0,5	13,354900
8,566833	0,5	11,305300
8,575167	0,5	9,237800
8,583500	0,5	7,413750
8,591833	0,5	5,960550
8,600167	0,5	4,893650
8,608500	0,5	4,161350
8,616833	0,5	3,687950
8,625167	0,5	3,397300
8,633500	0,5	3,225850
8,641833	0,5	3,132100
8,650167	0,5	3,071050
8,658500	0,5	3,015750
8,666833	0,5	2,949400
8,675167	0,5	2,861800
8,683500	0,5	2,764250
8,691833	0,5	2,661750
8,700167	0,5	2,570650
8,708500	0,5	2,491350
8,716833	0,5	2,426550
8,725167	0,5	2,380950
8,733500	0,5	2,352650
8,741833	0,5	2,337750
8,750167	0,5	2,332550
8,758500	0,5	2,352600
8,766833	0,5	2,398250
8,775167	0,5	2,483400
8,783500	0,5	2,606650
8,791833	0,5	2,740600
8,800167	0,5	2,860050
8,808500	0,5	2,931650
8,816833	0,5	2,931050
8,825167	0,5	2,861700
8,833500	0,5	2,751600
8,841833	0,5	2,634650
8,850167	0,5	2,537050
8,858500	0,5	2,465700
8,866833	0,5	2,430650
8,875167	0,5	2,420400
8,883500	0,5	2,437500
8,891833	0,5	2,473600
8,900167	0,5	2,536900
8,908500	0,5	2,628950
8,916833	0,5	2,749050
8,925167	0,5	2,901250
8,933500	0,5	3,087950
8,941833	0,5	3,286350
8,950167	0,5	3,483700
8,958500	0,5	3,646450
8,966833	0,5	3,733450
8,975167	0,5	3,726700
8,983500	0,5	3,624900
8,991833	0,5	3,447200
9,000167	0,5	3,223300
9,008500	0,5	2,992250
9,016833	0,5	2,774450
9,025167	0,5	2,600050
9,033500	0,5	2,457750
9,041833	0,5	2,354650
9,050167	0,5	2,283900
9,058500	0,5	2,243250
9,066833	0,5	2,226150
9,075167	0,5	2,228900
9,083500	0,5	2,247700
9,091833	0,5	2,271350
9,100167	0,5	2,289100
9,108500	0,5	2,305150
9,116833	0,5	2,310350
9,125167	0,5	2,299550
9,133500	0,5	2,280250
9,141833	0,5	2,259050
9,150167	0,5	2,225500
9,158500	0,5	2,190950
9,166833	0,5	2,163000
9,175167	0,5	2,144050
9,183500	0,5	2,131800
9,191833	0,5	2,116900
9,200167	0,5	2,107150
9,208500	0,5	2,102900
9,216833	0,5	2,103150
9,225167	0,5	2,100550
9,233500	0,5	2,107400
9,241833	0,5	2,116350
9,250167	0,5	2,123850
9,258500	0,5	2,131750
9,266833	0,5	2,141850
9,275167	0,5	2,161400
9,283500	0,5	2,194650
9,291833	0,5	2,223000
9,300167	0,5	2,252100
9,308500	0,5	2,267500
9,316833	0,5	2,267200
9,325167	0,5	2,259300
9,333500	0,5	2,247600
9,341833	0,5	2,230800
9,350167	0,5	2,207000
9,358500	0,5	2,181200
9,366833	0,5	2,153550
9,375167	0,5	2,123000
9,383500	0,5	2,100000
9,391833	0,5	2,081800
9,400167	0,5	2,074500
9,408500	0,5	2,069050
9,416833	0,5	2,066350
9,425167	0,5	2,062800
9,433500	0,5	2,058400
9,441833	0,5	2,053350
9,450167	0,5	2,048900
9,458500	0,5	2,046950
9,466833	0,5	2,046650
9,475167	0,5	2,051500
9,483500	0,5	2,055850
9,491833	0,5	2,058250
9,500167	0,5	2,062550
9,508500	0,5	2,072550
9,516833	0,5	2,089350
9,525167	0,5	2,119350
9,533500	0,5	2,164300
9,541833	0,5	2,214650
9,550167	0,5	2,268450
9,558500	0,5	2,321600
9,566833	0,5	2,373150
9,575167	0,5	2,422350
9,583500	0,5	2,470600
9,591833	0,5	2,513250
9,600167	0,5	2,533100
9,608500	0,5	2,532250
9,616833	0,5	2,506350
9,625167	0,5	2,464100
9,633500	0,5	2,403300
9,641833	0,5	2,342400
9,650167	0,5	2,275350
9,658500	0,5	2,214450
9,666833	0,5	2,160150
9,675167	0,5	2,115700
9,683500	0,5	2,081400
9,691833	0,5	2,065500
9,700167	0,5	2,061200
9,708500	0,5	2,070500
9,716833	0,5	2,082200
9,725167	0,5	2,104450
9,733500	0,5	2,119450
9,741833	0,5	2,134550
9,750167	0,5	2,148500
9,758500	0,5	2,159250
9,766833	0,5	2,163350
9,775167	0,5	2,159550
9,783500	0,5	2,142600
9,791833	0,5	2,111150
9,800167	0,5	2,072250
9,808500	0,5	2,030400
9,816833	0,5	1,992150
9,825167	0,5	1,963400
9,833500	0,5	1,946200
9,841833	0,5	1,942100
9,850167	0,5	1,948450
9,858500	0,5	1,966800
9,866833	0,5	1,984550
9,875167	0,5	2,007850
9,883500	0,5	2,027400
9,891833	0,5	2,053000
9,900167	0,5	2,079000
9,908500	0,5	2,110800
9,916833	0,5	2,152300
9,925167	0,5	2,185700
9,933500	0,5	2,202500
9,941833	0,5	2,197250
9,950167	0,5	2,165400
9,958500	0,5	2,120550
9,966833	0,5	2,074000
9,975167	0,5	2,022700
9,983500	0,5	1,978050
9,991833	0,5	1,939700
10,000167	0,5	1,910500
10,008500	0,5	1,889050
10,016833	0,5	1,880300
10,025167	0,5	1,888600
10,033500	0,5	1,906350
10,041833	0,5	1,935750
10,050167	0,5	1,978150
10,058500	0,5	2,020900
10,066833	0,5	2,071400
10,075167	0,5	2,107500
10,083500	0,5	2,134600
10,091833	0,5	2,148050
10,100167	0,5	2,138250
10,108500	0,5	2,117700
10,116833	0,5	2,084150
10,125167	0,5	2,044000
10,133500	0,5	1,996800
10,141833	0,5	1,953100
10,150167	0,5	1,904600
10,158500	0,5	1,855900
10,166833	0,5	1,810000
10,175167	0,5	1,775800
10,183500	0,5	1,743500
10,191833	0,5	1,727950
10,200167	0,5	1,720250
10,208500	0,5	1,723300
10,216833	0,5	1,746500
10,225167	0,5	1,781750
10,233500	0,5	1,827800
10,241833	0,5	1,881050
10,250167	0,5	1,929750
10,258500	0,5	1,961400
10,266833	0,5	1,973000
10,275167	0,5	1,958650
10,283500	0,5	1,927950
10,291833	0,5	1,894350
10,300167	0,5	1,858750
10,308500	0,5	1,824750
10,316833	0,5	1,800950
10,325167	0,5	1,785950
10,333500	0,5	1,774150
10,341833	0,5	1,769250
10,350167	0,5	1,767350
10,358500	0,5	1,769200
10,366833	0,5	1,777650
10,375167	0,5	1,790600
10,383500	0,5	1,805050
10,391833	0,5	1,821050
10,400167	0,5	1,842150
10,408500	0,5	1,865600
10,416833	0,5	1,896450
10,425167	0,5	1,930950
10,433500	0,5	1,986400
10,441833	0,5	2,067900
10,450167	0,5	2,183250
10,458500	0,5	2,334500
10,466833	0,5	2,532350
10,475167	0,5	2,764750
10,483500	0,5	3,016000
10,491833	0,5	3,268050
10,500167	0,5	3,485600
10,508500	0,5	3,660550
10,516833	0,5	3,772250
10,525167	0,5	3,811150
10,533500	0,5	3,788750
10,541833	0,5	3,713400
10,550167	0,5	3,582500
10,558500	0,5	3,418050
10,566833	0,5	3,228100
10,575167	0,5	3,029000
10,583500	0,5	2,833650
10,591833	0,5	2,650500
10,600167	0,5	2,482750
10,608500	0,5	2,336750
10,616833	0,5	2,213650
10,625167	0,5	2,101450
10,633500	0,5	2,012050
10,641833	0,5	1,936750
10,650167	0,5	1,882150
10,658500	0,5	1,845200
10,666833	0,5	1,827050
10,675167	0,5	1,812200
10,683500	0,5	1,808000
10,691833	0,5	1,797550
10,700167	0,5	1,789150
10,708500	0,5	1,781250
10,716833	0,5	1,764400
10,725167	0,5	1,756750
10,733500	0,5	1,768750
10,741833	0,5	1,796600
10,750167	0,5	1,840500
10,758500	0,5	1,901600
10,766833	0,5	1,954550
10,775167	0,5	1,996600
10,783500	0,5	2,008450
10,791833	0,5	1,989550
10,800167	0,5	1,949950
10,808500	0,5	1,903550
10,816833	0,5	1,846050
10,825167	0,5	1,803300
10,833500	0,5	1,759750
10,841833	0,5	1,732500
10,850167	0,5	1,712850
10,858500	0,5	1,704150
10,866833	0,5	1,703450
10,875167	0,5	1,704250
10,883500	0,5	1,714450
10,891833	0,5	1,721800
10,900167	0,5	1,718800
10,908500	0,5	1,720500
10,916833	0,5	1,713800
10,925167	0,5	1,703300
10,933500	0,5	1,696350
10,941833	0,5	1,696450
10,950167	0,5	1,707900
10,958500	0,5	1,724150
10,966833	0,5	1,730750
10,975167	0,5	1,725300
10,983500	0,5	1,709700
10,991833	0,5	1,684150
11,000167	0,5	1,653850
11,008500	0,5	1,621650
11,016833	0,5	1,598350
11,025167	0,5	1,578100
11,033500	0,5	1,565200
11,041833	0,5	1,561000
11,050167	0,5	1,565450
11,058500	0,5	1,593700
11,066833	0,5	1,630750
11,075167	0,5	1,678100
11,083500	0,5	1,742800
11,091833	0,5	1,825450
11,100167	0,5	1,917250
11,108500	0,5	2,013850
11,116833	0,5	2,085500
11,125167	0,5	2,131100
11,133500	0,5	2,132600
11,141833	0,5	2,092900
11,150167	0,5	2,021250
11,158500	0,5	1,938300
11,166833	0,5	1,869800
11,175167	0,5	1,828850
11,183500	0,5	1,822650
11,191833	0,5	1,825450
11,200167	0,5	1,826400
11,208500	0,5	1,834700
11,216833	0,5	1,836500
11,225167	0,5	1,834100
11,233500	0,5	1,839150
11,241833	0,5	1,870300
11,250167	0,5	1,974950
11,258500	0,5	2,268500
11,266833	0,5	2,754800
11,275167	0,5	3,230400
11,283500	0,5	3,374550
11,291833	0,5	3,195400
11,300167	0,5	2,882550
11,308500	0,5	2,410550
11,316833	0,5	1,817550
11,325167	0,5	1,256300
11,333500	0,5	0,884300
11,341833	0,5	0,660350
11,350167	0,5	0,520450
11,358500	0,5	0,430250
11,366833	0,5	0,357800
11,375167	0,5	0,305200
11,383500	0,5	0,264350
11,391833	0,5	0,239350
11,400167	0,5	0,227550
11,408500	0,5	0,217900
11,416833	0,5	0,219800
11,425167	0,5	0,226400
11,433500	0,5	0,233250
11,441833	0,5	0,239200
11,450167	0,5	0,247150
11,458500	0,5	0,246750
11,466833	0,5	0,242850
11,475167	0,5	0,238100
11,483500	0,5	0,215100
11,491833	0,5	0,187900
11,500167	0,5	0,163250
11,508500	0,5	0,133150
11,516833	0,5	0,099900
11,525167	0,5	0,068050
11,533500	0,5	0,035600
11,541833	0,5	0,012900
11,550167	0,5	-0,011250
11,558500	0,5	-0,032100
11,566833	0,5	-0,055300
11,575167	0,5	-0,073450
11,583500	0,5	-0,091900
11,591833	0,5	-0,105750
11,600167	0,5	-0,122900
11,608500	0,5	-0,135200
11,616833	0,5	-0,144050
11,625167	0,5	-0,155000
11,633500	0,5	-0,166400
11,641833	0,5	-0,174350
11,650167	0,5	-0,178000
11,658500	0,5	-0,184500
11,666833	0,5	-0,187150
11,675167	0,5	-0,193050
11,683500	0,5	-0,195900
11,691833	0,5	-0,191400
11,700167	0,5	-0,184250
11,708500	0,5	-0,174750
11,716833	0,5	-0,161200
11,725167	0,5	-0,144250
11,733500	0,5	-0,126900
11,741833	0,5	-0,103950
11,750167	0,5	-0,084150
11,758500	0,5	-0,058200
11,766833	0,5	-0,029750
11,775167	0,5	-0,007650
11,783500	0,5	0,007700
11,791833	0,5	0,023750
11,800167	0,5	0,031350
11,808500	0,5	0,038600
11,816833	0,5	0,040850
11,825167	0,5	0,032550
11,833500	0,5	0,029700
11,841833	0,5	0,024500
11,850167	0,5	0,011400
11,858500	0,5	0,007700
11,866833	0,5	-0,003350
11,875167	0,5	-0,006900
11,883500	0,5	-0,016000
11,891833	0,5	-0,020000
11,900167	0,5	-0,024750
11,908500	0,5	-0,027850
11,916833	0,5	-0,024000
11,925167	0,5	-0,024800
11,933500	0,5	-0,033100
11,941833	0,5	-0,024200
11,950167	0,5	-0,023400
11,958500	0,5	-0,022350
11,966833	0,5	-0,020850
11,975167	0,5	-0,024400
11,983500	0,5	-0,012650
11,991833	0,5	-0,008750
12,000167	0,5	-0,002000
12,008500	0,5	0,005450
12,016833	0,5	0,016900
12,025167	0,5	0,026100
12,033500	0,5	0,038650
12,041833	0,5	0,047800
12,050167	0,5	0,058150
12,058500	0,5	0,073200
12,066833	0,5	0,090700
12,075167	0,5	0,110050
12,083500	0,5	0,126950
12,091833	0,5	0,155700
12,100167	0,5	0,178250
12,108500	0,5	0,207250
12,116833	0,5	0,237950
12,125167	0,5	0,272550
12,133500	0,5	0,310850
12,141833	0,5	0,355650
12,150167	0,5	0,398400
12,158500	0,5	0,441450
12,166833	0,5	0,487350
12,175167	0,5	0,536000
12,183500	0,5	0,585700
12,191833	0,5	0,637450
12,200167	0,5	0,682300
12,208500	0,5	0,728950
12,216833	0,5	0,781150
12,225167	0,5	0,830150
12,233500	0,5	0,872300
12,241833	0,5	0,925950
12,250167	0,5	0,964050
12,258500	0,5	1,006850
12,266833	0,5	1,042650
12,275167	0,5	1,077300
12,283500	0,5	1,112800
12,291833	0,5	1,146600
12,300167	0,5	1,175050
12,308500	0,5	1,204600
12,316833	0,5	1,231300
12,325167	0,5	1,255200
12,333500	0,5	1,282100
12,341833	0,5	1,300350
12,350167	0,5	1,318800
12,358500	0,5	1,337300
12,366833	0,5	1,356350
12,375167	0,5	1,370300
12,383500	0,5	1,388200
12,391833	0,5	1,403100
12,400167	0,5	1,413050
12,408500	0,5	1,421500
12,416833	0,5	1,432300
12,425167	0,5	1,445600
12,433500	0,5	1,456450
12,441833	0,5	1,469700
12,450167	0,5	1,479700
12,458500	0,5	1,489650
12,466833	0,5	1,499700
12,475167	0,5	1,506650
12,483500	0,5	1,515300
12,491833	0,5	1,520750
12,500167	0,5	1,524350
12,508500	0,5	1,536100
12,516833	0,5	1,538500
12,525167	0,5	1,537850
12,533500	0,5	1,543900
12,541833	0,5	1,548700
12,550167	0,5	1,547300
12,558500	0,5	1,544850
12,566833	0,5	1,543950
12,575167	0,5	1,546950
12,583500	0,5	1,547900
12,591833	0,5	1,552750
12,600167	0,5	1,555950
12,608500	0,5	1,558100
12,616833	0,5	1,557400
12,625167	0,5	1,563550
12,633500	0,5	1,564050
12,641833	0,5	1,565350
12,650167	0,5	1,568750
12,658500	0,5	1,571700
12,666833	0,5	1,569950
12,675167	0,5	1,567500
12,683500	0,5	1,570000
12,691833	0,5	1,569350
12,700167	0,5	1,568350
12,708500	0,5	1,563400
12,716833	0,5	1,563250
12,725167	0,5	1,567000
12,733500	0,5	1,568650
12,741833	0,5	1,569800
12,750167	0,5	1,570800
12,758500	0,5	1,572150
12,766833	0,5	1,577100
12,775167	0,5	1,572500
12,783500	0,5	1,577000
12,791833	0,5	1,571050
12,800167	0,5	1,571150
12,808500	0,5	1,570650
12,816833	0,5	1,567250
12,825167	0,5	1,568600
12,833500	0,5	1,570200
12,841833	0,5	1,566050
12,850167	0,5	1,565200
12,858500	0,5	1,561850
12,866833	0,5	1,562050
12,875167	0,5	1,571900
12,883500	0,5	1,568550
12,891833	0,5	1,573350
12,900167	0,5	1,567550
12,908500	0,5	1,575050
12,916833	0,5	1,575650
12,925167	0,5	1,575350
12,933500	0,5	1,579800
12,941833	0,5	1,578450
12,950167	0,5	1,579000
12,958500	0,5	1,581500
12,966833	0,5	1,574500
12,975167	0,5	1,584450
12,983500	0,5	1,585850
12,991833	0,5	1,585950
13,000167	0,5	1,582000
13,008500	0,5	1,581250
13,016833	0,5	1,588950
13,025167	0,5	1,588850
13,033500	0,5	1,595300
13,041833	0,5	1,600700
13,050167	0,5	1,602150
13,058500	0,5	1,606050
13,066833	0,5	1,609900
13,075167	0,5	1,611450
13,083500	0,5	1,617050
13,091833	0,5	1,620050
13,100167	0,5	1,622700
13,108500	0,5	1,623300
13,116833	0,5	1,623300
13,125167	0,5	1,629350
13,133500	0,5	1,631250
13,141833	0,5	1,632550
13,150167	0,5	1,632900
13,158500	0,5	1,632250
13,166833	0,5	1,641000
13,175167	0,5	1,647000
13,183500	0,5	1,649800
13,191833	0,5	1,653450
13,200167	0,5	1,652600
13,208500	0,5	1,658350
13,216833	0,5	1,665000
13,225167	0,5	1,666500
13,233500	0,5	1,672750
13,241833	0,5	1,682950
13,250167	0,5	1,692600
13,258500	0,5	1,696350
13,266833	0,5	1,704650
13,275167	0,5	1,715650
13,283500	0,5	1,723000
13,291833	0,5	1,730350
13,300167	0,5	1,726550
13,308500	0,5	1,734550
13,316833	0,5	1,741600
13,325167	0,5	1,750950
13,333500	0,5	1,755100
13,341833	0,5	1,757150
13,350167	0,5	1,765750
13,358500	0,5	1,775000
13,366833	0,5	1,786000
13,375167	0,5	1,792900
13,383500	0,5	1,806200
13,391833	0,5	1,817650
13,400167	0,5	1,821100
13,408500	0,5	1,815050
13,416833	0,5	1,813350
13,425167	0,5	1,806300
13,433500	0,5	1,793350
13,441833	0,5	1,776750
13,450167	0,5	1,766900
13,458500	0,5	1,760300
13,466833	0,5	1,764400
13,475167	0,5	1,767350
13,483500	0,5	1,772200
13,491833	0,5	1,779850
13,500167	0,5	1,779300
13,508500	0,5	1,789000
13,516833	0,5	1,801100
13,525167	0,5	1,818050
13,533500	0,5	1,846750
13,541833	0,5	1,882200
13,550167	0,5	1,904350
13,558500	0,5	1,915350
13,566833	0,5	1,918550
13,575167	0,5	1,903900
13,583500	0,5	1,877950
13,591833	0,5	1,846250
13,600167	0,5	1,813800
13,608500	0,5	1,800050
13,616833	0,5	1,787450
13,625167	0,5	1,787250
13,633500	0,5	1,790950
13,641833	0,5	1,797850
13,650167	0,5	1,812750
13,658500	0,5	1,834700
13,666833	0,5	1,858500
13,675167	0,5	1,883050
13,683500	0,5	1,911750
13,691833	0,5	1,928950
13,700167	0,5	1,920150
13,708500	0,5	1,913450
13,716833	0,5	1,898800
13,725167	0,5	1,869100
13,733500	0,5	1,835100
13,741833	0,5	1,791400
13,750167	0,5	1,762200
13,758500	0,5	1,745400
13,766833	0,5	1,739550
13,775167	0,5	1,742450
13,783500	0,5	1,754400
13,791833	0,5	1,767400
13,800167	0,5	1,782100
13,808500	0,5	1,791100
13,816833	0,5	1,800050
13,825167	0,5	1,796200
13,833500	0,5	1,785350
13,841833	0,5	1,768100
13,850167	0,5	1,737000
13,858500	0,5	1,721100
13,866833	0,5	1,703300
13,875167	0,5	1,689800
13,883500	0,5	1,675900
13,891833	0,5	1,667250
13,900167	0,5	1,663400
13,908500	0,5	1,668200
13,916833	0,5	1,669750
13,925167	0,5	1,667750
13,933500	0,5	1,664350
13,941833	0,5	1,654200
13,950167	0,5	1,645800
13,958500	0,5	1,636600
13,966833	0,5	1,625150
13,975167	0,5	1,613000
13,983500	0,5	1,602150
13,991833	0,5	1,595400
14,000167	0,5	1,571500
14,008500	0,5	1,574650
14,016833	0,5	1,562550
14,025167	0,5	1,550300
14,033500	0,5	1,534900
14,041833	0,5	1,516450
14,050167	0,5	1,513500
14,058500	0,5	1,499900
14,066833	0,5	1,493750
14,075167	0,5	1,485450
14,083500	0,5	1,486500
14,091833	0,5	1,478800
14,100167	0,5	1,473500
14,108500	0,5	1,467250
14,116833	0,5	1,461950
14,125167	0,5	1,451300
14,133500	0,5	1,453200
14,141833	0,5	1,436350
14,150167	0,5	1,430050
14,158500	0,5	1,424200
14,166833	0,5	1,414650
14,175167	0,5	1,400300
14,183500	0,5	1,385550
14,191833	0,5	1,374150
14,200167	0,5	1,375650
14,208500	0,5	1,365350
14,216833	0,5	1,365000
14,225167	0,5	1,358550
14,233500	0,5	1,354300
14,241833	0,5	1,352500
14,250167	0,5	1,347250
14,258500	0,5	1,348350
14,266833	0,5	1,339300
14,275167	0,5	1,337900
14,283500	0,5	1,333500
14,291833	0,5	1,326650
14,300167	0,5	1,327300
14,308500	0,5	1,318250
14,316833	0,5	1,308000
14,325167	0,5	1,297450
14,333500	0,5	1,284300
14,341833	0,5	1,277050
14,350167	0,5	1,272850
14,358500	0,5	1,266800
14,366833	0,5	1,261600
14,375167	0,5	1,254400
14,383500	0,5	1,246700
14,391833	0,5	1,240000
14,400167	0,5	1,236000
14,408500	0,5	1,224450
14,416833	0,5	1,225800
14,425167	0,5	1,219100
14,433500	0,5	1,219300
14,441833	0,5	1,212550
14,450167	0,5	1,220600
14,458500	0,5	1,206650
14,466833	0,5	1,201750
14,475167	0,5	1,182500
14,483500	0,5	1,171300
14,491833	0,5	1,163050
14,500167	0,5	1,161800
14,508500	0,5	1,155800
14,516833	0,5	1,160200
14,525167	0,5	1,157100
14,533500	0,5	1,154400
14,541833	0,5	1,153200
14,550167	0,5	1,145000
14,558500	0,5	1,139400
14,566833	0,5	1,132500
14,575167	0,5	1,129000
14,583500	0,5	1,115300
14,591833	0,5	1,117350
14,600167	0,5	1,117750
14,608500	0,5	1,113900
14,616833	0,5	1,105050
14,625167	0,5	1,093050
14,633500	0,5	1,084650
14,641833	0,5	1,080550
14,650167	0,5	1,073450
14,658500	0,5	1,074450
14,666833	0,5	1,063450
14,675167	0,5	1,058300
14,683500	0,5	1,053500
14,691833	0,5	1,050900
14,700167	0,5	1,044400
14,708500	0,5	1,032900
14,716833	0,5	1,026800
14,725167	0,5	1,027250
14,733500	0,5	1,011500
14,741833	0,5	1,015100
14,750167	0,5	1,014500
14,758500	0,5	1,005750
14,766833	0,5	0,998250
14,775167	0,5	0,979450
14,783500	0,5	0,981400
14,791833	0,5	0,978050
14,800167	0,5	0,977450
14,808500	0,5	0,966700
14,816833	0,5	0,965000
14,825167	0,5	0,956850
14,833500	0,5	0,952050
14,841833	0,5	0,946750
14,850167	0,5	0,940300
14,858500	0,5	0,938150
14,866833	0,5	0,931950
14,875167	0,5	0,926950
14,883500	0,5	0,916200
14,891833	0,5	0,915400
14,900167	0,5	0,916550
14,908500	0,5	0,905700
14,916833	0,5	0,894300
14,925167	0,5	0,880300
14,933500	0,5	0,884450
14,941833	0,5	0,884850
14,950167	0,5	0,876500
14,958500	0,5	0,876700
14,966833	0,5	0,865700
14,975167	0,5	0,867400
14,983500	0,5	0,863400
14,991833	0,5	0,859450
15,000167	0,5	0,855250
15,008500	0,5	0,849300
15,016833	0,5	0,850000
15,025167	0,5	0,841250
15,033500	0,5	0,837200
15,041833	0,5	0,841150
15,050167	0,5	0,834000
15,058500	0,5	0,823400
15,066833	0,5	0,814550
15,075167	0,5	0,805000
15,083500	0,5	0,809400
15,091833	0,5	0,807300
15,100167	0,5	0,807050
15,108500	0,5	0,797600
15,116833	0,5	0,794800
15,125167	0,5	0,795800
15,133500	0,5	0,798700
15,141833	0,5	0,796000
15,150167	0,5	0,793150
15,158500	0,5	0,791100
15,166833	0,5	0,795500
15,175167	0,5	0,780000
15,183500	0,5	0,792200
15,191833	0,5	0,787950
15,200167	0,5	0,786900
15,208500	0,5	0,774350
15,216833	0,5	0,757550
15,225167	0,5	0,758300
15,233500	0,5	0,758250
15,241833	0,5	0,753850
15,250167	0,5	0,751800
15,258500	0,5	0,750500
15,266833	0,5	0,743700
15,275167	0,5	0,737800
15,283500	0,5	0,733850
15,291833	0,5	0,731100
15,300167	0,5	0,724050
15,308500	0,5	0,726750
15,316833	0,5	0,717550
15,325167	0,5	0,708450
15,333500	0,5	0,712950
15,341833	0,5	0,707700
15,350167	0,5	0,699900
15,358500	0,5	0,688250
15,366833	0,5	0,675050
15,375167	0,5	0,669200
15,383500	0,5	0,668600
15,391833	0,5	0,667750
15,400167	0,5	0,663050
15,408500	0,5	0,661700
15,416833	0,5	0,658100
15,425167	0,5	0,652350
15,433500	0,5	0,651850
15,441833	0,5	0,641750
15,450167	0,5	0,638150
15,458500	0,5	0,633800
15,466833	0,5	0,621250
15,475167	0,5	0,613000
15,483500	0,5	0,613850
15,491833	0,5	0,605750
15,500167	0,5	0,596050
15,508500	0,5	0,577250
15,516833	0,5	0,560550
15,525167	0,5	0,556300
15,533500	0,5	0,554550
15,541833	0,5	0,548400
15,550167	0,5	0,547600
15,558500	0,5	0,542200
15,566833	0,5	0,544200
15,575167	0,5	0,538650
15,583500	0,5	0,538700
15,591833	0,5	0,540700
15,600167	0,5	0,540600
15,608500	0,5	0,541800
15,616833	0,5	0,536250
15,625167	0,5	0,542700
15,633500	0,5	0,546850
15,641833	0,5	0,550150
15,650167	0,5	0,544900
15,658500	0,5	0,538600
15,666833	0,5	0,538700
15,675167	0,5	0,544650
15,683500	0,5	0,546050
15,691833	0,5	0,548400
15,700167	0,5	0,545400
15,708500	0,5	0,538550
15,716833	0,5	0,530800
15,725167	0,5	0,517250
15,733500	0,5	0,510650
15,741833	0,5	0,500550
15,750167	0,5	0,495500
15,758500	0,5	0,482000
15,766833	0,5	0,470550
15,775167	0,5	0,470100
15,783500	0,5	0,469250
15,791833	0,5	0,462800
15,800167	0,5	0,461150
15,808500	0,5	0,447200
15,816833	0,5	0,456750
15,825167	0,5	0,449500
15,833500	0,5	0,445050
15,841833	0,5	0,443000
15,850167	0,5	0,438900
15,858500	0,5	0,436300
15,866833	0,5	0,432050
15,875167	0,5	0,419600
15,883500	0,5	0,414750
15,891833	0,5	0,406050
15,900167	0,5	0,406300
15,908500	0,5	0,392550
15,916833	0,5	0,390400
15,925167	0,5	0,388000
15,933500	0,5	0,383700
15,941833	0,5	0,377150
15,950167	0,5	0,360800
15,958500	0,5	0,358200
15,966833	0,5	0,356000
15,975167	0,5	0,358600
15,983500	0,5	0,352500
15,991833	0,5	0,351750
16,000167	0,5	0,341250
16,008500	0,5	0,341550
16,016833	0,5	0,331650
16,025167	0,5	0,326400
16,033500	0,5	0,320600
16,041833	0,5	0,317950
16,050167	0,5	0,320350
16,058500	0,5	0,308850
16,066833	0,5	0,315900
16,075167	0,5	0,318550
16,083500	0,5	0,314800
16,091833	0,5	0,307650
16,100167	0,5	0,290150
16,108500	0,5	0,282750
16,116833	0,5	0,281250
16,125167	0,5	0,267250
16,133500	0,5	0,266350
16,141833	0,5	0,261600
16,150167	0,5	0,265250
16,158500	0,5	0,260100
16,166833	0,5	0,259800
16,175167	0,5	0,252100
16,183500	0,5	0,252350
16,191833	0,5	0,251000
16,200167	0,5	0,251700
16,208500	0,5	0,235850
16,216833	0,5	0,250150
16,225167	0,5	0,244550
16,233500	0,5	0,240750
16,241833	0,5	0,234150
16,250167	0,5	0,222000
16,258500	0,5	0,229700
16,266833	0,5	0,229050
16,275167	0,5	0,234200
16,283500	0,5	0,234450
16,291833	0,5	0,234550
16,300167	0,5	0,238150
16,308500	0,5	0,243500
16,316833	0,5	0,241300
16,325167	0,5	0,245900
16,333500	0,5	0,249700
16,341833	0,5	0,265800
16,350167	0,5	0,265100
16,358500	0,5	0,260950
16,366833	0,5	0,270700
16,375167	0,5	0,263850
16,383500	0,5	0,259900
16,391833	0,5	0,250050
16,400167	0,5	0,235000
16,408500	0,5	0,240050
16,416833	0,5	0,239250
16,425167	0,5	0,242300
16,433500	0,5	0,241850
16,441833	0,5	0,243350
16,450167	0,5	0,251500
16,458500	0,5	0,255100
16,466833	0,5	0,263800
16,475167	0,5	0,267200
16,483500	0,5	0,278150
16,491833	0,5	0,288700
16,500167	0,5	0,289600
16,508500	0,5	0,300850
16,516833	0,5	0,316000
16,525167	0,5	0,319450
16,533500	0,5	0,319800
16,541833	0,5	0,315400
16,550167	0,5	0,317800
16,558500	0,5	0,322900
16,566833	0,5	0,323050
16,575167	0,5	0,322950
16,583500	0,5	0,322150
16,591833	0,5	0,320550
16,600167	0,5	0,317450
16,608500	0,5	0,317550
16,616833	0,5	0,314650
16,625167	0,5	0,319000
16,633500	0,5	0,320250
16,641833	0,5	0,319250
16,650167	0,5	0,312500
16,658500	0,5	0,327000
16,666833	0,5	0,329650
16,675167	0,5	0,331550
16,683500	0,5	0,321850
16,691833	0,5	0,323050
16,700167	0,5	0,326900
16,708500	0,5	0,338700
16,716833	0,5	0,339450
16,725167	0,5	0,346600
16,733500	0,5	0,347650
16,741833	0,5	0,355550
16,750167	0,5	0,362150
16,758500	0,5	0,365350
16,766833	0,5	0,364950
16,775167	0,5	0,367350
16,783500	0,5	0,375400
16,791833	0,5	0,369550
16,800167	0,5	0,382950
16,808500	0,5	0,400650
16,816833	0,5	0,421900
16,825167	0,5	0,445100
16,833500	0,5	0,459050
16,841833	0,5	0,481900
16,850167	0,5	0,508950
16,858500	0,5	0,506900
16,866833	0,5	0,506250
16,875167	0,5	0,487300
16,883500	0,5	0,472250
16,891833	0,5	0,454350
16,900167	0,5	0,438700
16,908500	0,5	0,428450
16,916833	0,5	0,416000
16,925167	0,5	0,408150
16,933500	0,5	0,399800
16,941833	0,5	0,366500
16,950167	0,5	0,364100
16,958500	0,5	0,342700
16,966833	0,5	0,315350
16,975167	0,5	0,294450
16,983500	0,5	0,259050
16,991833	0,5	0,254950
17,000167	0,5	0,246750
17,008500	0,5	0,245800
17,016833	0,5	0,241450
17,025167	0,5	0,242300
17,033500	0,5	0,243300
17,041833	0,5	0,247750
17,050167	0,5	0,247850
17,058500	0,5	0,243850
17,066833	0,5	0,241250
17,075167	0,5	0,232700
17,083500	0,5	0,223450
17,091833	0,5	0,202050
17,100167	0,5	0,197900
17,108500	0,5	0,194050
17,116833	0,5	0,179300
17,125167	0,5	0,161250
17,133500	0,5	0,140700
17,141833	0,5	0,142050
17,150167	0,5	0,143950
17,158500	0,5	0,131450
17,166833	0,5	0,136000
17,175167	0,5	0,125200
17,183500	0,5	0,121900
17,191833	0,5	0,119600
17,200167	0,5	0,118050
17,208500	0,5	0,111000
17,216833	0,5	0,105550
17,225167	0,5	0,106300
17,233500	0,5	0,104000
17,241833	0,5	0,097550
17,250167	0,5	0,110250
17,258500	0,5	0,101050
17,266833	0,5	0,090600
17,275167	0,5	0,069700
17,283500	0,5	0,046250
17,291833	0,5	0,034550
17,300167	0,5	0,019000
17,308500	0,5	0,008100
17,316833	0,5	-0,006400
17,325167	0,5	-0,015100
17,333500	0,5	-0,034450
17,341833	0,5	-0,035900
17,350167	0,5	-0,044400
17,358500	0,5	-0,046150
17,366833	0,5	-0,047550
17,375167	0,5	-0,050300
17,383500	0,5	-0,063500
17,391833	0,5	-0,061000
17,400167	0,5	-0,063950
17,408500	0,5	-0,071800
17,416833	0,5	-0,085650
17,425167	0,5	-0,101600
17,433500	0,5	-0,111400
17,441833	0,5	-0,112350
17,450167	0,5	-0,111800
17,458500	0,5	-0,118150
17,466833	0,5	-0,118850
17,475167	0,5	-0,124850
17,483500	0,5	-0,127050
17,491833	0,5	-0,131250
17,500167	0,5	-0,135150
17,508500	0,5	-0,142100
17,516833	0,5	-0,132650
17,525167	0,5	-0,146350
17,533500	0,5	-0,157850
17,541833	0,5	-0,157700
17,550167	0,5	-0,154500
17,558500	0,5	-0,159700
17,566833	0,5	-0,170900
17,575167	0,5	-0,186150
17,583500	0,5	-0,190750
17,591833	0,5	-0,187100
17,600167	0,5	-0,185900
17,608500	0,5	-0,186800
17,616833	0,5	-0,183750
17,625167	0,5	-0,182500
17,633500	0,5	-0,187750
17,641833	0,5	-0,185900
17,650167	0,5	-0,192400
17,658500	0,5	-0,190950
17,666833	0,5	-0,190650
17,675167	0,5	-0,202400
17,683500	0,5	-0,205150
17,691833	0,5	-0,199800
17,700167	0,5	-0,210350
17,708500	0,5	-0,215300
17,716833	0,5	-0,238050
17,725167	0,5	-0,244850
17,733500	0,5	-0,248350
17,741833	0,5	-0,248850
17,750167	0,5	-0,253550
17,758500	0,5	-0,255550
17,766833	0,5	-0,257750
17,775167	0,5	-0,261250
17,783500	0,5	-0,268100
17,791833	0,5	-0,272400
17,800167	0,5	-0,274300
17,808500	0,5	-0,280200
17,816833	0,5	-0,280050
17,825167	0,5	-0,305750
17,833500	0,5	-0,301900
17,841833	0,5	-0,308250
17,850167	0,5	-0,319450
17,858500	0,5	-0,333200
17,866833	0,5	-0,351650
17,875167	0,5	-0,353450
17,883500	0,5	-0,361100
17,891833	0,5	-0,372700
17,900167	0,5	-0,375950
17,908500	0,5	-0,380900
17,916833	0,5	-0,380700
17,925167	0,5	-0,385850
17,933500	0,5	-0,394450
17,941833	0,5	-0,398850
17,950167	0,5	-0,404700
17,958500	0,5	-0,397750
17,966833	0,5	-0,401200
17,975167	0,5	-0,414900
17,983500	0,5	-0,402650
17,991833	0,5	-0,408950
18,000167	0,5	-0,416200
18,008500	0,5	-0,424450
18,016833	0,5	-0,443600
18,025167	0,5	-0,437400
18,033500	0,5	-0,446700
18,041833	0,5	-0,445050
18,050167	0,5	-0,452100
18,058500	0,5	-0,459100
18,066833	0,5	-0,463350
18,075167	0,5	-0,467350
18,083500	0,5	-0,469800
18,091833	0,5	-0,478300
18,100167	0,5	-0,479900
18,108500	0,5	-0,478900
18,116833	0,5	-0,487700
18,125167	0,5	-0,483150
18,133500	0,5	-0,489250
18,141833	0,5	-0,492000
18,150167	0,5	-0,492100
18,158500	0,5	-0,507500
18,166833	0,5	-0,512550
18,175167	0,5	-0,514300
18,183500	0,5	-0,513100
18,191833	0,5	-0,518300
18,200167	0,5	-0,514350
18,208500	0,5	-0,521900
18,216833	0,5	-0,518150
18,225167	0,5	-0,520750
18,233500	0,5	-0,526800
18,241833	0,5	-0,526800
18,250167	0,5	-0,534200
18,258500	0,5	-0,528950
18,266833	0,5	-0,539150
18,275167	0,5	-0,534000
18,283500	0,5	-0,533600
18,291833	0,5	-0,537850
18,300167	0,5	-0,546450
18,308500	0,5	-0,561700
18,316833	0,5	-0,565800
18,325167	0,5	-0,559000
18,333500	0,5	-0,570250
18,341833	0,5	-0,563000
18,350167	0,5	-0,560950
18,358500	0,5	-0,557050
18,366833	0,5	-0,560000
18,375167	0,5	-0,557700
18,383500	0,5	-0,564300
18,391833	0,5	-0,562000
18,400167	0,5	-0,557150
18,408500	0,5	-0,559300
18,416833	0,5	-0,564350
18,425167	0,5	-0,557000
18,433500	0,5	-0,561950
18,441833	0,5	-0,564800
18,450167	0,5	-0,573250
18,458500	0,5	-0,583750
18,466833	0,5	-0,576000
18,475167	0,5	-0,578450
18,483500	0,5	-0,566900
18,491833	0,5	-0,573400
18,500167	0,5	-0,567550
18,508500	0,5	-0,572400
18,516833	0,5	-0,564400
18,525167	0,5	-0,568800
18,533500	0,5	-0,571650
18,541833	0,5	-0,566800
18,550167	0,5	-0,560800
18,558500	0,5	-0,573500
18,566833	0,5	-0,569350
18,575167	0,5	-0,570700
18,583500	0,5	-0,571100
18,591833	0,5	-0,576650
18,600167	0,5	-0,592900
18,608500	0,5	-0,593950
18,616833	0,5	-0,598950
18,625167	0,5	-0,591950
18,633500	0,5	-0,596850
18,641833	0,5	-0,587600
18,650167	0,5	-0,590550
18,658500	0,5	-0,584350
18,666833	0,5	-0,587700
18,675167	0,5	-0,586900
18,683500	0,5	-0,590100
18,691833	0,5	-0,581200
18,700167	0,5	-0,582550
18,708500	0,5	-0,596900
18,716833	0,5	-0,589850
18,725167	0,5	-0,590650
18,733500	0,5	-0,605550
18,741833	0,5	-0,611450
18,750167	0,5	-0,626950
18,758500	0,5	-0,627600
18,766833	0,5	-0,623400
18,775167	0,5	-0,626000
18,783500	0,5	-0,625700
18,791833	0,5	-0,631250
18,800167	0,5	-0,632600
18,808500	0,5	-0,638450
18,816833	0,5	-0,634750
18,825167	0,5	-0,641400
18,833500	0,5	-0,642800
18,841833	0,5	-0,635650
18,850167	0,5	-0,643500
18,858500	0,5	-0,647600
18,866833	0,5	-0,638650
18,875167	0,5	-0,646250
18,883500	0,5	-0,650700
18,891833	0,5	-0,669950
18,900167	0,5	-0,673800
18,908500	0,5	-0,668100
18,916833	0,5	-0,674000
18,925167	0,5	-0,684500
18,933500	0,5	-0,689700
18,941833	0,5	-0,687400
18,950167	0,5	-0,690150
18,958500	0,5	-0,689750
18,966833	0,5	-0,693450
18,975167	0,5	-0,695300
18,983500	0,5	-0,698350
18,991833	0,5	-0,690900
19,000167	0,5	-0,710250
19,008500	0,5	-0,710000
19,016833	0,5	-0,712050
19,025167	0,5	-0,714800
19,033500	0,5	-0,731750
19,041833	0,5	-0,744500
19,050167	0,5	-0,747050
19,058500	0,5	-0,744100
19,066833	0,5	-0,743900
19,075167	0,5	-0,750050
19,083500	0,5	-0,749150
19,091833	0,5	-0,752750
19,100167	0,5	-0,757800
19,108500	0,5	-0,763650
19,116833	0,5	-0,766650
19,125167	0,5	-0,777300
19,133500	0,5	-0,773950
19,141833	0,5	-0,774700
19,150167	0,5	-0,787750
19,158500	0,5	-0,778950
19,166833	0,5	-0,784550
19,175167	0,5	-0,793450
19,183500	0,5	-0,801950
19,191833	0,5	-0,820350
19,200167	0,5	-0,821100
19,208500	0,5	-0,821850
19,216833	0,5	-0,825550
19,225167	0,5	-0,835600
19,233500	0,5	-0,838300
19,241833	0,5	-0,839750
19,250167	0,5	-0,843000
19,258500	0,5	-0,841350
19,266833	0,5	-0,847350
19,275167	0,5	-0,844750
19,283500	0,5	-0,846450
19,291833	0,5	-0,850400
19,300167	0,5	-0,857300
19,308500	0,5	-0,847050
19,316833	0,5	-0,856150
19,325167	0,5	-0,863550
19,333500	0,5	-0,887050
19,341833	0,5	-0,894000
19,350167	0,5	-0,896000
19,358500	0,5	-0,894050
19,366833	0,5	-0,900650
19,375167	0,5	-0,897300
19,383500	0,5	-0,903400
19,391833	0,5	-0,903200
19,400167	0,5	-0,904900
19,408500	0,5	-0,906850
19,416833	0,5	-0,904100
19,425167	0,5	-0,912300
19,433500	0,5	-0,908250
19,441833	0,5	-0,919950
19,450167	0,5	-0,909900
19,458500	0,5	-0,911750
19,466833	0,5	-0,916850
19,475167	0,5	-0,932900
19,483500	0,5	-0,942000
19,491833	0,5	-0,952850
19,500167	0,5	-0,949900
19,508500	0,5	-0,950800
19,516833	0,5	-0,946950
19,525167	0,5	-0,952850
19,533500	0,5	-0,951700
19,541833	0,5	-0,952150
19,550167	0,5	-0,948350
19,558500	0,5	-0,952050
19,566833	0,5	-0,949450
19,575167	0,5	-0,945550
19,583500	0,5	-0,950000
19,591833	0,5	-0,955000
19,600167	0,5	-0,953650
19,608500	0,5	-0,955400
19,616833	0,5	-0,963600
19,625167	0,5	-0,977900
19,633500	0,5	-0,989900
19,641833	0,5	-0,983700
19,650167	0,5	-0,989400
19,658500	0,5	-0,984250
19,666833	0,5	-0,988200
19,675167	0,5	-0,976900
19,683500	0,5	-0,979350
19,691833	0,5	-0,978950
19,700167	0,5	-0,983400
19,708500	0,5	-0,985600
19,716833	0,5	-0,988700
19,725167	0,5	-0,984550
19,733500	0,5	-1,007700
19,741833	0,5	-0,998950
19,750167	0,5	-1,002100
19,758500	0,5	-1,006500
19,766833	0,5	-1,008350
19,775167	0,5	-1,031900
19,783500	0,5	-1,031850
19,791833	0,5	-1,034150
19,800167	0,5	-1,027400
19,808500	0,5	-1,037200
19,816833	0,5	-1,033650
19,825167	0,5	-1,042150
19,833500	0,5	-1,035600
19,841833	0,5	-1,033700
19,850167	0,5	-1,029250
19,858500	0,5	-1,029300
19,866833	0,5	-1,022200
19,875167	0,5	-1,015700
19,883500	0,5	-1,028900
19,891833	0,5	-1,016450
19,900167	0,5	-1,012100
19,908500	0,5	-1,014950
19,916833	0,5	-1,024500
19,925167	0,5	-1,041000
19,933500	0,5	-1,041900
19,941833	0,5	-1,037850
19,950167	0,5	-1,049100
19,958500	0,5	-1,045550
19,966833	0,5	-1,051950
19,975167	0,5	-1,046950
19,983500	0,5	-1,055700
19,991833	0,5	-1,052100
20,000167	0,5	-1,054100
20,008500	0,5	-1,057000
20,016833	0,5	-1,044250
20,025167	0,5	-1,046350
20,033500	0,5	-1,066300
20,041833	0,5	-1,054400
20,050167	0,5	-1,055300
20,058500	0,5	-1,065050
20,066833	0,5	-1,073000
20,075167	0,5	-1,087050
20,083500	0,5	-1,074700
20,091833	0,5	-1,077700
20,100167	0,5	-1,073300
20,108500	0,5	-1,079250
20,116833	0,5	-1,069250
20,125167	0,5	-1,073000
20,133500	0,5	-1,070650
20,141833	0,5	-1,069200
20,150167	0,5	-1,063950
20,158500	0,5	-1,056800
20,166833	0,5	-1,046000
20,175167	0,5	-1,053250
20,183500	0,5	-1,054350
20,191833	0,5	-1,047650
20,200167	0,5	-1,051550
20,208500	0,5	-1,057650
20,216833	0,5	-1,073600
20,225167	0,5	-1,081600
20,233500	0,5	-1,085650
20,241833	0,5	-1,080100
20,250167	0,5	-1,081700
20,258500	0,5	-1,082650
20,266833	0,5	-1,084750
20,275167	0,5	-1,082100
20,283500	0,5	-1,082550
20,291833	0,5	-1,077800
20,300167	0,5	-1,082000
20,308500	0,5	-1,074350
20,316833	0,5	-1,073250
20,325167	0,5	-1,083450
20,333500	0,5	-1,081800
20,341833	0,5	-1,084250
20,350167	0,5	-1,087300
20,358500	0,5	-1,105100
20,366833	0,5	-1,116450
20,375167	0,5	-1,125950
20,383500	0,5	-1,120800
20,391833	0,5	-1,125950
20,400167	0,5	-1,117450
20,408500	0,5	-1,118400
20,416833	0,5	-1,118100
20,425167	0,5	-1,120600
20,433500	0,5	-1,121400
20,441833	0,5	-1,125250
20,450167	0,5	-1,115700
20,458500	0,5	-1,108850
20,466833	0,5	-1,111300
20,475167	0,5	-1,116800
20,483500	0,5	-1,109750
20,491833	0,5	-1,117050
20,500167	0,5	-1,119300
20,508500	0,5	-1,134400
20,516833	0,5	-1,142150
20,525167	0,5	-1,141400
20,533500	0,5	-1,140350
20,541833	0,5	-1,135650
20,550167	0,5	-1,133650
20,558500	0,5	-1,132500
20,566833	0,5	-1,134200
20,575167	0,5	-1,126600
20,583500	0,5	-1,130900
20,591833	0,5	-1,124050
20,600167	0,5	-1,109600
20,608500	0,5	-1,100200
20,616833	0,5	-1,113750
20,625167	0,5	-1,107350
20,633500	0,5	-1,108550
20,641833	0,5	-1,111700
20,650167	0,5	-1,118100
20,658500	0,5	-1,132250
20,666833	0,5	-1,124100
20,675167	0,5	-1,125100
20,683500	0,5	-1,120700
20,691833	0,5	-1,120700
20,700167	0,5	-1,110150
20,708500	0,5	-1,107600
20,716833	0,5	-1,099550
20,725167	0,5	-1,106500
20,733500	0,5	-1,104250
20,741833	0,5	-1,101050
20,750167	0,5	-1,084150
20,758500	0,5	-1,083250
20,766833	0,5	-1,092650
20,775167	0,5	-1,092950
20,783500	0,5	-1,093350
20,791833	0,5	-1,102800
20,800167	0,5	-1,109300
20,808500	0,5	-1,107150
20,816833	0,5	-1,103750
20,825167	0,5	-1,101850
20,833500	0,5	-1,100200
20,841833	0,5	-1,090250
20,850167	0,5	-1,095650
20,858500	0,5	-1,095950
20,866833	0,5	-1,099450
20,875167	0,5	-1,097200
20,883500	0,5	-1,100250
20,891833	0,5	-1,079250
20,900167	0,5	-1,071500
20,908500	0,5	-1,073150
20,916833	0,5	-1,071250
20,925167	0,5	-1,072200
20,933500	0,5	-1,075400
20,941833	0,5	-1,086700
20,950167	0,5	-1,096800
20,958500	0,5	-1,090550
20,966833	0,5	-1,084850
20,975167	0,5	-1,085500
20,983500	0,5	-1,085750
20,991833	0,5	-1,083150
21,000167	0,5	-1,077750
21,008500	0,5	-1,076050
21,016833	0,5	-1,066200
21,025167	0,5	-1,070450
21,033500	0,5	-1,065050
21,041833	0,5	-1,044400
21,050167	0,5	-1,030650
21,058500	0,5	-1,036050
21,066833	0,5	-1,034200
21,075167	0,5	-1,039250
21,083500	0,5	-1,047950
21,091833	0,5	-1,060200
21,100167	0,5	-1,071800
21,108500	0,5	-1,061350
21,116833	0,5	-1,055250
21,125167	0,5	-1,059550
21,133500	0,5	-1,060550
21,141833	0,5	-1,050700
21,150167	0,5	-1,049850
21,158500	0,5	-1,044400
21,166833	0,5	-1,043050
21,175167	0,5	-1,036250
21,183500	0,5	-1,019550
21,191833	0,5	-1,003450
21,200167	0,5	-0,992400
21,208500	0,5	-0,992750
21,216833	0,5	-0,989450
21,225167	0,5	-0,999150
21,233500	0,5	-1,008900
21,241833	0,5	-1,006400
21,250167	0,5	-1,007350
21,258500	0,5	-1,003950
21,266833	0,5	-0,999250
21,275167	0,5	-0,992100
21,283500	0,5	-0,992050
21,291833	0,5	-0,983700
21,300167	0,5	-0,974200
21,308500	0,5	-0,969500
21,316833	0,5	-0,956300
21,325167	0,5	-0,953950
21,333500	0,5	-0,921850
21,341833	0,5	-0,908150
21,350167	0,5	-0,902750
21,358500	0,5	-0,900600
21,366833	0,5	-0,896900
21,375167	0,5	-0,898700
21,383500	0,5	-0,900000
21,391833	0,5	-0,896950
21,400167	0,5	-0,886950
21,408500	0,5	-0,860650
21,416833	0,5	-0,839500
21,425167	0,5	-0,814600
21,433500	0,5	-0,794900
21,441833	0,5	-0,772400
21,450167	0,5	-0,765600
21,458500	0,5	-0,762700
21,466833	0,5	-0,771100
21,475167	0,5	-0,754050
21,483500	0,5	-0,738800
21,491833	0,5	-0,725800
21,500167	0,5	-0,731350
21,508500	0,5	-0,729950
21,516833	0,5	-0,741300
21,525167	0,5	-0,747400
21,533500	0,5	-0,762100
21,541833	0,5	-0,755300
21,550167	0,5	-0,748150
21,558500	0,5	-0,741050
21,566833	0,5	-0,735600
21,575167	0,5	-0,732650
21,583500	0,5	-0,722250
21,591833	0,5	-0,713150
21,600167	0,5	-0,697400
21,608500	0,5	-0,690500
21,616833	0,5	-0,680850
21,625167	0,5	-0,648400
21,633500	0,5	-0,628300
21,641833	0,5	-0,627050
21,650167	0,5	-0,609750
21,658500	0,5	-0,604300
21,666833	0,5	-0,598300
21,675167	0,5	-0,599300
21,683500	0,5	-0,592850
21,691833	0,5	-0,574900
21,700167	0,5	-0,559650
21,708500	0,5	-0,547900
21,716833	0,5	-0,533450
21,725167	0,5	-0,520650
21,733500	0,5	-0,505650
21,741833	0,5	-0,485450
21,750167	0,5	-0,472950
21,758500	0,5	-0,459200
21,766833	0,5	-0,440900
21,775167	0,5	-0,413900
21,783500	0,5	-0,407100
21,791833	0,5	-0,399050
21,800167	0,5	-0,387600
21,808500	0,5	-0,376000
21,816833	0,5	-0,369550
21,825167	0,5	-0,374500
21,833500	0,5	-0,349850
21,841833	0,5	-0,326850
21,850167	0,5	-0,307550
21,858500	0,5	-0,291700
21,866833	0,5	-0,276550
21,875167	0,5	-0,262450
21,883500	0,5	-0,242850
21,891833	0,5	-0,225250
21,900167	0,5	-0,205900
21,908500	0,5	-0,187600
21,916833	0,5	-0,153050
21,925167	0,5	-0,129200
21,933500	0,5	-0,113350
21,941833	0,5	-0,079150
21,950167	0,5	-0,052050
21,958500	0,5	-0,030500
21,966833	0,5	-0,005850
21,975167	0,5	0,012250
21,983500	0,5	0,046450
21,991833	0,5	0,076700
22,000167	0,5	0,101800
22,008500	0,5	0,123100
22,016833	0,5	0,139100
22,025167	0,5	0,156050
22,033500	0,5	0,167750
22,041833	0,5	0,189500
22,050167	0,5	0,204500
22,058500	0,5	0,221100
22,066833	0,5	0,244750
22,075167	0,5	0,262250
22,083500	0,5	0,287100
22,091833	0,5	0,319600
22,100167	0,5	0,336850
22,108500	0,5	0,359000
22,116833	0,5	0,372850
22,125167	0,5	0,390900
22,133500	0,5	0,432100
22,141833	0,5	0,463400
22,150167	0,5	0,491750
22,158500	0,5	0,521250
22,166833	0,5	0,554400
22,175167	0,5	0,590150
22,183500	0,5	0,623700
22,191833	0,5	0,658200
22,200167	0,5	0,694750
22,208500	0,5	0,724650
22,216833	0,5	0,762750
22,225167	0,5	0,789850
22,233500	0,5	0,846250
22,241833	0,5	0,881750
22,250167	0,5	0,916950
22,258500	0,5	0,945700
22,266833	0,5	0,979100
22,275167	0,5	1,022850
22,283500	0,5	1,069150
22,291833	0,5	1,115150
22,300167	0,5	1,160000
22,308500	0,5	1,209700
22,316833	0,5	1,249250
22,325167	0,5	1,299900
22,333500	0,5	1,339150
22,341833	0,5	1,384300
22,350167	0,5	1,425000
22,358500	0,5	1,462450
22,366833	0,5	1,496550
22,375167	0,5	1,555950
22,383500	0,5	1,611950
22,391833	0,5	1,658200
22,400167	0,5	1,703850
22,408500	0,5	1,746550
22,416833	0,5	1,787600
22,425167	0,5	1,847500
22,433500	0,5	1,913150
22,441833	0,5	1,974750
22,450167	0,5	2,033850
22,458500	0,5	2,096950
22,466833	0,5	2,159500
22,475167	0,5	2,226750
22,483500	0,5	2,285150
22,491833	0,5	2,336350
22,500167	0,5	2,377900
22,508500	0,5	2,418000
22,516833	0,5	2,479400
22,525167	0,5	2,542500
22,533500	0,5	2,593750
22,541833	0,5	2,632000
22,550167	0,5	2,670000
22,558500	0,5	2,698850
22,566833	0,5	2,736450
22,575167	0,5	2,775900
22,583500	0,5	2,806200
22,591833	0,5	2,835150
22,600167	0,5	2,856750
22,608500	0,5	2,877550
22,616833	0,5	2,887050
22,625167	0,5	2,898100
22,633500	0,5	2,904750
22,641833	0,5	2,895750
22,650167	0,5	2,848650
22,658500	0,5	2,836550
22,666833	0,5	2,828700
22,675167	0,5	2,802450
22,683500	0,5	2,752900
22,691833	0,5	2,691900
22,700167	0,5	2,609750
22,708500	0,5	2,532100
22,716833	0,5	2,453600
22,725167	0,5	2,370300
22,733500	0,5	2,280850
22,741833	0,5	2,193850
22,750167	0,5	2,096950
22,758500	0,5	1,998550
22,766833	0,5	1,895850
22,775167	0,5	1,789450
22,783500	0,5	1,671400
22,791833	0,5	1,530300
22,800167	0,5	1,396800
22,808500	0,5	1,265650
22,816833	0,5	1,160850
22,825167	0,5	1,019350
22,833500	0,5	0,880400
22,841833	0,5	0,739150
22,850167	0,5	0,609050
22,858500	0,5	0,471800
22,866833	0,5	0,336300
22,875167	0,5	0,209250
22,883500	0,5	0,085250
22,891833	0,5	-0,033350
22,900167	0,5	-0,148250
22,908500	0,5	-0,263900
22,916833	0,5	-0,376600
22,925167	0,5	-0,491250
22,933500	0,5	-0,599850
22,941833	0,5	-0,696750
22,950167	0,5	-0,796050
22,958500	0,5	-0,907950
22,966833	0,5	-1,037650
22,975167	0,5	-1,132750
22,983500	0,5	-1,215900
22,991833	0,5	-1,298850
23,000167	0,5	-1,365350
23,008500	0,5	-1,447400
23,016833	0,5	-1,513600
23,025167	0,5	-1,572250
23,033500	0,5	-1,621150
23,041833	0,5	-1,665850
23,050167	0,5	-1,713550
23,058500	0,5	-1,755250
23,066833	0,5	-1,801800
23,075167	0,5	-1,837350
23,083500	0,5	-1,856400
23,091833	0,5	-1,897150
23,100167	0,5	-1,923200
23,108500	0,5	-1,977750
23,116833	0,5	-2,035550
23,125167	0,5	-2,056850
23,133500	0,5	-2,082950
23,141833	0,5	-2,087500
23,150167	0,5	-2,099600
23,158500	0,5	-2,110650
23,166833	0,5	-2,119600
23,175167	0,5	-2,113050
23,183500	0,5	-2,112950
23,191833	0,5	-2,103050
23,200167	0,5	-2,098150
23,208500	0,5	-2,088200
23,216833	0,5	-2,078750
23,225167	0,5	-2,075450
23,233500	0,5	-2,060900
23,241833	0,5	-2,049050
23,250167	0,5	-2,031600
23,258500	0,5	-2,052850
23,266833	0,5	-2,066600
23,275167	0,5	-2,063800
23,283500	0,5	-2,047350
23,291833	0,5	-2,039700
23,300167	0,5	-2,022750
23,308500	0,5	-2,013950
23,316833	0,5	-1,994850
23,325167	0,5	-1,975800
23,333500	0,5	-1,948400
23,341833	0,5	-1,924200
23,350167	0,5	-1,895000
23,358500	0,5	-1,868050
23,366833	0,5	-1,844800
23,375167	0,5	-1,811300
23,383500	0,5	-1,822450
23,391833	0,5	-1,786150
23,400167	0,5	-1,731700
23,408500	0,5	-1,720500
23,416833	0,5	-1,721250
23,425167	0,5	-1,707900
23,433500	0,5	-1,681950
23,441833	0,5	-1,663100
23,450167	0,5	-1,652600
23,458500	0,5	-1,631100
23,466833	0,5	-1,613300
23,475167	0,5	-1,588250
23,483500	0,5	-1,573250
23,491833	0,5	-1,543600
23,500167	0,5	-1,524950
23,508500	0,5	-1,493400
23,516833	0,5	-1,469750
23,525167	0,5	-1,466050
23,533500	0,5	-1,496850
23,541833	0,5	-1,449550
23,550167	0,5	-1,376800
23,558500	0,5	-1,352650
23,566833	0,5	-1,337950
23,575167	0,5	-1,320900
23,583500	0,5	-1,300000
23,591833	0,5	-1,279150
23,600167	0,5	-1,262150
23,608500	0,5	-1,239300
23,616833	0,5	-1,221300
23,625167	0,5	-1,199100
23,633500	0,5	-1,180900
23,641833	0,5	-1,159100
23,650167	0,5	-1,142200
23,658500	0,5	-1,124250
23,666833	0,5	-1,107000
23,675167	0,5	-1,185900
23,683500	0,5	-1,151400
23,691833	0,5	-1,111300
23,700167	0,5	-1,055150
23,708500	0,5	-1,026300
23,716833	0,5	-1,012300
23,725167	0,5	-0,994900
23,733500	0,5	-0,984200
23,741833	0,5	-0,963550
23,750167	0,5	-0,941150
23,758500	0,5	-0,923300
23,766833	0,5	-0,897900
23,775167	0,5	-0,876450
23,783500	0,5	-0,853350
23,791833	0,5	-0,832450
23,800167	0,5	-0,812350
23,808500	0,5	-0,793750
23,816833	0,5	-0,793200
23,825167	0,5	-0,891600
23,833500	0,5	-0,834900
23,841833	0,5	-0,800450
23,850167	0,5	-0,733050
23,858500	0,5	-0,716700
23,866833	0,5	-0,704250
23,875167	0,5	-0,695000
23,883500	0,5	-0,691800
23,891833	0,5	-0,667200
23,900167	0,5	-0,658300
23,908500	0,5	-0,639800
23,916833	0,5	-0,622050
23,925167	0,5	-0,600850
23,933500	0,5	-0,581300
23,941833	0,5	-0,562300
23,950167	0,5	-0,544000
23,958500	0,5	-0,528450
23,966833	0,5	-0,595650
23,975167	0,5	-0,600800
23,983500	0,5	-0,567100
23,991833	0,5	-0,510650
24,000167	0,5	-0,468600
24,008500	0,5	-0,445650
24,016833	0,5	-0,431700
24,025167	0,5	-0,422550
24,033500	0,5	-0,420300
24,041833	0,5	-0,395050
24,050167	0,5	-0,381050
24,058500	0,5	-0,365700
24,066833	0,5	-0,351350
24,075167	0,5	-0,335150
24,083500	0,5	-0,320000
24,091833	0,5	-0,307600
24,100167	0,5	-0,294950
24,108500	0,5	-0,286350
24,116833	0,5	-0,376600
24,125167	0,5	-0,349850
24,133500	0,5	-0,312100
24,141833	0,5	-0,270950
24,150167	0,5	-0,236300
24,158500	0,5	-0,225150
24,166833	0,5	-0,212550
24,175167	0,5	-0,213450
24,183500	0,5	-0,202450
24,191833	0,5	-0,188500
24,200167	0,5	-0,167000
24,208500	0,5	-0,151450
24,216833	0,5	-0,131400
24,225167	0,5	-0,118400
24,233500	0,5	-0,102400
24,241833	0,5	-0,084900
24,250167	0,5	-0,080500
24,258500	0,5	-0,080600
24,266833	0,5	-0,149300
24,275167	0,5	-0,116150
24,283500	0,5	-0,087900
24,291833	0,5	-0,054650
24,300167	0,5	-0,036300
24,308500	0,5	-0,027550
24,316833	0,5	-0,029950
24,325167	0,5	-0,029000
24,333500	0,5	-0,024950
24,341833	0,5	-0,005100
24,350167	0,5	0,001500
24,358500	0,5	0,019450
24,366833	0,5	0,027050
24,375167	0,5	0,044350
24,383500	0,5	0,054900
24,391833	0,5	0,066650
24,400167	0,5	0,076550
24,408500	0,5	0,046800
24,416833	0,5	0,039100
24,425167	0,5	0,048650
24,433500	0,5	0,082550
24,441833	0,5	0,107500
24,450167	0,5	0,119350
24,458500	0,5	0,123700
24,466833	0,5	0,120950
24,475167	0,5	0,117150
24,483500	0,5	0,132650
24,491833	0,5	0,130900
24,500167	0,5	0,145250
24,508500	0,5	0,147750
24,516833	0,5	0,159150
24,525167	0,5	0,167350
24,533500	0,5	0,175300
24,541833	0,5	0,182850
24,550167	0,5	0,186850
24,558500	0,5	0,147200
24,566833	0,5	0,159100
24,575167	0,5	0,171100
24,583500	0,5	0,199200
24,591833	0,5	0,210750
24,600167	0,5	0,217150
24,608500	0,5	0,225900
24,616833	0,5	0,219250
24,625167	0,5	0,225800
24,633500	0,5	0,230100
24,641833	0,5	0,241700
24,650167	0,5	0,243200
24,658500	0,5	0,254700
24,666833	0,5	0,250800
24,675167	0,5	0,260600
24,683500	0,5	0,267650
24,691833	0,5	0,268950
24,700167	0,5	0,263100
24,708500	0,5	0,240700
24,716833	0,5	0,253400
24,725167	0,5	0,259200
24,733500	0,5	0,276450
24,741833	0,5	0,286550
24,750167	0,5	0,285750
24,758500	0,5	0,288200
24,766833	0,5	0,283750
24,775167	0,5	0,294900
24,783500	0,5	0,299950
24,791833	0,5	0,298800
24,800167	0,5	0,306700
24,808500	0,5	0,307500
24,816833	0,5	0,317250
24,825167	0,5	0,322550
24,833500	0,5	0,326250
24,841833	0,5	0,327150
24,850167	0,5	0,314600
24,858500	0,5	0,311300
24,866833	0,5	0,318500
24,875167	0,5	0,324750
24,883500	0,5	0,337200
24,891833	0,5	0,338850
24,900167	0,5	0,339150
24,908500	0,5	0,332850
24,916833	0,5	0,331100
24,925167	0,5	0,334000
24,933500	0,5	0,338850
24,941833	0,5	0,340900
24,950167	0,5	0,340500
24,958500	0,5	0,346600
24,966833	0,5	0,352100
24,975167	0,5	0,354300
24,983500	0,5	0,355050
24,991833	0,5	0,358200
25,000167	0,5	0,344350
25,008500	0,5	0,357050
25,016833	0,5	0,357900
25,025167	0,5	0,366550
25,033500	0,5	0,370600
25,041833	0,5	0,369150
25,050167	0,5	0,368500
25,058500	0,5	0,362300
25,066833	0,5	0,365650
25,075167	0,5	0,367900
25,083500	0,5	0,366400
25,091833	0,5	0,365500
25,100167	0,5	0,365200
25,108500	0,5	0,368450
25,116833	0,5	0,368350
25,125167	0,5	0,367350
25,133500	0,5	0,370900
25,141833	0,5	0,371600
25,150167	0,5	0,367250
25,158500	0,5	0,369200
25,166833	0,5	0,373900
25,175167	0,5	0,375500
25,183500	0,5	0,378550
25,191833	0,5	0,379100
25,200167	0,5	0,378900
25,208500	0,5	0,377950
25,216833	0,5	0,378100
25,225167	0,5	0,378050
25,233500	0,5	0,377700
25,241833	0,5	0,376900
25,250167	0,5	0,376200
25,258500	0,5	0,374150
25,266833	0,5	0,377200
25,275167	0,5	0,375650
25,283500	0,5	0,374850
25,291833	0,5	0,371900
25,300167	0,5	0,370950
25,308500	0,5	0,373700
25,316833	0,5	0,374100
25,325167	0,5	0,372550
25,333500	0,5	0,373150
25,341833	0,5	0,374500
25,350167	0,5	0,373550
25,358500	0,5	0,373050
25,366833	0,5	0,374450
25,375167	0,5	0,373300
25,383500	0,5	0,374250
25,391833	0,5	0,373400
25,400167	0,5	0,373150
25,408500	0,5	0,371900
25,416833	0,5	0,370700
25,425167	0,5	0,372450
25,433500	0,5	0,368250
25,441833	0,5	0,367900
25,450167	0,5	0,368500
25,458500	0,5	0,369900
25,466833	0,5	0,364700
25,475167	0,5	0,363900
25,483500	0,5	0,363800
25,491833	0,5	0,364500
25,500167	0,5	0,361800
25,508500	0,5	0,364150
25,516833	0,5	0,360350
25,525167	0,5	0,363300
25,533500	0,5	0,361950
25,541833	0,5	0,365200
25,550167	0,5	0,363000
25,558500	0,5	0,362100
25,566833	0,5	0,359200
25,575167	0,5	0,363450
25,583500	0,5	0,359650
25,591833	0,5	0,359500
25,600167	0,5	0,360200
25,608500	0,5	0,364200
25,616833	0,5	0,356900
25,625167	0,5	0,355300
25,633500	0,5	0,353900
25,641833	0,5	0,351500
25,650167	0,5	0,356850
25,658500	0,5	0,350400
25,666833	0,5	0,350450
25,675167	0,5	0,351050
25,683500	0,5	0,349200
25,691833	0,5	0,348200
25,700167	0,5	0,348350
25,708500	0,5	0,345550
25,716833	0,5	0,345650
25,725167	0,5	0,346150
25,733500	0,5	0,348150
25,741833	0,5	0,346250
25,750167	0,5	0,349600
25,758500	0,5	0,349950
25,766833	0,5	0,343050
25,775167	0,5	0,341600
25,783500	0,5	0,343950
25,791833	0,5	0,343450
25,800167	0,5	0,347650
25,808500	0,5	0,343000
25,816833	0,5	0,338600
25,825167	0,5	0,340350
25,833500	0,5	0,337250
25,841833	0,5	0,338250
25,850167	0,5	0,335200
25,858500	0,5	0,336250
25,866833	0,5	0,333650
25,875167	0,5	0,335650
25,883500	0,5	0,339250
25,891833	0,5	0,335300
25,900167	0,5	0,338200
25,908500	0,5	0,334100
25,916833	0,5	0,334000
25,925167	0,5	0,331050
25,933500	0,5	0,332400
25,941833	0,5	0,337550
25,950167	0,5	0,342250
25,958500	0,5	0,339350
25,966833	0,5	0,338300
25,975167	0,5	0,340550
25,983500	0,5	0,337850
25,991833	0,5	0,337250
26,000167	0,5	0,334300
