File Path	chrom://chromeleon01/ikbm_chromeleon/2022/ICS-5000/ED1/Esteban/20220612_Cell_7_4_eg.seq/457.smp/ED_1.channel/ED_1.chm
Channel	ED_1

Injection Information:
Data Vault	ikbm_chromeleon
Injection	7_24h-NT-pH6_2
Injection Number	16
Position	RB3
Comment	
Processing Method	Stop sequence after Cell Death
Instrument Method	ICS5000_PA200_FullNative_Ox_26min_ED1
Type	Unknown
Status	Finished
Injection Date	12.06.2022
Injection Time	23:10:26
Injection Volume (µl)	5,0
Dilution Factor	1,0000
Weight	1,0000

Chromatogram Data Information:
Time Min. (min)	0,000333
Time Max. (min)	26,000333
Data Points	3121
Detector	EDet1
Generating Data System	Chromeleon 7.2.9.11323
Exporting Data System	Chromeleon 7.2.9.0
Operator	Instrument Controller
Signal Quantity	
Signal Unit	nC
Signal Min.	-1,532200
Signal Max.	435,510206
Channel	ED_1
Driver Name	DC-5000
Channel Type	Evaluation
Min. Step (s)	0,5
Max. Step (s)	0,5
Average Step (s)	0,5

Signal Parameter Information:
Signal Info	

Chromatogram Data:
Time (min)	Step (s)	Value (nC)
0,000333	n.a.	-0,040100
0,008667	0,5	-0,040600
0,017000	0,5	-0,032600
0,025333	0,5	-0,025150
0,033667	0,5	-0,022100
0,042000	0,5	-0,017750
0,050333	0,5	-0,013450
0,058667	0,5	-0,023500
0,067000	0,5	-0,003200
0,075333	0,5	-0,015050
0,083667	0,5	-0,019850
0,092000	0,5	-0,016100
0,100333	0,5	-0,001250
0,108667	0,5	0,012800
0,117000	0,5	0,017850
0,125333	0,5	0,010700
0,133667	0,5	0,017000
0,142000	0,5	0,014050
0,150333	0,5	0,017350
0,158667	0,5	0,004250
0,167000	0,5	0,011900
0,175333	0,5	0,005250
0,183667	0,5	0,013150
0,192000	0,5	0,009900
0,200333	0,5	-0,003000
0,208667	0,5	-0,003350
0,217000	0,5	0,014200
0,225333	0,5	-0,004800
0,233667	0,5	0,001550
0,242000	0,5	-0,003050
0,250333	0,5	0,011750
0,258667	0,5	0,030500
0,267000	0,5	0,030600
0,275333	0,5	0,027350
0,283667	0,5	0,028950
0,292000	0,5	0,045900
0,300333	0,5	0,061700
0,308667	0,5	0,057200
0,317000	0,5	0,028050
0,325333	0,5	0,015800
0,333667	0,5	0,008500
0,342000	0,5	0,005950
0,350333	0,5	-0,000350
0,358667	0,5	0,011200
0,367000	0,5	0,007700
0,375333	0,5	0,004450
0,383667	0,5	0,004600
0,392000	0,5	0,006000
0,400333	0,5	0,019450
0,408667	0,5	0,030700
0,417000	0,5	0,033300
0,425333	0,5	0,031200
0,433667	0,5	0,033950
0,442000	0,5	0,033550
0,450333	0,5	0,030900
0,458667	0,5	0,029700
0,467000	0,5	0,027950
0,475333	0,5	0,026650
0,483667	0,5	0,029000
0,492000	0,5	0,020800
0,500333	0,5	0,022200
0,508667	0,5	0,035700
0,517000	0,5	0,028950
0,525333	0,5	0,017900
0,533667	0,5	0,025650
0,542000	0,5	0,027400
0,550333	0,5	0,054000
0,558667	0,5	0,052200
0,567000	0,5	0,057350
0,575333	0,5	0,052750
0,583667	0,5	0,056600
0,592000	0,5	0,052550
0,600333	0,5	0,050350
0,608667	0,5	0,051700
0,617000	0,5	0,047100
0,625333	0,5	0,055200
0,633667	0,5	0,054050
0,642000	0,5	0,057750
0,650333	0,5	0,052600
0,658667	0,5	0,076600
0,667000	0,5	0,056850
0,675333	0,5	0,055050
0,683667	0,5	0,052550
0,692000	0,5	0,063500
0,700333	0,5	0,081100
0,708667	0,5	0,076900
0,717000	0,5	0,069550
0,725333	0,5	0,078750
0,733667	0,5	0,077350
0,742000	0,5	0,084550
0,750333	0,5	0,083400
0,758667	0,5	0,087100
0,767000	0,5	0,085900
0,775333	0,5	0,086650
0,783667	0,5	0,089550
0,792000	0,5	0,082100
0,800333	0,5	0,088900
0,808667	0,5	0,098650
0,817000	0,5	0,086150
0,825333	0,5	0,081350
0,833667	0,5	0,091600
0,842000	0,5	0,097500
0,850333	0,5	0,117200
0,858667	0,5	0,108400
0,867000	0,5	0,114650
0,875333	0,5	0,111050
0,883667	0,5	0,120350
0,892000	0,5	0,111950
0,900333	0,5	0,113100
0,908667	0,5	0,112050
0,917000	0,5	0,116750
0,925333	0,5	0,118300
0,933667	0,5	0,120600
0,942000	0,5	0,112750
0,950333	0,5	0,128650
0,958667	0,5	0,125400
0,967000	0,5	0,113850
0,975333	0,5	0,116000
0,983667	0,5	0,123450
0,992000	0,5	0,144050
1,000333	0,5	0,147350
1,008667	0,5	0,147950
1,017000	0,5	0,137900
1,025333	0,5	0,146150
1,033667	0,5	0,143900
1,042000	0,5	0,154300
1,050333	0,5	0,152250
1,058667	0,5	0,149650
1,067000	0,5	0,148750
1,075333	0,5	0,147550
1,083667	0,5	0,147700
1,092000	0,5	0,146250
1,100333	0,5	0,157400
1,108667	0,5	0,144800
1,117000	0,5	0,139700
1,125333	0,5	0,141400
1,133667	0,5	0,147500
1,142000	0,5	0,167750
1,150333	0,5	0,172700
1,158667	0,5	0,164400
1,167000	0,5	0,164750
1,175333	0,5	0,162700
1,183667	0,5	0,165600
1,192000	0,5	0,158300
1,200333	0,5	0,157100
1,208667	0,5	0,150450
1,217000	0,5	0,154700
1,225333	0,5	0,152900
1,233667	0,5	0,157950
1,242000	0,5	0,155200
1,250333	0,5	0,161700
1,258667	0,5	0,140150
1,267000	0,5	0,141650
1,275333	0,5	0,138100
1,283667	0,5	0,146900
1,292000	0,5	0,156600
1,300333	0,5	0,154900
1,308667	0,5	0,150750
1,317000	0,5	0,148000
1,325333	0,5	0,143650
1,333667	0,5	0,143650
1,342000	0,5	0,140100
1,350333	0,5	0,131550
1,358667	0,5	0,131700
1,367000	0,5	0,124350
1,375333	0,5	0,126700
1,383667	0,5	0,111500
1,392000	0,5	0,122700
1,400333	0,5	0,112050
1,408667	0,5	0,097750
1,417000	0,5	0,093950
1,425333	0,5	0,097950
1,433667	0,5	0,109950
1,442000	0,5	0,109450
1,450333	0,5	0,107100
1,458667	0,5	0,108350
1,467000	0,5	0,107900
1,475333	0,5	0,107550
1,483667	0,5	0,102400
1,492000	0,5	0,096900
1,500333	0,5	0,091200
1,508667	0,5	0,085350
1,517000	0,5	0,083650
1,525333	0,5	0,070800
1,533667	0,5	0,062400
1,542000	0,5	0,075650
1,550333	0,5	0,067700
1,558667	0,5	0,067350
1,567000	0,5	0,064800
1,575333	0,5	-0,016950
1,583667	0,5	0,176300
1,592000	0,5	2,598650
1,600333	0,5	13,146850
1,608667	0,5	47,207801
1,617000	0,5	131,079602
1,625333	0,5	265,138854
1,633667	0,5	389,401606
1,642000	0,5	435,510206
1,650333	0,5	394,169056
1,658667	0,5	308,712005
1,667000	0,5	224,100353
1,675333	0,5	159,647152
1,683667	0,5	116,123452
1,692000	0,5	88,628451
1,700333	0,5	72,125101
1,708667	0,5	62,129901
1,717000	0,5	54,769901
1,725333	0,5	48,466301
1,733667	0,5	44,048351
1,742000	0,5	43,204151
1,750333	0,5	46,776101
1,758667	0,5	53,188501
1,767000	0,5	59,056951
1,775333	0,5	61,720001
1,783667	0,5	60,438651
1,792000	0,5	56,201351
1,800333	0,5	50,738201
1,808667	0,5	45,546201
1,817000	0,5	41,277051
1,825333	0,5	38,008301
1,833667	0,5	35,824201
1,842000	0,5	34,787751
1,850333	0,5	34,490101
1,858667	0,5	34,132201
1,867000	0,5	33,315100
1,875333	0,5	32,714550
1,883667	0,5	33,599151
1,892000	0,5	37,507051
1,900333	0,5	46,317551
1,908667	0,5	59,533601
1,917000	0,5	71,873201
1,925333	0,5	77,237051
1,933667	0,5	74,524451
1,942000	0,5	66,460051
1,950333	0,5	56,803351
1,958667	0,5	48,538551
1,967000	0,5	42,825801
1,975333	0,5	39,233651
1,983667	0,5	37,268001
1,992000	0,5	36,950651
2,000333	0,5	37,595001
2,008667	0,5	37,063551
2,017000	0,5	34,489351
2,025333	0,5	31,212450
2,033667	0,5	28,557550
2,042000	0,5	27,130650
2,050333	0,5	27,689800
2,058667	0,5	30,910800
2,067000	0,5	35,163701
2,075333	0,5	36,559351
2,083667	0,5	33,748801
2,092000	0,5	29,273950
2,100333	0,5	25,475700
2,108667	0,5	22,842950
2,117000	0,5	21,058950
2,125333	0,5	19,838450
2,133667	0,5	18,919700
2,142000	0,5	18,135950
2,150333	0,5	17,529050
2,158667	0,5	17,173100
2,167000	0,5	17,077350
2,175333	0,5	17,447200
2,183667	0,5	19,000850
2,192000	0,5	22,893600
2,200333	0,5	24,933300
2,208667	0,5	21,941900
2,217000	0,5	18,062950
2,225333	0,5	16,030300
2,233667	0,5	15,173700
2,242000	0,5	14,808100
2,250333	0,5	14,710400
2,258667	0,5	14,817950
2,267000	0,5	15,193100
2,275333	0,5	16,070700
2,283667	0,5	17,923300
2,292000	0,5	21,143400
2,300333	0,5	25,401450
2,308667	0,5	29,213350
2,317000	0,5	31,109500
2,325333	0,5	30,662100
2,333667	0,5	28,666150
2,342000	0,5	26,413150
2,350333	0,5	25,061250
2,358667	0,5	25,442250
2,367000	0,5	28,534900
2,375333	0,5	35,975251
2,383667	0,5	49,516251
2,392000	0,5	68,415951
2,400333	0,5	86,723101
2,408667	0,5	95,833901
2,417000	0,5	91,978501
2,425333	0,5	79,183751
2,433667	0,5	64,552551
2,442000	0,5	53,489251
2,450333	0,5	48,526901
2,458667	0,5	49,940251
2,467000	0,5	55,308701
2,475333	0,5	60,081001
2,483667	0,5	60,669301
2,492000	0,5	56,661551
2,500333	0,5	49,794301
2,508667	0,5	42,116401
2,517000	0,5	34,983801
2,525333	0,5	29,135850
2,533667	0,5	24,781750
2,542000	0,5	21,794400
2,550333	0,5	19,875300
2,558667	0,5	18,694950
2,567000	0,5	18,093600
2,575333	0,5	18,067100
2,583667	0,5	18,679350
2,592000	0,5	20,004550
2,600333	0,5	21,688200
2,608667	0,5	22,943200
2,617000	0,5	23,075550
2,625333	0,5	21,924050
2,633667	0,5	20,057700
2,642000	0,5	18,147000
2,650333	0,5	16,657400
2,658667	0,5	15,689100
2,667000	0,5	15,226950
2,675333	0,5	15,200550
2,683667	0,5	15,736250
2,692000	0,5	17,229000
2,700333	0,5	20,251850
2,708667	0,5	24,920400
2,717000	0,5	30,079950
2,725333	0,5	33,561251
2,733667	0,5	33,830901
2,742000	0,5	31,094500
2,750333	0,5	26,720150
2,758667	0,5	22,229100
2,767000	0,5	18,570600
2,775333	0,5	15,953950
2,783667	0,5	14,193450
2,792000	0,5	13,014100
2,800333	0,5	12,173900
2,808667	0,5	11,567200
2,817000	0,5	11,106950
2,825333	0,5	10,766900
2,833667	0,5	10,509500
2,842000	0,5	10,309300
2,850333	0,5	10,137900
2,858667	0,5	9,960450
2,867000	0,5	9,801150
2,875333	0,5	9,686950
2,883667	0,5	9,596950
2,892000	0,5	9,542600
2,900333	0,5	9,459850
2,908667	0,5	9,321050
2,917000	0,5	9,127050
2,925333	0,5	8,889750
2,933667	0,5	8,658250
2,942000	0,5	8,432850
2,950333	0,5	8,225050
2,958667	0,5	8,018850
2,967000	0,5	7,867650
2,975333	0,5	7,780800
2,983667	0,5	7,782400
2,992000	0,5	7,847150
3,000333	0,5	7,956700
3,008667	0,5	8,061300
3,017000	0,5	8,163250
3,025333	0,5	8,184500
3,033667	0,5	8,138250
3,042000	0,5	8,027400
3,050333	0,5	7,904800
3,058667	0,5	7,785050
3,067000	0,5	7,711550
3,075333	0,5	7,690600
3,083667	0,5	7,683400
3,092000	0,5	7,623300
3,100333	0,5	7,495500
3,108667	0,5	7,330450
3,117000	0,5	7,133400
3,125333	0,5	6,943700
3,133667	0,5	6,751450
3,142000	0,5	6,584400
3,150333	0,5	6,414150
3,158667	0,5	6,280200
3,167000	0,5	6,173900
3,175333	0,5	6,072400
3,183667	0,5	5,982550
3,192000	0,5	5,899850
3,200333	0,5	5,812350
3,208667	0,5	5,725950
3,217000	0,5	5,622750
3,225333	0,5	5,524550
3,233667	0,5	5,435700
3,242000	0,5	5,364850
3,250333	0,5	5,302150
3,258667	0,5	5,253950
3,267000	0,5	5,218200
3,275333	0,5	5,198200
3,283667	0,5	5,187100
3,292000	0,5	5,185650
3,300333	0,5	5,211200
3,308667	0,5	5,265850
3,317000	0,5	5,366950
3,325333	0,5	5,530300
3,333667	0,5	5,825700
3,342000	0,5	6,276150
3,350333	0,5	6,938850
3,358667	0,5	7,777500
3,367000	0,5	8,728950
3,375333	0,5	9,660250
3,383667	0,5	10,456950
3,392000	0,5	11,034100
3,400333	0,5	11,420150
3,408667	0,5	11,741750
3,417000	0,5	12,181600
3,425333	0,5	12,852000
3,433667	0,5	13,729700
3,442000	0,5	14,603750
3,450333	0,5	15,157000
3,458667	0,5	15,153400
3,467000	0,5	14,454650
3,475333	0,5	13,172200
3,483667	0,5	11,575450
3,492000	0,5	9,943850
3,500333	0,5	8,510100
3,508667	0,5	7,376850
3,517000	0,5	6,548250
3,525333	0,5	6,006950
3,533667	0,5	5,648200
3,542000	0,5	5,408650
3,550333	0,5	5,230800
3,558667	0,5	5,098500
3,567000	0,5	4,984000
3,575333	0,5	4,899900
3,583667	0,5	4,844100
3,592000	0,5	4,810150
3,600333	0,5	4,799850
3,608667	0,5	4,824450
3,617000	0,5	4,825000
3,625333	0,5	4,828500
3,633667	0,5	4,814250
3,642000	0,5	4,776350
3,650333	0,5	4,726650
3,658667	0,5	4,642000
3,667000	0,5	4,557150
3,675333	0,5	4,470600
3,683667	0,5	4,396450
3,692000	0,5	4,319500
3,700333	0,5	4,254400
3,708667	0,5	4,185650
3,717000	0,5	4,129700
3,725333	0,5	4,077600
3,733667	0,5	4,036500
3,742000	0,5	3,995350
3,750333	0,5	3,988600
3,758667	0,5	4,014500
3,767000	0,5	4,062550
3,775333	0,5	4,158950
3,783667	0,5	4,291500
3,792000	0,5	4,434150
3,800333	0,5	4,566600
3,808667	0,5	4,633000
3,817000	0,5	4,631900
3,825333	0,5	4,557150
3,833667	0,5	4,421850
3,842000	0,5	4,248700
3,850333	0,5	4,072950
3,858667	0,5	3,913250
3,867000	0,5	3,777250
3,875333	0,5	3,681600
3,883667	0,5	3,608700
3,892000	0,5	3,561650
3,900333	0,5	3,545350
3,908667	0,5	3,546050
3,917000	0,5	3,547450
3,925333	0,5	3,571300
3,933667	0,5	3,597450
3,942000	0,5	3,630550
3,950333	0,5	3,661750
3,958667	0,5	3,678650
3,967000	0,5	3,692100
3,975333	0,5	3,708150
3,983667	0,5	3,715350
3,992000	0,5	3,716550
4,000333	0,5	3,715550
4,008667	0,5	3,708050
4,017000	0,5	3,702500
4,025333	0,5	3,686700
4,033667	0,5	3,672700
4,042000	0,5	3,654900
4,050333	0,5	3,657600
4,058667	0,5	3,653550
4,067000	0,5	3,668650
4,075333	0,5	3,697100
4,083667	0,5	3,755000
4,092000	0,5	3,836100
4,100333	0,5	3,936050
4,108667	0,5	4,040850
4,117000	0,5	4,158700
4,125333	0,5	4,254050
4,133667	0,5	4,326700
4,142000	0,5	4,349200
4,150333	0,5	4,328550
4,158667	0,5	4,262500
4,167000	0,5	4,163500
4,175333	0,5	4,055300
4,183667	0,5	3,928400
4,192000	0,5	3,833200
4,200333	0,5	3,760300
4,208667	0,5	3,696900
4,217000	0,5	3,650850
4,225333	0,5	3,621650
4,233667	0,5	3,610200
4,242000	0,5	3,606500
4,250333	0,5	3,585900
4,258667	0,5	3,570800
4,267000	0,5	3,548300
4,275333	0,5	3,532650
4,283667	0,5	3,503850
4,292000	0,5	3,483900
4,300333	0,5	3,455550
4,308667	0,5	3,420800
4,317000	0,5	3,383050
4,325333	0,5	3,329500
4,333667	0,5	3,268350
4,342000	0,5	3,212800
4,350333	0,5	3,149200
4,358667	0,5	3,079750
4,367000	0,5	3,021550
4,375333	0,5	2,972500
4,383667	0,5	2,932600
4,392000	0,5	2,892400
4,400333	0,5	2,859100
4,408667	0,5	2,813350
4,417000	0,5	2,778500
4,425333	0,5	2,735300
4,433667	0,5	2,700000
4,442000	0,5	2,660100
4,450333	0,5	2,630950
4,458667	0,5	2,596150
4,467000	0,5	2,567650
4,475333	0,5	2,527300
4,483667	0,5	2,488100
4,492000	0,5	2,464550
4,500333	0,5	2,429500
4,508667	0,5	2,393750
4,517000	0,5	2,366700
4,525333	0,5	2,346600
4,533667	0,5	2,338950
4,542000	0,5	2,324650
4,550333	0,5	2,310950
4,558667	0,5	2,303950
4,567000	0,5	2,295950
4,575333	0,5	2,290850
4,583667	0,5	2,280400
4,592000	0,5	2,274300
4,600333	0,5	2,266800
4,608667	0,5	2,262050
4,617000	0,5	2,251200
4,625333	0,5	2,240850
4,633667	0,5	2,232600
4,642000	0,5	2,245450
4,650333	0,5	2,234300
4,658667	0,5	2,240650
4,667000	0,5	2,253250
4,675333	0,5	2,282350
4,683667	0,5	2,339150
4,692000	0,5	2,396700
4,700333	0,5	2,484750
4,708667	0,5	2,598400
4,717000	0,5	2,731650
4,725333	0,5	2,879050
4,733667	0,5	3,034050
4,742000	0,5	3,176950
4,750333	0,5	3,294950
4,758667	0,5	3,362400
4,767000	0,5	3,389600
4,775333	0,5	3,342450
4,783667	0,5	3,253150
4,792000	0,5	3,133250
4,800333	0,5	2,967900
4,808667	0,5	2,804800
4,817000	0,5	2,650950
4,825333	0,5	2,515800
4,833667	0,5	2,416950
4,842000	0,5	2,315950
4,850333	0,5	2,249950
4,858667	0,5	2,203800
4,867000	0,5	2,175050
4,875333	0,5	2,155500
4,883667	0,5	2,158050
4,892000	0,5	2,167950
4,900333	0,5	2,180250
4,908667	0,5	2,207450
4,917000	0,5	2,234800
4,925333	0,5	2,262900
4,933667	0,5	2,290600
4,942000	0,5	2,305500
4,950333	0,5	2,296750
4,958667	0,5	2,285150
4,967000	0,5	2,256100
4,975333	0,5	2,227850
4,983667	0,5	2,181450
4,992000	0,5	2,132900
5,000333	0,5	2,079750
5,008667	0,5	2,037850
5,017000	0,5	1,994500
5,025333	0,5	1,962800
5,033667	0,5	1,933350
5,042000	0,5	1,910900
5,050333	0,5	1,890950
5,058667	0,5	1,876900
5,067000	0,5	1,869150
5,075333	0,5	1,855400
5,083667	0,5	1,847400
5,092000	0,5	1,833750
5,100333	0,5	1,818800
5,108667	0,5	1,809150
5,117000	0,5	1,805250
5,125333	0,5	1,806000
5,133667	0,5	1,807500
5,142000	0,5	1,799900
5,150333	0,5	1,799350
5,158667	0,5	1,796150
5,167000	0,5	1,803500
5,175333	0,5	1,810300
5,183667	0,5	1,825800
5,192000	0,5	1,835500
5,200333	0,5	1,854500
5,208667	0,5	1,865700
5,217000	0,5	1,877300
5,225333	0,5	1,891300
5,233667	0,5	1,902450
5,242000	0,5	1,900200
5,250333	0,5	1,901250
5,258667	0,5	1,906350
5,267000	0,5	1,919700
5,275333	0,5	1,943450
5,283667	0,5	1,968850
5,292000	0,5	2,002800
5,300333	0,5	2,048850
5,308667	0,5	2,112950
5,317000	0,5	2,182550
5,325333	0,5	2,276300
5,333667	0,5	2,376950
5,342000	0,5	2,494400
5,350333	0,5	2,622250
5,358667	0,5	2,763450
5,367000	0,5	2,908150
5,375333	0,5	3,073550
5,383667	0,5	3,225050
5,392000	0,5	3,367700
5,400333	0,5	3,496000
5,408667	0,5	3,606400
5,417000	0,5	3,695000
5,425333	0,5	3,743550
5,433667	0,5	3,743700
5,442000	0,5	3,699700
5,450333	0,5	3,613150
5,458667	0,5	3,481650
5,467000	0,5	3,318950
5,475333	0,5	3,131950
5,483667	0,5	2,939600
5,492000	0,5	2,748450
5,500333	0,5	2,569200
5,508667	0,5	2,409500
5,517000	0,5	2,283500
5,525333	0,5	2,197250
5,533667	0,5	2,137750
5,542000	0,5	2,111300
5,550333	0,5	2,125450
5,558667	0,5	2,158500
5,567000	0,5	2,216300
5,575333	0,5	2,264000
5,583667	0,5	2,297750
5,592000	0,5	2,309200
5,600333	0,5	2,305950
5,608667	0,5	2,283750
5,617000	0,5	2,246900
5,625333	0,5	2,209400
5,633667	0,5	2,178550
5,642000	0,5	2,163250
5,650333	0,5	2,162100
5,658667	0,5	2,181450
5,667000	0,5	2,209500
5,675333	0,5	2,260650
5,683667	0,5	2,292900
5,692000	0,5	2,327800
5,700333	0,5	2,351150
5,708667	0,5	2,362050
5,717000	0,5	2,357250
5,725333	0,5	2,324550
5,733667	0,5	2,273900
5,742000	0,5	2,220050
5,750333	0,5	2,154800
5,758667	0,5	2,097350
5,767000	0,5	2,040550
5,775333	0,5	1,990650
5,783667	0,5	1,951700
5,792000	0,5	1,911550
5,800333	0,5	1,882000
5,808667	0,5	1,841750
5,817000	0,5	1,811750
5,825333	0,5	1,776900
5,833667	0,5	1,731350
5,842000	0,5	1,689050
5,850333	0,5	1,655900
5,858667	0,5	1,623750
5,867000	0,5	1,603400
5,875333	0,5	1,577350
5,883667	0,5	1,559650
5,892000	0,5	1,543300
5,900333	0,5	1,537550
5,908667	0,5	1,532250
5,917000	0,5	1,535250
5,925333	0,5	1,534850
5,933667	0,5	1,541800
5,942000	0,5	1,551200
5,950333	0,5	1,554350
5,958667	0,5	1,561200
5,967000	0,5	1,566500
5,975333	0,5	1,564900
5,983667	0,5	1,555900
5,992000	0,5	1,544850
6,000333	0,5	1,530600
6,008667	0,5	1,520350
6,017000	0,5	1,500900
6,025333	0,5	1,481950
6,033667	0,5	1,461200
6,042000	0,5	1,449150
6,050333	0,5	1,439150
6,058667	0,5	1,436150
6,067000	0,5	1,431450
6,075333	0,5	1,435750
6,083667	0,5	1,443350
6,092000	0,5	1,450550
6,100333	0,5	1,464350
6,108667	0,5	1,482400
6,117000	0,5	1,502950
6,125333	0,5	1,523900
6,133667	0,5	1,560450
6,142000	0,5	1,622200
6,150333	0,5	1,717900
6,158667	0,5	1,849850
6,167000	0,5	2,014750
6,175333	0,5	2,174350
6,183667	0,5	2,314600
6,192000	0,5	2,394450
6,200333	0,5	2,403200
6,208667	0,5	2,341750
6,217000	0,5	2,243150
6,225333	0,5	2,121050
6,233667	0,5	2,010550
6,242000	0,5	1,922200
6,250333	0,5	1,852600
6,258667	0,5	1,802200
6,267000	0,5	1,769150
6,275333	0,5	1,743950
6,283667	0,5	1,744000
6,292000	0,5	1,782050
6,300333	0,5	1,875150
6,308667	0,5	2,018550
6,317000	0,5	2,189700
6,325333	0,5	2,372400
6,333667	0,5	2,525400
6,342000	0,5	2,628400
6,350333	0,5	2,652300
6,358667	0,5	2,609900
6,367000	0,5	2,507300
6,375333	0,5	2,382950
6,383667	0,5	2,245750
6,392000	0,5	2,128150
6,400333	0,5	2,043000
6,408667	0,5	2,013450
6,417000	0,5	2,021100
6,425333	0,5	2,089650
6,433667	0,5	2,229900
6,442000	0,5	2,425700
6,450333	0,5	2,515000
6,458667	0,5	2,477200
6,467000	0,5	2,344300
6,475333	0,5	2,153050
6,483667	0,5	1,973250
6,492000	0,5	1,838150
6,500333	0,5	1,735950
6,508667	0,5	1,662800
6,517000	0,5	1,617900
6,525333	0,5	1,590950
6,533667	0,5	1,578850
6,542000	0,5	1,563700
6,550333	0,5	1,552650
6,558667	0,5	1,553450
6,567000	0,5	1,540500
6,575333	0,5	1,532450
6,583667	0,5	1,530100
6,592000	0,5	1,527500
6,600333	0,5	1,534000
6,608667	0,5	1,534100
6,617000	0,5	1,534600
6,625333	0,5	1,534150
6,633667	0,5	1,538950
6,642000	0,5	1,539800
6,650333	0,5	1,544250
6,658667	0,5	1,546950
6,667000	0,5	1,552100
6,675333	0,5	1,555800
6,683667	0,5	1,556100
6,692000	0,5	1,560000
6,700333	0,5	1,562950
6,708667	0,5	1,574750
6,717000	0,5	1,572250
6,725333	0,5	1,578400
6,733667	0,5	1,579050
6,742000	0,5	1,586650
6,750333	0,5	1,594750
6,758667	0,5	1,596700
6,767000	0,5	1,597750
6,775333	0,5	1,604050
6,783667	0,5	1,603750
6,792000	0,5	1,604400
6,800333	0,5	1,605800
6,808667	0,5	1,608550
6,817000	0,5	1,608250
6,825333	0,5	1,611700
6,833667	0,5	1,616050
6,842000	0,5	1,611050
6,850333	0,5	1,621500
6,858667	0,5	1,626850
6,867000	0,5	1,628800
6,875333	0,5	1,635350
6,883667	0,5	1,646850
6,892000	0,5	1,660300
6,900333	0,5	1,681050
6,908667	0,5	1,689600
6,917000	0,5	1,704650
6,925333	0,5	1,717900
6,933667	0,5	1,731900
6,942000	0,5	1,745350
6,950333	0,5	1,760600
6,958667	0,5	1,769950
6,967000	0,5	1,779500
6,975333	0,5	1,787600
6,983667	0,5	1,786850
6,992000	0,5	1,786750
7,000333	0,5	1,788250
7,008667	0,5	1,782750
7,017000	0,5	1,772550
7,025333	0,5	1,765100
7,033667	0,5	1,752200
7,042000	0,5	1,744600
7,050333	0,5	1,725450
7,058667	0,5	1,711300
7,067000	0,5	1,689000
7,075333	0,5	1,672000
7,083667	0,5	1,654350
7,092000	0,5	1,635800
7,100333	0,5	1,623150
7,108667	0,5	1,611950
7,117000	0,5	1,604100
7,125333	0,5	1,601050
7,133667	0,5	1,595300
7,142000	0,5	1,602200
7,150333	0,5	1,610550
7,158667	0,5	1,619400
7,167000	0,5	1,631250
7,175333	0,5	1,644050
7,183667	0,5	1,670600
7,192000	0,5	1,701000
7,200333	0,5	1,734300
7,208667	0,5	1,769850
7,217000	0,5	1,805900
7,225333	0,5	1,848250
7,233667	0,5	1,902700
7,242000	0,5	1,956350
7,250333	0,5	2,028150
7,258667	0,5	2,109750
7,267000	0,5	2,207050
7,275333	0,5	2,320250
7,283667	0,5	2,459200
7,292000	0,5	2,628300
7,300333	0,5	2,833950
7,308667	0,5	3,075050
7,317000	0,5	3,371200
7,325333	0,5	3,718150
7,333667	0,5	4,131400
7,342000	0,5	4,593750
7,350333	0,5	5,100700
7,358667	0,5	5,628750
7,367000	0,5	6,154850
7,375333	0,5	6,642550
7,383667	0,5	7,059650
7,392000	0,5	7,360050
7,400333	0,5	7,518500
7,408667	0,5	7,521450
7,417000	0,5	7,350200
7,425333	0,5	7,025550
7,433667	0,5	6,571800
7,442000	0,5	6,036350
7,450333	0,5	5,445700
7,458667	0,5	4,843250
7,467000	0,5	4,267350
7,475333	0,5	3,751450
7,483667	0,5	3,305450
7,492000	0,5	2,937550
7,500333	0,5	2,642550
7,508667	0,5	2,422000
7,517000	0,5	2,261650
7,525333	0,5	2,151550
7,533667	0,5	2,077750
7,542000	0,5	2,033250
7,550333	0,5	2,009850
7,558667	0,5	2,005300
7,567000	0,5	2,009600
7,575333	0,5	2,019300
7,583667	0,5	2,037000
7,592000	0,5	2,070950
7,600333	0,5	2,110550
7,608667	0,5	2,159650
7,617000	0,5	2,227300
7,625333	0,5	2,301600
7,633667	0,5	2,386400
7,642000	0,5	2,461650
7,650333	0,5	2,525150
7,658667	0,5	2,562800
7,667000	0,5	2,577300
7,675333	0,5	2,559900
7,683667	0,5	2,510900
7,692000	0,5	2,440150
7,700333	0,5	2,353350
7,708667	0,5	2,257050
7,717000	0,5	2,159950
7,725333	0,5	2,061950
7,733667	0,5	1,973600
7,742000	0,5	1,895550
7,750333	0,5	1,828500
7,758667	0,5	1,770750
7,767000	0,5	1,724200
7,775333	0,5	1,692550
7,783667	0,5	1,672300
7,792000	0,5	1,653800
7,800333	0,5	1,637850
7,808667	0,5	1,631750
7,817000	0,5	1,634200
7,825333	0,5	1,631800
7,833667	0,5	1,633050
7,842000	0,5	1,636100
7,850333	0,5	1,638150
7,858667	0,5	1,641450
7,867000	0,5	1,642300
7,875333	0,5	1,641900
7,883667	0,5	1,643000
7,892000	0,5	1,639650
7,900333	0,5	1,633950
7,908667	0,5	1,631200
7,917000	0,5	1,624200
7,925333	0,5	1,613350
7,933667	0,5	1,609700
7,942000	0,5	1,599300
7,950333	0,5	1,589800
7,958667	0,5	1,579250
7,967000	0,5	1,572250
7,975333	0,5	1,570700
7,983667	0,5	1,569600
7,992000	0,5	1,572850
8,000333	0,5	1,580500
8,008667	0,5	1,595300
8,017000	0,5	1,617950
8,025333	0,5	1,660350
8,033667	0,5	1,726550
8,042000	0,5	1,823550
8,050333	0,5	1,943750
8,058667	0,5	2,074850
8,067000	0,5	2,206500
8,075333	0,5	2,321950
8,083667	0,5	2,415350
8,092000	0,5	2,490200
8,100333	0,5	2,573800
8,108667	0,5	2,671000
8,117000	0,5	2,805250
8,125333	0,5	2,981600
8,133667	0,5	3,198500
8,142000	0,5	3,458000
8,150333	0,5	3,753350
8,158667	0,5	4,073800
8,167000	0,5	4,396600
8,175333	0,5	4,706450
8,183667	0,5	4,990200
8,192000	0,5	5,219400
8,200333	0,5	5,396500
8,208667	0,5	5,514300
8,217000	0,5	5,587300
8,225333	0,5	5,616150
8,233667	0,5	5,616200
8,242000	0,5	5,590800
8,250333	0,5	5,538500
8,258667	0,5	5,445100
8,267000	0,5	5,283250
8,275333	0,5	5,035850
8,283667	0,5	4,695450
8,292000	0,5	4,285400
8,300333	0,5	3,838850
8,308667	0,5	3,401900
8,317000	0,5	3,003950
8,325333	0,5	2,671700
8,333667	0,5	2,411300
8,342000	0,5	2,209400
8,350333	0,5	2,063900
8,358667	0,5	1,961600
8,367000	0,5	1,893650
8,375333	0,5	1,858300
8,383667	0,5	1,837150
8,392000	0,5	1,834250
8,400333	0,5	1,854600
8,408667	0,5	1,898200
8,417000	0,5	1,956450
8,425333	0,5	2,024350
8,433667	0,5	2,095900
8,442000	0,5	2,168800
8,450333	0,5	2,232650
8,458667	0,5	2,295300
8,467000	0,5	2,337650
8,475333	0,5	2,365650
8,483667	0,5	2,364050
8,492000	0,5	2,329150
8,500333	0,5	2,249650
8,508667	0,5	2,145150
8,517000	0,5	2,014950
8,525333	0,5	1,889700
8,533667	0,5	1,768000
8,542000	0,5	1,669050
8,550333	0,5	1,594550
8,558667	0,5	1,534950
8,567000	0,5	1,499150
8,575333	0,5	1,478700
8,583667	0,5	1,477000
8,592000	0,5	1,503000
8,600333	0,5	1,556700
8,608667	0,5	1,640950
8,617000	0,5	1,732000
8,625333	0,5	1,814600
8,633667	0,5	1,868700
8,642000	0,5	1,886700
8,650333	0,5	1,875300
8,658667	0,5	1,851100
8,667000	0,5	1,814350
8,675333	0,5	1,774650
8,683667	0,5	1,724500
8,692000	0,5	1,667600
8,700333	0,5	1,610850
8,708667	0,5	1,547900
8,717000	0,5	1,488750
8,725333	0,5	1,435000
8,733667	0,5	1,396500
8,742000	0,5	1,374600
8,750333	0,5	1,364400
8,758667	0,5	1,358900
8,767000	0,5	1,360950
8,775333	0,5	1,354450
8,783667	0,5	1,349750
8,792000	0,5	1,337950
8,800333	0,5	1,318650
8,808667	0,5	1,306700
8,817000	0,5	1,298750
8,825333	0,5	1,305000
8,833667	0,5	1,326850
8,842000	0,5	1,370200
8,850333	0,5	1,436300
8,858667	0,5	1,526200
8,867000	0,5	1,629250
8,875333	0,5	1,720800
8,883667	0,5	1,794600
8,892000	0,5	1,833050
8,900333	0,5	1,829600
8,908667	0,5	1,792300
8,917000	0,5	1,726650
8,925333	0,5	1,652450
8,933667	0,5	1,574550
8,942000	0,5	1,509650
8,950333	0,5	1,461650
8,958667	0,5	1,433100
8,967000	0,5	1,422100
8,975333	0,5	1,433950
8,983667	0,5	1,459950
8,992000	0,5	1,513900
9,000333	0,5	1,594300
9,008667	0,5	1,703500
9,017000	0,5	1,824500
9,025333	0,5	1,931000
9,033667	0,5	1,984800
9,042000	0,5	1,982150
9,050333	0,5	1,921150
9,058667	0,5	1,822550
9,067000	0,5	1,720150
9,075333	0,5	1,628750
9,083667	0,5	1,566950
9,092000	0,5	1,538450
9,100333	0,5	1,551250
9,108667	0,5	1,602700
9,117000	0,5	1,681750
9,125333	0,5	1,762450
9,133667	0,5	1,831850
9,142000	0,5	1,857150
9,150333	0,5	1,838400
9,158667	0,5	1,774100
9,167000	0,5	1,688100
9,175333	0,5	1,587450
9,183667	0,5	1,501000
9,192000	0,5	1,430700
9,200333	0,5	1,378550
9,208667	0,5	1,339800
9,217000	0,5	1,321350
9,225333	0,5	1,305400
9,233667	0,5	1,292650
9,242000	0,5	1,283900
9,250333	0,5	1,272700
9,258667	0,5	1,269250
9,267000	0,5	1,271050
9,275333	0,5	1,272250
9,283667	0,5	1,281850
9,292000	0,5	1,296100
9,300333	0,5	1,320300
9,308667	0,5	1,352550
9,317000	0,5	1,389450
9,325333	0,5	1,438850
9,333667	0,5	1,509100
9,342000	0,5	1,609250
9,350333	0,5	1,741000
9,358667	0,5	1,911300
9,367000	0,5	2,095650
9,375333	0,5	2,254700
9,383667	0,5	2,354400
9,392000	0,5	2,373950
9,400333	0,5	2,316900
9,408667	0,5	2,210900
9,417000	0,5	2,070600
9,425333	0,5	1,920600
9,433667	0,5	1,782450
9,442000	0,5	1,669200
9,450333	0,5	1,581750
9,458667	0,5	1,524250
9,467000	0,5	1,497700
9,475333	0,5	1,503700
9,483667	0,5	1,549350
9,492000	0,5	1,648300
9,500333	0,5	1,821900
9,508667	0,5	2,090900
9,517000	0,5	2,476350
9,525333	0,5	2,955850
9,533667	0,5	3,477700
9,542000	0,5	3,960800
9,550333	0,5	4,312000
9,558667	0,5	4,473050
9,567000	0,5	4,438700
9,575333	0,5	4,233400
9,583667	0,5	3,925050
9,592000	0,5	3,563650
9,600333	0,5	3,195650
9,608667	0,5	2,841750
9,617000	0,5	2,520750
9,625333	0,5	2,243350
9,633667	0,5	2,024300
9,642000	0,5	1,866900
9,650333	0,5	1,773400
9,658667	0,5	1,731800
9,667000	0,5	1,740100
9,675333	0,5	1,775050
9,683667	0,5	1,826450
9,692000	0,5	1,897650
9,700333	0,5	2,000900
9,708667	0,5	2,148650
9,717000	0,5	2,354600
9,725333	0,5	2,617800
9,733667	0,5	2,936050
9,742000	0,5	3,276850
9,750333	0,5	3,596300
9,758667	0,5	3,855450
9,767000	0,5	4,007700
9,775333	0,5	4,029950
9,783667	0,5	3,928900
9,792000	0,5	3,715500
9,800333	0,5	3,435700
9,808667	0,5	3,127750
9,817000	0,5	2,818250
9,825333	0,5	2,528750
9,833667	0,5	2,275300
9,842000	0,5	2,060400
9,850333	0,5	1,889600
9,858667	0,5	1,762650
9,867000	0,5	1,676550
9,875333	0,5	1,614400
9,883667	0,5	1,588150
9,892000	0,5	1,572300
9,900333	0,5	1,567300
9,908667	0,5	1,571600
9,917000	0,5	1,582450
9,925333	0,5	1,604450
9,933667	0,5	1,640850
9,942000	0,5	1,685350
9,950333	0,5	1,724600
9,958667	0,5	1,761550
9,967000	0,5	1,771150
9,975333	0,5	1,749450
9,983667	0,5	1,706350
9,992000	0,5	1,649850
10,000333	0,5	1,593850
10,008667	0,5	1,549850
10,017000	0,5	1,521550
10,025333	0,5	1,528300
10,033667	0,5	1,574150
10,042000	0,5	1,667350
10,050333	0,5	1,797350
10,058667	0,5	1,953200
10,067000	0,5	2,094250
10,075333	0,5	2,195850
10,083667	0,5	2,229300
10,092000	0,5	2,194350
10,100333	0,5	2,109250
10,108667	0,5	1,999850
10,117000	0,5	1,870650
10,125333	0,5	1,761300
10,133667	0,5	1,666500
10,142000	0,5	1,604450
10,150333	0,5	1,566600
10,158667	0,5	1,554450
10,167000	0,5	1,559800
10,175333	0,5	1,576650
10,183667	0,5	1,608850
10,192000	0,5	1,652200
10,200333	0,5	1,709650
10,208667	0,5	1,777950
10,217000	0,5	1,852200
10,225333	0,5	1,935050
10,233667	0,5	2,017850
10,242000	0,5	2,101750
10,250333	0,5	2,204450
10,258667	0,5	2,332500
10,267000	0,5	2,489850
10,275333	0,5	2,659600
10,283667	0,5	2,792300
10,292000	0,5	2,833400
10,300333	0,5	2,778800
10,308667	0,5	2,655000
10,317000	0,5	2,499450
10,325333	0,5	2,355100
10,333667	0,5	2,270850
10,342000	0,5	2,264600
10,350333	0,5	2,382550
10,358667	0,5	2,712950
10,367000	0,5	3,517250
10,375333	0,5	4,866100
10,383667	0,5	6,018150
10,392000	0,5	6,287300
10,400333	0,5	5,769900
10,408667	0,5	4,718550
10,417000	0,5	3,438850
10,425333	0,5	2,346950
10,433667	0,5	1,550500
10,442000	0,5	1,075800
10,450333	0,5	0,796000
10,458667	0,5	0,628300
10,467000	0,5	0,518000
10,475333	0,5	0,441450
10,483667	0,5	0,389300
10,492000	0,5	0,349550
10,500333	0,5	0,315550
10,508667	0,5	0,292600
10,517000	0,5	0,271500
10,525333	0,5	0,259350
10,533667	0,5	0,244600
10,542000	0,5	0,233400
10,550333	0,5	0,226800
10,558667	0,5	0,221600
10,567000	0,5	0,217150
10,575333	0,5	0,212900
10,583667	0,5	0,208850
10,592000	0,5	0,213100
10,600333	0,5	0,211000
10,608667	0,5	0,208000
10,617000	0,5	0,208500
10,625333	0,5	0,205050
10,633667	0,5	0,205300
10,642000	0,5	0,198900
10,650333	0,5	0,200300
10,658667	0,5	0,194350
10,667000	0,5	0,191600
10,675333	0,5	0,189200
10,683667	0,5	0,184200
10,692000	0,5	0,174500
10,700333	0,5	0,169950
10,708667	0,5	0,156950
10,717000	0,5	0,144550
10,725333	0,5	0,130950
10,733667	0,5	0,117000
10,742000	0,5	0,105550
10,750333	0,5	0,088700
10,758667	0,5	0,072550
10,767000	0,5	0,057750
10,775333	0,5	0,040350
10,783667	0,5	0,024650
10,792000	0,5	0,010150
10,800333	0,5	-0,008250
10,808667	0,5	-0,020700
10,817000	0,5	-0,035800
10,825333	0,5	-0,045350
10,833667	0,5	-0,060300
10,842000	0,5	-0,069650
10,850333	0,5	-0,078550
10,858667	0,5	-0,086950
10,867000	0,5	-0,098650
10,875333	0,5	-0,108550
10,883667	0,5	-0,113650
10,892000	0,5	-0,116850
10,900333	0,5	-0,121450
10,908667	0,5	-0,128200
10,917000	0,5	-0,131100
10,925333	0,5	-0,135750
10,933667	0,5	-0,136400
10,942000	0,5	-0,140900
10,950333	0,5	-0,139750
10,958667	0,5	-0,143750
10,967000	0,5	-0,140700
10,975333	0,5	-0,137700
10,983667	0,5	-0,134950
10,992000	0,5	-0,130650
11,000333	0,5	-0,121200
11,008667	0,5	-0,118450
11,017000	0,5	-0,112100
11,025333	0,5	-0,102250
11,033667	0,5	-0,091650
11,042000	0,5	-0,074150
11,050333	0,5	-0,060550
11,058667	0,5	-0,050700
11,067000	0,5	-0,036000
11,075333	0,5	-0,027600
11,083667	0,5	-0,021200
11,092000	0,5	-0,017200
11,100333	0,5	-0,013650
11,108667	0,5	-0,014300
11,117000	0,5	-0,016250
11,125333	0,5	-0,023150
11,133667	0,5	-0,028550
11,142000	0,5	-0,034100
11,150333	0,5	-0,044850
11,158667	0,5	-0,054000
11,167000	0,5	-0,066100
11,175333	0,5	-0,075250
11,183667	0,5	-0,081300
11,192000	0,5	-0,087500
11,200333	0,5	-0,094550
11,208667	0,5	-0,102250
11,217000	0,5	-0,107100
11,225333	0,5	-0,109300
11,233667	0,5	-0,115300
11,242000	0,5	-0,118750
11,250333	0,5	-0,121900
11,258667	0,5	-0,127050
11,267000	0,5	-0,123900
11,275333	0,5	-0,128900
11,283667	0,5	-0,125950
11,292000	0,5	-0,123900
11,300333	0,5	-0,128600
11,308667	0,5	-0,128900
11,317000	0,5	-0,131700
11,325333	0,5	-0,131550
11,333667	0,5	-0,122150
11,342000	0,5	-0,119500
11,350333	0,5	-0,120350
11,358667	0,5	-0,117800
11,367000	0,5	-0,111000
11,375333	0,5	-0,109250
11,383667	0,5	-0,107250
11,392000	0,5	-0,103300
11,400333	0,5	-0,103450
11,408667	0,5	-0,098100
11,417000	0,5	-0,090550
11,425333	0,5	-0,096150
11,433667	0,5	-0,088850
11,442000	0,5	-0,083600
11,450333	0,5	-0,079450
11,458667	0,5	-0,078200
11,467000	0,5	-0,076800
11,475333	0,5	-0,061450
11,483667	0,5	-0,057700
11,492000	0,5	-0,048650
11,500333	0,5	-0,044150
11,508667	0,5	-0,035700
11,517000	0,5	-0,026900
11,525333	0,5	-0,017250
11,533667	0,5	-0,007200
11,542000	0,5	0,001600
11,550333	0,5	0,010050
11,558667	0,5	0,019550
11,567000	0,5	0,027350
11,575333	0,5	0,034650
11,583667	0,5	0,045300
11,592000	0,5	0,050950
11,600333	0,5	0,053400
11,608667	0,5	0,056000
11,617000	0,5	0,061900
11,625333	0,5	0,067900
11,633667	0,5	0,071500
11,642000	0,5	0,070250
11,650333	0,5	0,077200
11,658667	0,5	0,078500
11,667000	0,5	0,078300
11,675333	0,5	0,077750
11,683667	0,5	0,075100
11,692000	0,5	0,070200
11,700333	0,5	0,063000
11,708667	0,5	0,058450
11,717000	0,5	0,056350
11,725333	0,5	0,049850
11,733667	0,5	0,045600
11,742000	0,5	0,037000
11,750333	0,5	0,032450
11,758667	0,5	0,023000
11,767000	0,5	0,019350
11,775333	0,5	0,017650
11,783667	0,5	0,014200
11,792000	0,5	0,014600
11,800333	0,5	0,008150
11,808667	0,5	0,010200
11,817000	0,5	0,007600
11,825333	0,5	0,007200
11,833667	0,5	0,009400
11,842000	0,5	0,005900
11,850333	0,5	0,010050
11,858667	0,5	0,010850
11,867000	0,5	0,007150
11,875333	0,5	0,014000
11,883667	0,5	0,015000
11,892000	0,5	0,020450
11,900333	0,5	0,014450
11,908667	0,5	0,019000
11,917000	0,5	0,028300
11,925333	0,5	0,038100
11,933667	0,5	0,046050
11,942000	0,5	0,049400
11,950333	0,5	0,062400
11,958667	0,5	0,072100
11,967000	0,5	0,084200
11,975333	0,5	0,097000
11,983667	0,5	0,112350
11,992000	0,5	0,125950
12,000333	0,5	0,142750
12,008667	0,5	0,157150
12,017000	0,5	0,174950
12,025333	0,5	0,199250
12,033667	0,5	0,221650
12,042000	0,5	0,239650
12,050333	0,5	0,262850
12,058667	0,5	0,282450
12,067000	0,5	0,305450
12,075333	0,5	0,334000
12,083667	0,5	0,359750
12,092000	0,5	0,382450
12,100333	0,5	0,403600
12,108667	0,5	0,426650
12,117000	0,5	0,448000
12,125333	0,5	0,471550
12,133667	0,5	0,491400
12,142000	0,5	0,512150
12,150333	0,5	0,538750
12,158667	0,5	0,558400
12,167000	0,5	0,586600
12,175333	0,5	0,612550
12,183667	0,5	0,639100
12,192000	0,5	0,667700
12,200333	0,5	0,694250
12,208667	0,5	0,735000
12,217000	0,5	0,774800
12,225333	0,5	0,815900
12,233667	0,5	0,858100
12,242000	0,5	0,895650
12,250333	0,5	0,929550
12,258667	0,5	0,963700
12,267000	0,5	0,983550
12,275333	0,5	0,998000
12,283667	0,5	1,007700
12,292000	0,5	1,005550
12,300333	0,5	1,005400
12,308667	0,5	0,990300
12,317000	0,5	0,990850
12,325333	0,5	0,986650
12,333667	0,5	0,982500
12,342000	0,5	0,973000
12,350333	0,5	0,967700
12,358667	0,5	0,968950
12,367000	0,5	0,975500
12,375333	0,5	0,969750
12,383667	0,5	0,978750
12,392000	0,5	0,981100
12,400333	0,5	0,993950
12,408667	0,5	1,003300
12,417000	0,5	1,018000
12,425333	0,5	1,025750
12,433667	0,5	1,037050
12,442000	0,5	1,055850
12,450333	0,5	1,067700
12,458667	0,5	1,073850
12,467000	0,5	1,095500
12,475333	0,5	1,106400
12,483667	0,5	1,113550
12,492000	0,5	1,121400
12,500333	0,5	1,130000
12,508667	0,5	1,147100
12,517000	0,5	1,156300
12,525333	0,5	1,166500
12,533667	0,5	1,179950
12,542000	0,5	1,195550
12,550333	0,5	1,209150
12,558667	0,5	1,233950
12,567000	0,5	1,259950
12,575333	0,5	1,285500
12,583667	0,5	1,308500
12,592000	0,5	1,331050
12,600333	0,5	1,341050
12,608667	0,5	1,346000
12,617000	0,5	1,349100
12,625333	0,5	1,339300
12,633667	0,5	1,324400
12,642000	0,5	1,311050
12,650333	0,5	1,297700
12,658667	0,5	1,287150
12,667000	0,5	1,280050
12,675333	0,5	1,271300
12,683667	0,5	1,268650
12,692000	0,5	1,264250
12,700333	0,5	1,269150
12,708667	0,5	1,267300
12,717000	0,5	1,275000
12,725333	0,5	1,278050
12,733667	0,5	1,286550
12,742000	0,5	1,294850
12,750333	0,5	1,294100
12,758667	0,5	1,297650
12,767000	0,5	1,301650
12,775333	0,5	1,297700
12,783667	0,5	1,290150
12,792000	0,5	1,283000
12,800333	0,5	1,278200
12,808667	0,5	1,283600
12,817000	0,5	1,289550
12,825333	0,5	1,297550
12,833667	0,5	1,306250
12,842000	0,5	1,313650
12,850333	0,5	1,317400
12,858667	0,5	1,322500
12,867000	0,5	1,318850
12,875333	0,5	1,315100
12,883667	0,5	1,306350
12,892000	0,5	1,297950
12,900333	0,5	1,291900
12,908667	0,5	1,297200
12,917000	0,5	1,292250
12,925333	0,5	1,289850
12,933667	0,5	1,283900
12,942000	0,5	1,275950
12,950333	0,5	1,281400
12,958667	0,5	1,274200
12,967000	0,5	1,270500
12,975333	0,5	1,265700
12,983667	0,5	1,260500
12,992000	0,5	1,257800
13,000333	0,5	1,262050
13,008667	0,5	1,261900
13,017000	0,5	1,270200
13,025333	0,5	1,270750
13,033667	0,5	1,284550
13,042000	0,5	1,286100
13,050333	0,5	1,294950
13,058667	0,5	1,304600
13,067000	0,5	1,308300
13,075333	0,5	1,305650
13,083667	0,5	1,294200
13,092000	0,5	1,287850
13,100333	0,5	1,285150
13,108667	0,5	1,272100
13,117000	0,5	1,267500
13,125333	0,5	1,261950
13,133667	0,5	1,256600
13,142000	0,5	1,254350
13,150333	0,5	1,254100
13,158667	0,5	1,257000
13,167000	0,5	1,251950
13,175333	0,5	1,259850
13,183667	0,5	1,259900
13,192000	0,5	1,257450
13,200333	0,5	1,262950
13,208667	0,5	1,270200
13,217000	0,5	1,265900
13,225333	0,5	1,265900
13,233667	0,5	1,263550
13,242000	0,5	1,265300
13,250333	0,5	1,270200
13,258667	0,5	1,273200
13,267000	0,5	1,273400
13,275333	0,5	1,275950
13,283667	0,5	1,277200
13,292000	0,5	1,284300
13,300333	0,5	1,287950
13,308667	0,5	1,287150
13,317000	0,5	1,280750
13,325333	0,5	1,277500
13,333667	0,5	1,269300
13,342000	0,5	1,257700
13,350333	0,5	1,264300
13,358667	0,5	1,265200
13,367000	0,5	1,266150
13,375333	0,5	1,265600
13,383667	0,5	1,269900
13,392000	0,5	1,270200
13,400333	0,5	1,279150
13,408667	0,5	1,276050
13,417000	0,5	1,275350
13,425333	0,5	1,269450
13,433667	0,5	1,263900
13,442000	0,5	1,257950
13,450333	0,5	1,248850
13,458667	0,5	1,242250
13,467000	0,5	1,237500
13,475333	0,5	1,236250
13,483667	0,5	1,228550
13,492000	0,5	1,248250
13,500333	0,5	1,265500
13,508667	0,5	1,279950
13,517000	0,5	1,293900
13,525333	0,5	1,300400
13,533667	0,5	1,309750
13,542000	0,5	1,318750
13,550333	0,5	1,313950
13,558667	0,5	1,308600
13,567000	0,5	1,295400
13,575333	0,5	1,280650
13,583667	0,5	1,264750
13,592000	0,5	1,259950
13,600333	0,5	1,249800
13,608667	0,5	1,250800
13,617000	0,5	1,256900
13,625333	0,5	1,262750
13,633667	0,5	1,253400
13,642000	0,5	1,259500
13,650333	0,5	1,254000
13,658667	0,5	1,241850
13,667000	0,5	1,234150
13,675333	0,5	1,216450
13,683667	0,5	1,232900
13,692000	0,5	1,251150
13,700333	0,5	1,283900
13,708667	0,5	1,313550
13,717000	0,5	1,351350
13,725333	0,5	1,376850
13,733667	0,5	1,390850
13,742000	0,5	1,386400
13,750333	0,5	1,364850
13,758667	0,5	1,334050
13,767000	0,5	1,304500
13,775333	0,5	1,276100
13,783667	0,5	1,251650
13,792000	0,5	1,252350
13,800333	0,5	1,250250
13,808667	0,5	1,258450
13,817000	0,5	1,269950
13,825333	0,5	1,278450
13,833667	0,5	1,291850
13,842000	0,5	1,299950
13,850333	0,5	1,308400
13,858667	0,5	1,320950
13,867000	0,5	1,341050
13,875333	0,5	1,380650
13,883667	0,5	1,428450
13,892000	0,5	1,480000
13,900333	0,5	1,507200
13,908667	0,5	1,510600
13,917000	0,5	1,482600
13,925333	0,5	1,434600
13,933667	0,5	1,372750
13,942000	0,5	1,314150
13,950333	0,5	1,259900
13,958667	0,5	1,216600
13,967000	0,5	1,182350
13,975333	0,5	1,171450
13,983667	0,5	1,185950
13,992000	0,5	1,203600
14,000333	0,5	1,225850
14,008667	0,5	1,255750
14,017000	0,5	1,292000
14,025333	0,5	1,337050
14,033667	0,5	1,383050
14,042000	0,5	1,420850
14,050333	0,5	1,441300
14,058667	0,5	1,433500
14,067000	0,5	1,398300
14,075333	0,5	1,330400
14,083667	0,5	1,277550
14,092000	0,5	1,222700
14,100333	0,5	1,177600
14,108667	0,5	1,136950
14,117000	0,5	1,114300
14,125333	0,5	1,112400
14,133667	0,5	1,125750
14,142000	0,5	1,150850
14,150333	0,5	1,184950
14,158667	0,5	1,223300
14,167000	0,5	1,257950
14,175333	0,5	1,286950
14,183667	0,5	1,304800
14,192000	0,5	1,302650
14,200333	0,5	1,276600
14,208667	0,5	1,246650
14,217000	0,5	1,196250
14,225333	0,5	1,143050
14,233667	0,5	1,112800
14,242000	0,5	1,081050
14,250333	0,5	1,057550
14,258667	0,5	1,050100
14,267000	0,5	1,041950
14,275333	0,5	1,063300
14,283667	0,5	1,083650
14,292000	0,5	1,110050
14,300333	0,5	1,132900
14,308667	0,5	1,152500
14,317000	0,5	1,157450
14,325333	0,5	1,157950
14,333667	0,5	1,143250
14,342000	0,5	1,125100
14,350333	0,5	1,100550
14,358667	0,5	1,080150
14,367000	0,5	1,059600
14,375333	0,5	1,053450
14,383667	0,5	1,058750
14,392000	0,5	1,062200
14,400333	0,5	1,075450
14,408667	0,5	1,083750
14,417000	0,5	1,092000
14,425333	0,5	1,106900
14,433667	0,5	1,113000
14,442000	0,5	1,104000
14,450333	0,5	1,102150
14,458667	0,5	1,084100
14,467000	0,5	1,071050
14,475333	0,5	1,053300
14,483667	0,5	1,039200
14,492000	0,5	1,028000
14,500333	0,5	1,015100
14,508667	0,5	1,012050
14,517000	0,5	1,005400
14,525333	0,5	1,006900
14,533667	0,5	1,008000
14,542000	0,5	1,003100
14,550333	0,5	0,991500
14,558667	0,5	0,978350
14,567000	0,5	0,965700
14,575333	0,5	0,969550
14,583667	0,5	0,961450
14,592000	0,5	0,961550
14,600333	0,5	0,954650
14,608667	0,5	0,960400
14,617000	0,5	0,955150
14,625333	0,5	0,958550
14,633667	0,5	0,956100
14,642000	0,5	0,946900
14,650333	0,5	0,947750
14,658667	0,5	0,935250
14,667000	0,5	0,922950
14,675333	0,5	0,922050
14,683667	0,5	0,919750
14,692000	0,5	0,909450
14,700333	0,5	0,899350
14,708667	0,5	0,893700
14,717000	0,5	0,897550
14,725333	0,5	0,897050
14,733667	0,5	0,901750
14,742000	0,5	0,900600
14,750333	0,5	0,900000
14,758667	0,5	0,894150
14,767000	0,5	0,891600
14,775333	0,5	0,884650
14,783667	0,5	0,872000
14,792000	0,5	0,862450
14,800333	0,5	0,857600
14,808667	0,5	0,838050
14,817000	0,5	0,840550
14,825333	0,5	0,837800
14,833667	0,5	0,839300
14,842000	0,5	0,839300
14,850333	0,5	0,832950
14,858667	0,5	0,832750
14,867000	0,5	0,839700
14,875333	0,5	0,839800
14,883667	0,5	0,835950
14,892000	0,5	0,836550
14,900333	0,5	0,826200
14,908667	0,5	0,824750
14,917000	0,5	0,814500
14,925333	0,5	0,813900
14,933667	0,5	0,807900
14,942000	0,5	0,805200
14,950333	0,5	0,810550
14,958667	0,5	0,799500
14,967000	0,5	0,802500
14,975333	0,5	0,806350
14,983667	0,5	0,798850
14,992000	0,5	0,787900
15,000333	0,5	0,770950
15,008667	0,5	0,767950
15,017000	0,5	0,773900
15,025333	0,5	0,772950
15,033667	0,5	0,776400
15,042000	0,5	0,778000
15,050333	0,5	0,783400
15,058667	0,5	0,781800
15,067000	0,5	0,786500
15,075333	0,5	0,785200
15,083667	0,5	0,786300
15,092000	0,5	0,785250
15,100333	0,5	0,782250
15,108667	0,5	0,768950
15,117000	0,5	0,775250
15,125333	0,5	0,771450
15,133667	0,5	0,766100
15,142000	0,5	0,751050
15,150333	0,5	0,741350
15,158667	0,5	0,737700
15,167000	0,5	0,738800
15,175333	0,5	0,737350
15,183667	0,5	0,742850
15,192000	0,5	0,742000
15,200333	0,5	0,740350
15,208667	0,5	0,746050
15,217000	0,5	0,739100
15,225333	0,5	0,738300
15,233667	0,5	0,732750
15,242000	0,5	0,735550
15,250333	0,5	0,722100
15,258667	0,5	0,723050
15,267000	0,5	0,727700
15,275333	0,5	0,728600
15,283667	0,5	0,722150
15,292000	0,5	0,717400
15,300333	0,5	0,712450
15,308667	0,5	0,721300
15,317000	0,5	0,718050
15,325333	0,5	0,720600
15,333667	0,5	0,719800
15,342000	0,5	0,723050
15,350333	0,5	0,729550
15,358667	0,5	0,733750
15,367000	0,5	0,744300
15,375333	0,5	0,749100
15,383667	0,5	0,756500
15,392000	0,5	0,760750
15,400333	0,5	0,742750
15,408667	0,5	0,748100
15,417000	0,5	0,749850
15,425333	0,5	0,745650
15,433667	0,5	0,746600
15,442000	0,5	0,730500
15,450333	0,5	0,738200
15,458667	0,5	0,734250
15,467000	0,5	0,740100
15,475333	0,5	0,734300
15,483667	0,5	0,739250
15,492000	0,5	0,738000
15,500333	0,5	0,743850
15,508667	0,5	0,748050
15,517000	0,5	0,750550
15,525333	0,5	0,750450
15,533667	0,5	0,751550
15,542000	0,5	0,760000
15,550333	0,5	0,753200
15,558667	0,5	0,765650
15,567000	0,5	0,771050
15,575333	0,5	0,774400
15,583667	0,5	0,767500
15,592000	0,5	0,764600
15,600333	0,5	0,769300
15,608667	0,5	0,777200
15,617000	0,5	0,770200
15,625333	0,5	0,776800
15,633667	0,5	0,781350
15,642000	0,5	0,795750
15,650333	0,5	0,804450
15,658667	0,5	0,816600
15,667000	0,5	0,828300
15,675333	0,5	0,829750
15,683667	0,5	0,825900
15,692000	0,5	0,809500
15,700333	0,5	0,793950
15,708667	0,5	0,783400
15,717000	0,5	0,773100
15,725333	0,5	0,761150
15,733667	0,5	0,741800
15,742000	0,5	0,737600
15,750333	0,5	0,740600
15,758667	0,5	0,738150
15,767000	0,5	0,741100
15,775333	0,5	0,738350
15,783667	0,5	0,738500
15,792000	0,5	0,735600
15,800333	0,5	0,736300
15,808667	0,5	0,732650
15,817000	0,5	0,726800
15,825333	0,5	0,727350
15,833667	0,5	0,727100
15,842000	0,5	0,706750
15,850333	0,5	0,712600
15,858667	0,5	0,719250
15,867000	0,5	0,715750
15,875333	0,5	0,715900
15,883667	0,5	0,700450
15,892000	0,5	0,706100
15,900333	0,5	0,698550
15,908667	0,5	0,694400
15,917000	0,5	0,687950
15,925333	0,5	0,686800
15,933667	0,5	0,679750
15,942000	0,5	0,679450
15,950333	0,5	0,676000
15,958667	0,5	0,678300
15,967000	0,5	0,675850
15,975333	0,5	0,685700
15,983667	0,5	0,692200
15,992000	0,5	0,682350
16,000333	0,5	0,691350
16,008667	0,5	0,692700
16,017000	0,5	0,695300
16,025333	0,5	0,686600
16,033667	0,5	0,680750
16,042000	0,5	0,684100
16,050333	0,5	0,695150
16,058667	0,5	0,698050
16,067000	0,5	0,699000
16,075333	0,5	0,703850
16,083667	0,5	0,709400
16,092000	0,5	0,715250
16,100333	0,5	0,727850
16,108667	0,5	0,740250
16,117000	0,5	0,763150
16,125333	0,5	0,784850
16,133667	0,5	0,802450
16,142000	0,5	0,818600
16,150333	0,5	0,836450
16,158667	0,5	0,835600
16,167000	0,5	0,827650
16,175333	0,5	0,800450
16,183667	0,5	0,776850
16,192000	0,5	0,764000
16,200333	0,5	0,749300
16,208667	0,5	0,737250
16,217000	0,5	0,732650
16,225333	0,5	0,734150
16,233667	0,5	0,734900
16,242000	0,5	0,739350
16,250333	0,5	0,740100
16,258667	0,5	0,742950
16,267000	0,5	0,747150
16,275333	0,5	0,745900
16,283667	0,5	0,734500
16,292000	0,5	0,736700
16,300333	0,5	0,736950
16,308667	0,5	0,738850
16,317000	0,5	0,738100
16,325333	0,5	0,729700
16,333667	0,5	0,734900
16,342000	0,5	0,732150
16,350333	0,5	0,732550
16,358667	0,5	0,728650
16,367000	0,5	0,722650
16,375333	0,5	0,716450
16,383667	0,5	0,713050
16,392000	0,5	0,711750
16,400333	0,5	0,710000
16,408667	0,5	0,707000
16,417000	0,5	0,716950
16,425333	0,5	0,717500
16,433667	0,5	0,705400
16,442000	0,5	0,709600
16,450333	0,5	0,714050
16,458667	0,5	0,711050
16,467000	0,5	0,711750
16,475333	0,5	0,703000
16,483667	0,5	0,716350
16,492000	0,5	0,716850
16,500333	0,5	0,719650
16,508667	0,5	0,721350
16,517000	0,5	0,725800
16,525333	0,5	0,723150
16,533667	0,5	0,729750
16,542000	0,5	0,734750
16,550333	0,5	0,735000
16,558667	0,5	0,749200
16,567000	0,5	0,759900
16,575333	0,5	0,769000
16,583667	0,5	0,784350
16,592000	0,5	0,811250
16,600333	0,5	0,835250
16,608667	0,5	0,856050
16,617000	0,5	0,869500
16,625333	0,5	0,884850
16,633667	0,5	0,901300
16,642000	0,5	0,912650
16,650333	0,5	0,916750
16,658667	0,5	0,927800
16,667000	0,5	0,941150
16,675333	0,5	0,972600
16,683667	0,5	1,017150
16,692000	0,5	1,085150
16,700333	0,5	1,159150
16,708667	0,5	1,235850
16,717000	0,5	1,300450
16,725333	0,5	1,336250
16,733667	0,5	1,347150
16,742000	0,5	1,314500
16,750333	0,5	1,254850
16,758667	0,5	1,167250
16,767000	0,5	1,075500
16,775333	0,5	0,985200
16,783667	0,5	0,918050
16,792000	0,5	0,855850
16,800333	0,5	0,811300
16,808667	0,5	0,777100
16,817000	0,5	0,759400
16,825333	0,5	0,741550
16,833667	0,5	0,728450
16,842000	0,5	0,718500
16,850333	0,5	0,715450
16,858667	0,5	0,717050
16,867000	0,5	0,704050
16,875333	0,5	0,689300
16,883667	0,5	0,690200
16,892000	0,5	0,683200
16,900333	0,5	0,672550
16,908667	0,5	0,665750
16,917000	0,5	0,653100
16,925333	0,5	0,656950
16,933667	0,5	0,645100
16,942000	0,5	0,650100
16,950333	0,5	0,646250
16,958667	0,5	0,651550
16,967000	0,5	0,647000
16,975333	0,5	0,646900
16,983667	0,5	0,642250
16,992000	0,5	0,636500
17,000333	0,5	0,635200
17,008667	0,5	0,638050
17,017000	0,5	0,622800
17,025333	0,5	0,620000
17,033667	0,5	0,617600
17,042000	0,5	0,618450
17,050333	0,5	0,606650
17,058667	0,5	0,593150
17,067000	0,5	0,595650
17,075333	0,5	0,597150
17,083667	0,5	0,595650
17,092000	0,5	0,591150
17,100333	0,5	0,590950
17,108667	0,5	0,590650
17,117000	0,5	0,590300
17,125333	0,5	0,587050
17,133667	0,5	0,585050
17,142000	0,5	0,585050
17,150333	0,5	0,588500
17,158667	0,5	0,591150
17,167000	0,5	0,582100
17,175333	0,5	0,588000
17,183667	0,5	0,592150
17,192000	0,5	0,585850
17,200333	0,5	0,579800
17,208667	0,5	0,564350
17,217000	0,5	0,564600
17,225333	0,5	0,566100
17,233667	0,5	0,560300
17,242000	0,5	0,562500
17,250333	0,5	0,560300
17,258667	0,5	0,559900
17,267000	0,5	0,553700
17,275333	0,5	0,554800
17,283667	0,5	0,552500
17,292000	0,5	0,549700
17,300333	0,5	0,547650
17,308667	0,5	0,541750
17,317000	0,5	0,532700
17,325333	0,5	0,539300
17,333667	0,5	0,531150
17,342000	0,5	0,523400
17,350333	0,5	0,514450
17,358667	0,5	0,508200
17,367000	0,5	0,498950
17,375333	0,5	0,503200
17,383667	0,5	0,502300
17,392000	0,5	0,499600
17,400333	0,5	0,502100
17,408667	0,5	0,501000
17,417000	0,5	0,503650
17,425333	0,5	0,491050
17,433667	0,5	0,496150
17,442000	0,5	0,497750
17,450333	0,5	0,505850
17,458667	0,5	0,488850
17,467000	0,5	0,501250
17,475333	0,5	0,501450
17,483667	0,5	0,508200
17,492000	0,5	0,501600
17,500333	0,5	0,498550
17,508667	0,5	0,505200
17,517000	0,5	0,516200
17,525333	0,5	0,518050
17,533667	0,5	0,530750
17,542000	0,5	0,543000
17,550333	0,5	0,563800
17,558667	0,5	0,579900
17,567000	0,5	0,599300
17,575333	0,5	0,622350
17,583667	0,5	0,642400
17,592000	0,5	0,666550
17,600333	0,5	0,693400
17,608667	0,5	0,704000
17,617000	0,5	0,737150
17,625333	0,5	0,764100
17,633667	0,5	0,784850
17,642000	0,5	0,804150
17,650333	0,5	0,815000
17,658667	0,5	0,839850
17,667000	0,5	0,857550
17,675333	0,5	0,874650
17,683667	0,5	0,886500
17,692000	0,5	0,906700
17,700333	0,5	0,917500
17,708667	0,5	0,932700
17,717000	0,5	0,941950
17,725333	0,5	0,944800
17,733667	0,5	0,956150
17,742000	0,5	0,962900
17,750333	0,5	0,970850
17,758667	0,5	0,974950
17,767000	0,5	0,989800
17,775333	0,5	0,989600
17,783667	0,5	0,992300
17,792000	0,5	0,981550
17,800333	0,5	0,967650
17,808667	0,5	0,960000
17,817000	0,5	0,950750
17,825333	0,5	0,930650
17,833667	0,5	0,919550
17,842000	0,5	0,903000
17,850333	0,5	0,883950
17,858667	0,5	0,865800
17,867000	0,5	0,843850
17,875333	0,5	0,830800
17,883667	0,5	0,817100
17,892000	0,5	0,804600
17,900333	0,5	0,776400
17,908667	0,5	0,768000
17,917000	0,5	0,756250
17,925333	0,5	0,739500
17,933667	0,5	0,724950
17,942000	0,5	0,703600
17,950333	0,5	0,693600
17,958667	0,5	0,687650
17,967000	0,5	0,675050
17,975333	0,5	0,669900
17,983667	0,5	0,659600
17,992000	0,5	0,657250
18,000333	0,5	0,646800
18,008667	0,5	0,640550
18,017000	0,5	0,627550
18,025333	0,5	0,621400
18,033667	0,5	0,626350
18,042000	0,5	0,620250
18,050333	0,5	0,602500
18,058667	0,5	0,605850
18,067000	0,5	0,602050
18,075333	0,5	0,592550
18,083667	0,5	0,583700
18,092000	0,5	0,564150
18,100333	0,5	0,570650
18,108667	0,5	0,561150
18,117000	0,5	0,556150
18,125333	0,5	0,547200
18,133667	0,5	0,547150
18,142000	0,5	0,538800
18,150333	0,5	0,537900
18,158667	0,5	0,532350
18,167000	0,5	0,532450
18,175333	0,5	0,530350
18,183667	0,5	0,535550
18,192000	0,5	0,523150
18,200333	0,5	0,516300
18,208667	0,5	0,521800
18,217000	0,5	0,517350
18,225333	0,5	0,512700
18,233667	0,5	0,504000
18,242000	0,5	0,502700
18,250333	0,5	0,510300
18,258667	0,5	0,515750
18,267000	0,5	0,513400
18,275333	0,5	0,525000
18,283667	0,5	0,532950
18,292000	0,5	0,542400
18,300333	0,5	0,547700
18,308667	0,5	0,552350
18,317000	0,5	0,548900
18,325333	0,5	0,556800
18,333667	0,5	0,557550
18,342000	0,5	0,548450
18,350333	0,5	0,549650
18,358667	0,5	0,545250
18,367000	0,5	0,542500
18,375333	0,5	0,530550
18,383667	0,5	0,517400
18,392000	0,5	0,505750
18,400333	0,5	0,512250
18,408667	0,5	0,504600
18,417000	0,5	0,499050
18,425333	0,5	0,497200
18,433667	0,5	0,501550
18,442000	0,5	0,498200
18,450333	0,5	0,499750
18,458667	0,5	0,499900
18,467000	0,5	0,502050
18,475333	0,5	0,506150
18,483667	0,5	0,509400
18,492000	0,5	0,501150
18,500333	0,5	0,510000
18,508667	0,5	0,506500
18,517000	0,5	0,505800
18,525333	0,5	0,496950
18,533667	0,5	0,489300
18,542000	0,5	0,496500
18,550333	0,5	0,496600
18,558667	0,5	0,500350
18,567000	0,5	0,499600
18,575333	0,5	0,499250
18,583667	0,5	0,499200
18,592000	0,5	0,503550
18,600333	0,5	0,500250
18,608667	0,5	0,499250
18,617000	0,5	0,499800
18,625333	0,5	0,502950
18,633667	0,5	0,493900
18,642000	0,5	0,496850
18,650333	0,5	0,499100
18,658667	0,5	0,491250
18,667000	0,5	0,484800
18,675333	0,5	0,471900
18,683667	0,5	0,463450
18,692000	0,5	0,460450
18,700333	0,5	0,457850
18,708667	0,5	0,455150
18,717000	0,5	0,457600
18,725333	0,5	0,455300
18,733667	0,5	0,456000
18,742000	0,5	0,456350
18,750333	0,5	0,457850
18,758667	0,5	0,450800
18,767000	0,5	0,455750
18,775333	0,5	0,453250
18,783667	0,5	0,443250
18,792000	0,5	0,447850
18,800333	0,5	0,453400
18,808667	0,5	0,446700
18,817000	0,5	0,436950
18,825333	0,5	0,424050
18,833667	0,5	0,427450
18,842000	0,5	0,429050
18,850333	0,5	0,429500
18,858667	0,5	0,427450
18,867000	0,5	0,426300
18,875333	0,5	0,425350
18,883667	0,5	0,424450
18,892000	0,5	0,425450
18,900333	0,5	0,416650
18,908667	0,5	0,417350
18,917000	0,5	0,423450
18,925333	0,5	0,420950
18,933667	0,5	0,415550
18,942000	0,5	0,427400
18,950333	0,5	0,424200
18,958667	0,5	0,420550
18,967000	0,5	0,410500
18,975333	0,5	0,406300
18,983667	0,5	0,403950
18,992000	0,5	0,402850
19,000333	0,5	0,395500
19,008667	0,5	0,400250
19,017000	0,5	0,402950
19,025333	0,5	0,403350
19,033667	0,5	0,408100
19,042000	0,5	0,408800
19,050333	0,5	0,407750
19,058667	0,5	0,408500
19,067000	0,5	0,414800
19,075333	0,5	0,404300
19,083667	0,5	0,410850
19,092000	0,5	0,414400
19,100333	0,5	0,410250
19,108667	0,5	0,399650
19,117000	0,5	0,392450
19,125333	0,5	0,396100
19,133667	0,5	0,406450
19,142000	0,5	0,403900
19,150333	0,5	0,404050
19,158667	0,5	0,406800
19,167000	0,5	0,411900
19,175333	0,5	0,413600
19,183667	0,5	0,415900
19,192000	0,5	0,418650
19,200333	0,5	0,410600
19,208667	0,5	0,427200
19,217000	0,5	0,427650
19,225333	0,5	0,418350
19,233667	0,5	0,428600
19,242000	0,5	0,431200
19,250333	0,5	0,428300
19,258667	0,5	0,425850
19,267000	0,5	0,410400
19,275333	0,5	0,424600
19,283667	0,5	0,425250
19,292000	0,5	0,429250
19,300333	0,5	0,422150
19,308667	0,5	0,436600
19,317000	0,5	0,440500
19,325333	0,5	0,450200
19,333667	0,5	0,457500
19,342000	0,5	0,459300
19,350333	0,5	0,470100
19,358667	0,5	0,481850
19,367000	0,5	0,481750
19,375333	0,5	0,484050
19,383667	0,5	0,497850
19,392000	0,5	0,502800
19,400333	0,5	0,503700
19,408667	0,5	0,497300
19,417000	0,5	0,498900
19,425333	0,5	0,501150
19,433667	0,5	0,508600
19,442000	0,5	0,505000
19,450333	0,5	0,512900
19,458667	0,5	0,499150
19,467000	0,5	0,496000
19,475333	0,5	0,489300
19,483667	0,5	0,483150
19,492000	0,5	0,472550
19,500333	0,5	0,473100
19,508667	0,5	0,476400
19,517000	0,5	0,462750
19,525333	0,5	0,464400
19,533667	0,5	0,467800
19,542000	0,5	0,462250
19,550333	0,5	0,456800
19,558667	0,5	0,445600
19,567000	0,5	0,448450
19,575333	0,5	0,457650
19,583667	0,5	0,454650
19,592000	0,5	0,452900
19,600333	0,5	0,449800
19,608667	0,5	0,455200
19,617000	0,5	0,453850
19,625333	0,5	0,461750
19,633667	0,5	0,461450
19,642000	0,5	0,460950
19,650333	0,5	0,473450
19,658667	0,5	0,469400
19,667000	0,5	0,461950
19,675333	0,5	0,471900
19,683667	0,5	0,479300
19,692000	0,5	0,471200
19,700333	0,5	0,465300
19,708667	0,5	0,459400
19,717000	0,5	0,469950
19,725333	0,5	0,467600
19,733667	0,5	0,472500
19,742000	0,5	0,469700
19,750333	0,5	0,478950
19,758667	0,5	0,481900
19,767000	0,5	0,487400
19,775333	0,5	0,486300
19,783667	0,5	0,491800
19,792000	0,5	0,491700
19,800333	0,5	0,504200
19,808667	0,5	0,497550
19,817000	0,5	0,509050
19,825333	0,5	0,512900
19,833667	0,5	0,515950
19,842000	0,5	0,517400
19,850333	0,5	0,506900
19,858667	0,5	0,513700
19,867000	0,5	0,518950
19,875333	0,5	0,525350
19,883667	0,5	0,522450
19,892000	0,5	0,524250
19,900333	0,5	0,520600
19,908667	0,5	0,523100
19,917000	0,5	0,521550
19,925333	0,5	0,523900
19,933667	0,5	0,525950
19,942000	0,5	0,527750
19,950333	0,5	0,534150
19,958667	0,5	0,528600
19,967000	0,5	0,543700
19,975333	0,5	0,541650
19,983667	0,5	0,539700
19,992000	0,5	0,526250
20,000333	0,5	0,522500
20,008667	0,5	0,524600
20,017000	0,5	0,535400
20,025333	0,5	0,535000
20,033667	0,5	0,542050
20,042000	0,5	0,542800
20,050333	0,5	0,552150
20,058667	0,5	0,556900
20,067000	0,5	0,566000
20,075333	0,5	0,564800
20,083667	0,5	0,572350
20,092000	0,5	0,582950
20,100333	0,5	0,578700
20,108667	0,5	0,571350
20,117000	0,5	0,578200
20,125333	0,5	0,570000
20,133667	0,5	0,562850
20,142000	0,5	0,546850
20,150333	0,5	0,537750
20,158667	0,5	0,548350
20,167000	0,5	0,546200
20,175333	0,5	0,552500
20,183667	0,5	0,547850
20,192000	0,5	0,553250
20,200333	0,5	0,553100
20,208667	0,5	0,563300
20,217000	0,5	0,560400
20,225333	0,5	0,562150
20,233667	0,5	0,574150
20,242000	0,5	0,584200
20,250333	0,5	0,572600
20,258667	0,5	0,583400
20,267000	0,5	0,587600
20,275333	0,5	0,587850
20,283667	0,5	0,580950
20,292000	0,5	0,572600
20,300333	0,5	0,587000
20,308667	0,5	0,586200
20,317000	0,5	0,590200
20,325333	0,5	0,589100
20,333667	0,5	0,593750
20,342000	0,5	0,592900
20,350333	0,5	0,597800
20,358667	0,5	0,600400
20,367000	0,5	0,607650
20,375333	0,5	0,608000
20,383667	0,5	0,618950
20,392000	0,5	0,615900
20,400333	0,5	0,615150
20,408667	0,5	0,623400
20,417000	0,5	0,629650
20,425333	0,5	0,624550
20,433667	0,5	0,622900
20,442000	0,5	0,613700
20,450333	0,5	0,628050
20,458667	0,5	0,637700
20,467000	0,5	0,632400
20,475333	0,5	0,640250
20,483667	0,5	0,635700
20,492000	0,5	0,645950
20,500333	0,5	0,647400
20,508667	0,5	0,652000
20,517000	0,5	0,651800
20,525333	0,5	0,665500
20,533667	0,5	0,674600
20,542000	0,5	0,677600
20,550333	0,5	0,676250
20,558667	0,5	0,684350
20,567000	0,5	0,685950
20,575333	0,5	0,681300
20,583667	0,5	0,665650
20,592000	0,5	0,671850
20,600333	0,5	0,687800
20,608667	0,5	0,689500
20,617000	0,5	0,697150
20,625333	0,5	0,701850
20,633667	0,5	0,708000
20,642000	0,5	0,713750
20,650333	0,5	0,726050
20,658667	0,5	0,726000
20,667000	0,5	0,734350
20,675333	0,5	0,753550
20,683667	0,5	0,764750
20,692000	0,5	0,761400
20,700333	0,5	0,771700
20,708667	0,5	0,772200
20,717000	0,5	0,779150
20,725333	0,5	0,775600
20,733667	0,5	0,771800
20,742000	0,5	0,784400
20,750333	0,5	0,792950
20,758667	0,5	0,795600
20,767000	0,5	0,801700
20,775333	0,5	0,811150
20,783667	0,5	0,810100
20,792000	0,5	0,826300
20,800333	0,5	0,827350
20,808667	0,5	0,834050
20,817000	0,5	0,841250
20,825333	0,5	0,860800
20,833667	0,5	0,867750
20,842000	0,5	0,868300
20,850333	0,5	0,874550
20,858667	0,5	0,877150
20,867000	0,5	0,877400
20,875333	0,5	0,870300
20,883667	0,5	0,879800
20,892000	0,5	0,900750
20,900333	0,5	0,928550
20,908667	0,5	0,944200
20,917000	0,5	0,964350
20,925333	0,5	0,976500
20,933667	0,5	0,989200
20,942000	0,5	0,992450
20,950333	0,5	1,000800
20,958667	0,5	1,001450
20,967000	0,5	1,023250
20,975333	0,5	1,043500
20,983667	0,5	1,044550
20,992000	0,5	1,051900
21,000333	0,5	1,063550
21,008667	0,5	1,060100
21,017000	0,5	1,065800
21,025333	0,5	1,063550
21,033667	0,5	1,071050
21,042000	0,5	1,083400
21,050333	0,5	1,088150
21,058667	0,5	1,096950
21,067000	0,5	1,104300
21,075333	0,5	1,103000
21,083667	0,5	1,113100
21,092000	0,5	1,129600
21,100333	0,5	1,133500
21,108667	0,5	1,152350
21,117000	0,5	1,173800
21,125333	0,5	1,193050
21,133667	0,5	1,193700
21,142000	0,5	1,207100
21,150333	0,5	1,214250
21,158667	0,5	1,228150
21,167000	0,5	1,233900
21,175333	0,5	1,255550
21,183667	0,5	1,294500
21,192000	0,5	1,330650
21,200333	0,5	1,358950
21,208667	0,5	1,385200
21,217000	0,5	1,402650
21,225333	0,5	1,405100
21,233667	0,5	1,405700
21,242000	0,5	1,394050
21,250333	0,5	1,391700
21,258667	0,5	1,401400
21,267000	0,5	1,410000
21,275333	0,5	1,414900
21,283667	0,5	1,422000
21,292000	0,5	1,419650
21,300333	0,5	1,424000
21,308667	0,5	1,414400
21,317000	0,5	1,406450
21,325333	0,5	1,421450
21,333667	0,5	1,426800
21,342000	0,5	1,430150
21,350333	0,5	1,435450
21,358667	0,5	1,441800
21,367000	0,5	1,441800
21,375333	0,5	1,450000
21,383667	0,5	1,462100
21,392000	0,5	1,479300
21,400333	0,5	1,492800
21,408667	0,5	1,527200
21,417000	0,5	1,553000
21,425333	0,5	1,564800
21,433667	0,5	1,576700
21,442000	0,5	1,581450
21,450333	0,5	1,586650
21,458667	0,5	1,587400
21,467000	0,5	1,587200
21,475333	0,5	1,601900
21,483667	0,5	1,627050
21,492000	0,5	1,650150
21,500333	0,5	1,678250
21,508667	0,5	1,699850
21,517000	0,5	1,730300
21,525333	0,5	1,746650
21,533667	0,5	1,768200
21,542000	0,5	1,780550
21,550333	0,5	1,806250
21,558667	0,5	1,835750
21,567000	0,5	1,848100
21,575333	0,5	1,850800
21,583667	0,5	1,865650
21,592000	0,5	1,867100
21,600333	0,5	1,874600
21,608667	0,5	1,878500
21,617000	0,5	1,890100
21,625333	0,5	1,907250
21,633667	0,5	1,925400
21,642000	0,5	1,944350
21,650333	0,5	1,959050
21,658667	0,5	1,978250
21,667000	0,5	1,988950
21,675333	0,5	2,013900
21,683667	0,5	2,029600
21,692000	0,5	2,052200
21,700333	0,5	2,085850
21,708667	0,5	2,113550
21,717000	0,5	2,124950
21,725333	0,5	2,144300
21,733667	0,5	2,163950
21,742000	0,5	2,181850
21,750333	0,5	2,190250
21,758667	0,5	2,215050
21,767000	0,5	2,247250
21,775333	0,5	2,276350
21,783667	0,5	2,305750
21,792000	0,5	2,335200
21,800333	0,5	2,366050
21,808667	0,5	2,387300
21,817000	0,5	2,419300
21,825333	0,5	2,439000
21,833667	0,5	2,464000
21,842000	0,5	2,496900
21,850333	0,5	2,526250
21,858667	0,5	2,532100
21,867000	0,5	2,539600
21,875333	0,5	2,554650
21,883667	0,5	2,570000
21,892000	0,5	2,585000
21,900333	0,5	2,592850
21,908667	0,5	2,633050
21,917000	0,5	2,674450
21,925333	0,5	2,695100
21,933667	0,5	2,722700
21,942000	0,5	2,750850
21,950333	0,5	2,772700
21,958667	0,5	2,804300
21,967000	0,5	2,824350
21,975333	0,5	2,857700
21,983667	0,5	2,890100
21,992000	0,5	2,939000
22,000333	0,5	2,973150
22,008667	0,5	3,007050
22,017000	0,5	3,054500
22,025333	0,5	3,104850
22,033667	0,5	3,144250
22,042000	0,5	3,176900
22,050333	0,5	3,194050
22,058667	0,5	3,201550
22,067000	0,5	3,211950
22,075333	0,5	3,219500
22,083667	0,5	3,242150
22,092000	0,5	3,263450
22,100333	0,5	3,291100
22,108667	0,5	3,317200
22,117000	0,5	3,346500
22,125333	0,5	3,373750
22,133667	0,5	3,408050
22,142000	0,5	3,436150
22,150333	0,5	3,462000
22,158667	0,5	3,491950
22,167000	0,5	3,532950
22,175333	0,5	3,560700
22,183667	0,5	3,593000
22,192000	0,5	3,622900
22,200333	0,5	3,662850
22,208667	0,5	3,714400
22,217000	0,5	3,753800
22,225333	0,5	3,797600
22,233667	0,5	3,835200
22,242000	0,5	3,878450
22,250333	0,5	3,920050
22,258667	0,5	3,961950
22,267000	0,5	4,001700
22,275333	0,5	4,048450
22,283667	0,5	4,092600
22,292000	0,5	4,142750
22,300333	0,5	4,191300
22,308667	0,5	4,262050
22,317000	0,5	4,322000
22,325333	0,5	4,393200
22,333667	0,5	4,466000
22,342000	0,5	4,540300
22,350333	0,5	4,621000
22,358667	0,5	4,690950
22,367000	0,5	4,754000
22,375333	0,5	4,800900
22,383667	0,5	4,845900
22,392000	0,5	4,880000
22,400333	0,5	4,916650
22,408667	0,5	4,952950
22,417000	0,5	4,997250
22,425333	0,5	5,037900
22,433667	0,5	5,080950
22,442000	0,5	5,124300
22,450333	0,5	5,195300
22,458667	0,5	5,261350
22,467000	0,5	5,316750
22,475333	0,5	5,380600
22,483667	0,5	5,435350
22,492000	0,5	5,508450
22,500333	0,5	5,569050
22,508667	0,5	5,643800
22,517000	0,5	5,710900
22,525333	0,5	5,787800
22,533667	0,5	5,858650
22,542000	0,5	5,934300
22,550333	0,5	5,999350
22,558667	0,5	6,068000
22,567000	0,5	6,125200
22,575333	0,5	6,156350
22,583667	0,5	6,203000
22,592000	0,5	6,273600
22,600333	0,5	6,329650
22,608667	0,5	6,378300
22,617000	0,5	6,410700
22,625333	0,5	6,439850
22,633667	0,5	6,462550
22,642000	0,5	6,494200
22,650333	0,5	6,520950
22,658667	0,5	6,531650
22,667000	0,5	6,546400
22,675333	0,5	6,544650
22,683667	0,5	6,549150
22,692000	0,5	6,542200
22,700333	0,5	6,534150
22,708667	0,5	6,510000
22,717000	0,5	6,461200
22,725333	0,5	6,407450
22,733667	0,5	6,380700
22,742000	0,5	6,346000
22,750333	0,5	6,295550
22,758667	0,5	6,220450
22,767000	0,5	6,138750
22,775333	0,5	6,041600
22,783667	0,5	5,940700
22,792000	0,5	5,837050
22,800333	0,5	5,716950
22,808667	0,5	5,594800
22,817000	0,5	5,456900
22,825333	0,5	5,319300
22,833667	0,5	5,168100
22,842000	0,5	5,014850
22,850333	0,5	4,859400
22,858667	0,5	4,697050
22,867000	0,5	4,488100
22,875333	0,5	4,334850
22,883667	0,5	4,176500
22,892000	0,5	4,011800
22,900333	0,5	3,833000
22,908667	0,5	3,646900
22,917000	0,5	3,477600
22,925333	0,5	3,294700
22,933667	0,5	3,117800
22,942000	0,5	2,940950
22,950333	0,5	2,762950
22,958667	0,5	2,594800
22,967000	0,5	2,428700
22,975333	0,5	2,272850
22,983667	0,5	2,106950
22,992000	0,5	1,958100
23,000333	0,5	1,800800
23,008667	0,5	1,672950
23,017000	0,5	1,530200
23,025333	0,5	1,389150
23,033667	0,5	1,231750
23,042000	0,5	1,081150
23,050333	0,5	0,964350
23,058667	0,5	0,837850
23,067000	0,5	0,735000
23,075333	0,5	0,610450
23,083667	0,5	0,505650
23,092000	0,5	0,399750
23,100333	0,5	0,302700
23,108667	0,5	0,209600
23,117000	0,5	0,120450
23,125333	0,5	0,031750
23,133667	0,5	-0,049550
23,142000	0,5	-0,137850
23,150333	0,5	-0,210750
23,158667	0,5	-0,253350
23,167000	0,5	-0,333050
23,175333	0,5	-0,400000
23,183667	0,5	-0,498150
23,192000	0,5	-0,578850
23,200333	0,5	-0,632700
23,208667	0,5	-0,685100
23,217000	0,5	-0,724050
23,225333	0,5	-0,781900
23,233667	0,5	-0,828700
23,242000	0,5	-0,874750
23,250333	0,5	-0,913150
23,258667	0,5	-0,947200
23,267000	0,5	-0,981750
23,275333	0,5	-1,020250
23,283667	0,5	-1,056600
23,292000	0,5	-1,082500
23,300333	0,5	-1,106650
23,308667	0,5	-1,167550
23,317000	0,5	-1,157500
23,325333	0,5	-1,181050
23,333667	0,5	-1,236100
23,342000	0,5	-1,265300
23,350333	0,5	-1,286500
23,358667	0,5	-1,299450
23,367000	0,5	-1,314700
23,375333	0,5	-1,336650
23,383667	0,5	-1,353950
23,392000	0,5	-1,361250
23,400333	0,5	-1,372550
23,408667	0,5	-1,379650
23,417000	0,5	-1,384150
23,425333	0,5	-1,394050
23,433667	0,5	-1,402250
23,442000	0,5	-1,407650
23,450333	0,5	-1,418750
23,458667	0,5	-1,458900
23,467000	0,5	-1,431850
23,475333	0,5	-1,417300
23,483667	0,5	-1,438650
23,492000	0,5	-1,453150
23,500333	0,5	-1,454650
23,508667	0,5	-1,457450
23,517000	0,5	-1,461650
23,525333	0,5	-1,467050
23,533667	0,5	-1,467900
23,542000	0,5	-1,468850
23,550333	0,5	-1,466350
23,558667	0,5	-1,470050
23,567000	0,5	-1,465950
23,575333	0,5	-1,464200
23,583667	0,5	-1,458350
23,592000	0,5	-1,456200
23,600333	0,5	-1,532200
23,608667	0,5	-1,518650
23,617000	0,5	-1,468750
23,625333	0,5	-1,435050
23,633667	0,5	-1,433100
23,642000	0,5	-1,434950
23,650333	0,5	-1,433900
23,658667	0,5	-1,429400
23,667000	0,5	-1,426900
23,675333	0,5	-1,424500
23,683667	0,5	-1,418250
23,692000	0,5	-1,413350
23,700333	0,5	-1,406650
23,708667	0,5	-1,403700
23,717000	0,5	-1,394550
23,725333	0,5	-1,388000
23,733667	0,5	-1,383500
23,742000	0,5	-1,390850
23,750333	0,5	-1,481950
23,758667	0,5	-1,440050
23,767000	0,5	-1,387850
23,775333	0,5	-1,351100
23,783667	0,5	-1,334950
23,792000	0,5	-1,333550
23,800333	0,5	-1,330300
23,808667	0,5	-1,323100
23,817000	0,5	-1,313250
23,825333	0,5	-1,298850
23,833667	0,5	-1,293300
23,842000	0,5	-1,278150
23,850333	0,5	-1,266600
23,858667	0,5	-1,256150
23,867000	0,5	-1,246300
23,875333	0,5	-1,235350
23,883667	0,5	-1,228100
23,892000	0,5	-1,313850
23,900333	0,5	-1,318150
23,908667	0,5	-1,286450
23,917000	0,5	-1,227350
23,925333	0,5	-1,195450
23,933667	0,5	-1,180200
23,942000	0,5	-1,173350
23,950333	0,5	-1,175450
23,958667	0,5	-1,163800
23,967000	0,5	-1,147950
23,975333	0,5	-1,136400
23,983667	0,5	-1,124350
23,992000	0,5	-1,112300
24,000333	0,5	-1,099800
24,008667	0,5	-1,087150
24,017000	0,5	-1,071600
24,025333	0,5	-1,063300
24,033667	0,5	-1,052350
24,042000	0,5	-1,164400
24,050333	0,5	-1,107400
24,058667	0,5	-1,077750
24,067000	0,5	-1,025000
24,075333	0,5	-1,000700
24,083667	0,5	-0,985950
24,092000	0,5	-0,983600
24,100333	0,5	-0,986800
24,108667	0,5	-0,972300
24,117000	0,5	-0,958600
24,125333	0,5	-0,946150
24,133667	0,5	-0,934850
24,142000	0,5	-0,920200
24,150333	0,5	-0,911450
24,158667	0,5	-0,896750
24,167000	0,5	-0,884550
24,175333	0,5	-0,871000
24,183667	0,5	-0,885900
24,192000	0,5	-0,953050
24,200333	0,5	-0,926750
24,208667	0,5	-0,877800
24,217000	0,5	-0,839700
24,225333	0,5	-0,815550
24,233667	0,5	-0,807000
24,242000	0,5	-0,802350
24,250333	0,5	-0,796450
24,258667	0,5	-0,783050
24,267000	0,5	-0,769350
24,275333	0,5	-0,758800
24,283667	0,5	-0,745550
24,292000	0,5	-0,738150
24,300333	0,5	-0,725200
24,308667	0,5	-0,712150
24,317000	0,5	-0,699200
24,325333	0,5	-0,694250
24,333667	0,5	-0,753950
24,342000	0,5	-0,749700
24,350333	0,5	-0,726000
24,358667	0,5	-0,685950
24,367000	0,5	-0,660650
24,375333	0,5	-0,647550
24,383667	0,5	-0,641650
24,392000	0,5	-0,650250
24,400333	0,5	-0,635450
24,408667	0,5	-0,621250
24,417000	0,5	-0,606450
24,425333	0,5	-0,601850
24,433667	0,5	-0,590100
24,442000	0,5	-0,580000
24,450333	0,5	-0,570500
24,458667	0,5	-0,559900
24,467000	0,5	-0,553400
24,475333	0,5	-0,544050
24,483667	0,5	-0,618000
24,492000	0,5	-0,579050
24,500333	0,5	-0,565900
24,508667	0,5	-0,532300
24,517000	0,5	-0,520150
24,525333	0,5	-0,509000
24,533667	0,5	-0,509600
24,542000	0,5	-0,512550
24,550333	0,5	-0,506750
24,558667	0,5	-0,494950
24,567000	0,5	-0,493000
24,575333	0,5	-0,479950
24,583667	0,5	-0,477350
24,592000	0,5	-0,468000
24,600333	0,5	-0,458600
24,608667	0,5	-0,449700
24,617000	0,5	-0,442800
24,625333	0,5	-0,459150
24,633667	0,5	-0,481450
24,642000	0,5	-0,462950
24,650333	0,5	-0,442400
24,658667	0,5	-0,423400
24,667000	0,5	-0,413150
24,675333	0,5	-0,408650
24,683667	0,5	-0,413700
24,692000	0,5	-0,414950
24,700333	0,5	-0,403400
24,708667	0,5	-0,401750
24,717000	0,5	-0,392200
24,725333	0,5	-0,389250
24,733667	0,5	-0,383400
24,742000	0,5	-0,380600
24,750333	0,5	-0,373550
24,758667	0,5	-0,370200
24,767000	0,5	-0,363800
24,775333	0,5	-0,389100
24,783667	0,5	-0,388100
24,792000	0,5	-0,377850
24,800333	0,5	-0,358900
24,808667	0,5	-0,347750
24,817000	0,5	-0,339850
24,825333	0,5	-0,337300
24,833667	0,5	-0,342450
24,842000	0,5	-0,334350
24,850333	0,5	-0,329200
24,858667	0,5	-0,327250
24,867000	0,5	-0,323950
24,875333	0,5	-0,322200
24,883667	0,5	-0,322250
24,892000	0,5	-0,314950
24,900333	0,5	-0,311150
24,908667	0,5	-0,306150
24,917000	0,5	-0,307350
24,925333	0,5	-0,334450
24,933667	0,5	-0,314850
24,942000	0,5	-0,311800
24,950333	0,5	-0,296100
24,958667	0,5	-0,292800
24,967000	0,5	-0,284300
24,975333	0,5	-0,290350
24,983667	0,5	-0,292550
24,992000	0,5	-0,286400
25,000333	0,5	-0,279100
25,008667	0,5	-0,277150
25,017000	0,5	-0,274600
25,025333	0,5	-0,273650
25,033667	0,5	-0,268550
25,042000	0,5	-0,267650
25,050333	0,5	-0,262450
25,058667	0,5	-0,263250
25,067000	0,5	-0,267250
25,075333	0,5	-0,276650
25,083667	0,5	-0,264550
25,092000	0,5	-0,259400
25,100333	0,5	-0,251850
25,108667	0,5	-0,251750
25,117000	0,5	-0,247850
25,125333	0,5	-0,251700
25,133667	0,5	-0,252900
25,142000	0,5	-0,246500
25,150333	0,5	-0,242850
25,158667	0,5	-0,244050
25,167000	0,5	-0,241200
25,175333	0,5	-0,240200
25,183667	0,5	-0,236700
25,192000	0,5	-0,232150
25,200333	0,5	-0,231850
25,208667	0,5	-0,230300
25,217000	0,5	-0,237300
25,225333	0,5	-0,231400
25,233667	0,5	-0,229050
25,242000	0,5	-0,220250
25,250333	0,5	-0,222250
25,258667	0,5	-0,221200
25,267000	0,5	-0,220400
25,275333	0,5	-0,223700
25,283667	0,5	-0,220800
25,292000	0,5	-0,220150
25,300333	0,5	-0,219250
25,308667	0,5	-0,215100
25,317000	0,5	-0,216750
25,325333	0,5	-0,213050
25,333667	0,5	-0,212350
25,342000	0,5	-0,209350
25,350333	0,5	-0,206950
25,358667	0,5	-0,209850
25,367000	0,5	-0,210150
25,375333	0,5	-0,206300
25,383667	0,5	-0,202900
25,392000	0,5	-0,202700
25,400333	0,5	-0,200600
25,408667	0,5	-0,202150
25,417000	0,5	-0,200800
25,425333	0,5	-0,200700
25,433667	0,5	-0,202450
25,442000	0,5	-0,200150
25,450333	0,5	-0,200200
25,458667	0,5	-0,202450
25,467000	0,5	-0,201200
25,475333	0,5	-0,198750
25,483667	0,5	-0,198400
25,492000	0,5	-0,197650
25,500333	0,5	-0,198000
25,508667	0,5	-0,195500
25,517000	0,5	-0,192700
25,525333	0,5	-0,192100
25,533667	0,5	-0,188750
25,542000	0,5	-0,190200
25,550333	0,5	-0,190400
25,558667	0,5	-0,187650
25,567000	0,5	-0,188600
25,575333	0,5	-0,189000
25,583667	0,5	-0,187100
25,592000	0,5	-0,187350
25,600333	0,5	-0,185250
25,608667	0,5	-0,185050
25,617000	0,5	-0,185700
25,625333	0,5	-0,186850
25,633667	0,5	-0,187050
25,642000	0,5	-0,183450
25,650333	0,5	-0,182650
25,658667	0,5	-0,178800
25,667000	0,5	-0,179750
25,675333	0,5	-0,175350
25,683667	0,5	-0,177700
25,692000	0,5	-0,178750
25,700333	0,5	-0,178750
25,708667	0,5	-0,176550
25,717000	0,5	-0,176600
25,725333	0,5	-0,171850
25,733667	0,5	-0,173900
25,742000	0,5	-0,171600
25,750333	0,5	-0,174050
25,758667	0,5	-0,169850
25,767000	0,5	-0,171000
25,775333	0,5	-0,169950
25,783667	0,5	-0,170300
25,792000	0,5	-0,168500
25,800333	0,5	-0,168750
25,808667	0,5	-0,163100
25,817000	0,5	-0,165150
25,825333	0,5	-0,161050
25,833667	0,5	-0,168350
25,842000	0,5	-0,164200
25,850333	0,5	-0,162850
25,858667	0,5	-0,160800
25,867000	0,5	-0,155050
25,875333	0,5	-0,155450
25,883667	0,5	-0,155400
25,892000	0,5	-0,152950
25,900333	0,5	-0,150750
25,908667	0,5	-0,153750
25,917000	0,5	-0,149250
25,925333	0,5	-0,151750
25,933667	0,5	-0,151600
25,942000	0,5	-0,151900
25,950333	0,5	-0,147400
25,958667	0,5	-0,139850
25,967000	0,5	-0,137950
25,975333	0,5	-0,142950
25,983667	0,5	-0,148350
25,992000	0,5	-0,144350
26,000333	0,5	-0,147400
