File Path	chrom://chromeleon01/ikbm_chromeleon/2022/ICS-5000/ED1/Esteban/20220612_Cell_7_4_eg.seq/602.smp/ED_1.channel/ED_1.chm
Channel	ED_1

Injection Information:
Data Vault	ikbm_chromeleon
Injection	7_24h-EGS_NA
Injection Number	27
Position	RC5
Comment	
Processing Method	Stop sequence after Cell Death
Instrument Method	ICS5000_PA200_FullNative_Ox_26min_ED1
Type	Unknown
Status	Finished
Injection Date	13.06.2022
Injection Time	04:25:00
Injection Volume (µl)	5,0
Dilution Factor	1,0000
Weight	1,0000

Chromatogram Data Information:
Time Min. (min)	0,000333
Time Max. (min)	26,000333
Data Points	3121
Detector	EDet1
Generating Data System	Chromeleon 7.2.9.11323
Exporting Data System	Chromeleon 7.2.9.0
Operator	Instrument Controller
Signal Quantity	
Signal Unit	nC
Signal Min.	-1,729900
Signal Max.	1 432,046121
Channel	ED_1
Driver Name	DC-5000
Channel Type	Evaluation
Min. Step (s)	0,5
Max. Step (s)	0,5
Average Step (s)	0,5

Signal Parameter Information:
Signal Info	

Chromatogram Data:
Time (min)	Step (s)	Value (nC)
0,000333	n.a.	-0,034750
0,008667	0,5	-0,030900
0,017000	0,5	-0,026800
0,025333	0,5	-0,016900
0,033667	0,5	0,007200
0,042000	0,5	0,013150
0,050333	0,5	0,006200
0,058667	0,5	0,009550
0,067000	0,5	0,009050
0,075333	0,5	0,012700
0,083667	0,5	0,010900
0,092000	0,5	0,010500
0,100333	0,5	0,014050
0,108667	0,5	0,013700
0,117000	0,5	0,018700
0,125333	0,5	0,009100
0,133667	0,5	0,002550
0,142000	0,5	0,020700
0,150333	0,5	0,006750
0,158667	0,5	0,003050
0,167000	0,5	0,006600
0,175333	0,5	0,010350
0,183667	0,5	0,036600
0,192000	0,5	0,025800
0,200333	0,5	0,027150
0,208667	0,5	0,021150
0,217000	0,5	0,030250
0,225333	0,5	0,026350
0,233667	0,5	0,027800
0,242000	0,5	0,021650
0,250333	0,5	0,014550
0,258667	0,5	0,014900
0,267000	0,5	0,015000
0,275333	0,5	0,013150
0,283667	0,5	0,008950
0,292000	0,5	0,045500
0,300333	0,5	0,044300
0,308667	0,5	0,037850
0,317000	0,5	0,014750
0,325333	0,5	0,008550
0,333667	0,5	0,014150
0,342000	0,5	0,015100
0,350333	0,5	0,013000
0,358667	0,5	0,018600
0,367000	0,5	0,015300
0,375333	0,5	0,022050
0,383667	0,5	0,013850
0,392000	0,5	0,017500
0,400333	0,5	0,015900
0,408667	0,5	0,018050
0,417000	0,5	0,019250
0,425333	0,5	0,005100
0,433667	0,5	0,009800
0,442000	0,5	0,015650
0,450333	0,5	-0,002000
0,458667	0,5	-0,000350
0,467000	0,5	0,005350
0,475333	0,5	0,015750
0,483667	0,5	0,034800
0,492000	0,5	0,024850
0,500333	0,5	0,024500
0,508667	0,5	0,026000
0,517000	0,5	0,034750
0,525333	0,5	0,022100
0,533667	0,5	0,028400
0,542000	0,5	0,022700
0,550333	0,5	0,025500
0,558667	0,5	0,022850
0,567000	0,5	0,007600
0,575333	0,5	0,004750
0,583667	0,5	0,016400
0,592000	0,5	0,011450
0,600333	0,5	0,007050
0,608667	0,5	0,012450
0,617000	0,5	0,019850
0,625333	0,5	0,032550
0,633667	0,5	0,042200
0,642000	0,5	0,043100
0,650333	0,5	0,042200
0,658667	0,5	0,042250
0,667000	0,5	0,037750
0,675333	0,5	0,038850
0,683667	0,5	0,031500
0,692000	0,5	0,033000
0,700333	0,5	0,037250
0,708667	0,5	0,042700
0,717000	0,5	0,023700
0,725333	0,5	0,028350
0,733667	0,5	0,037800
0,742000	0,5	0,028350
0,750333	0,5	0,022200
0,758667	0,5	0,030350
0,767000	0,5	0,039350
0,775333	0,5	0,057950
0,783667	0,5	0,058500
0,792000	0,5	0,059550
0,800333	0,5	0,061050
0,808667	0,5	0,061050
0,817000	0,5	0,058800
0,825333	0,5	0,055950
0,833667	0,5	0,056850
0,842000	0,5	0,055650
0,850333	0,5	0,056750
0,858667	0,5	0,051500
0,867000	0,5	0,046200
0,875333	0,5	0,057150
0,883667	0,5	0,062350
0,892000	0,5	0,051350
0,900333	0,5	0,051000
0,908667	0,5	0,051850
0,917000	0,5	0,073250
0,925333	0,5	0,076050
0,933667	0,5	0,072550
0,942000	0,5	0,072450
0,950333	0,5	0,078300
0,958667	0,5	0,077500
0,967000	0,5	0,076650
0,975333	0,5	0,075000
0,983667	0,5	0,073500
0,992000	0,5	0,078400
1,000333	0,5	0,080350
1,008667	0,5	0,083300
1,017000	0,5	0,072450
1,025333	0,5	0,095050
1,033667	0,5	0,079550
1,042000	0,5	0,076650
1,050333	0,5	0,074900
1,058667	0,5	0,081450
1,067000	0,5	0,094150
1,075333	0,5	0,102800
1,083667	0,5	0,097400
1,092000	0,5	0,102850
1,100333	0,5	0,098350
1,108667	0,5	0,101050
1,117000	0,5	0,097700
1,125333	0,5	0,101050
1,133667	0,5	0,098050
1,142000	0,5	0,099050
1,150333	0,5	0,102650
1,158667	0,5	0,096850
1,167000	0,5	0,090350
1,175333	0,5	0,109250
1,183667	0,5	0,095000
1,192000	0,5	0,092700
1,200333	0,5	0,091350
1,208667	0,5	0,098150
1,217000	0,5	0,121450
1,225333	0,5	0,114100
1,233667	0,5	0,115350
1,242000	0,5	0,114200
1,250333	0,5	0,116250
1,258667	0,5	0,106350
1,267000	0,5	0,109200
1,275333	0,5	0,109600
1,283667	0,5	0,110850
1,292000	0,5	0,105850
1,300333	0,5	0,104150
1,308667	0,5	0,093950
1,317000	0,5	0,095500
1,325333	0,5	0,103200
1,333667	0,5	0,090050
1,342000	0,5	0,087950
1,350333	0,5	0,086550
1,358667	0,5	0,097000
1,367000	0,5	0,112200
1,375333	0,5	0,114100
1,383667	0,5	0,105500
1,392000	0,5	0,102950
1,400333	0,5	0,096150
1,408667	0,5	0,096500
1,417000	0,5	0,091450
1,425333	0,5	0,086000
1,433667	0,5	0,083550
1,442000	0,5	0,088750
1,450333	0,5	0,080100
1,458667	0,5	0,076300
1,467000	0,5	0,080550
1,475333	0,5	0,083700
1,483667	0,5	0,062100
1,492000	0,5	0,065750
1,500333	0,5	0,066700
1,508667	0,5	0,077300
1,517000	0,5	0,080250
1,525333	0,5	0,077500
1,533667	0,5	0,070700
1,542000	0,5	0,069100
1,550333	0,5	0,072950
1,558667	0,5	0,092450
1,567000	0,5	0,150000
1,575333	0,5	0,339950
1,583667	0,5	1,934950
1,592000	0,5	10,655200
1,600333	0,5	44,700301
1,608667	0,5	154,178052
1,617000	0,5	423,396706
1,625333	0,5	853,623913
1,633667	0,5	1 264,980569
1,642000	0,5	1 432,046121
1,650333	0,5	1 295,880369
1,658667	0,5	983,940565
1,667000	0,5	680,294060
1,675333	0,5	462,943357
1,683667	0,5	323,476355
1,692000	0,5	232,224003
1,700333	0,5	173,494703
1,708667	0,5	134,204752
1,717000	0,5	106,907602
1,725333	0,5	87,323651
1,733667	0,5	72,934951
1,742000	0,5	62,173651
1,750333	0,5	53,873901
1,758667	0,5	47,377801
1,767000	0,5	42,225001
1,775333	0,5	38,100451
1,783667	0,5	34,825051
1,792000	0,5	32,228450
1,800333	0,5	30,140100
1,808667	0,5	28,415300
1,817000	0,5	26,865500
1,825333	0,5	25,409750
1,833667	0,5	23,975950
1,842000	0,5	22,625250
1,850333	0,5	21,373850
1,858667	0,5	20,236350
1,867000	0,5	19,190150
1,875333	0,5	18,253300
1,883667	0,5	17,452700
1,892000	0,5	16,811950
1,900333	0,5	16,423350
1,908667	0,5	16,402400
1,917000	0,5	16,742900
1,925333	0,5	17,116550
1,933667	0,5	16,983150
1,942000	0,5	16,090350
1,950333	0,5	14,782100
1,958667	0,5	13,526300
1,967000	0,5	12,592900
1,975333	0,5	11,974650
1,983667	0,5	11,598500
1,992000	0,5	11,353900
2,000333	0,5	11,225350
2,008667	0,5	11,144700
2,017000	0,5	11,090550
2,025333	0,5	11,026500
2,033667	0,5	10,931250
2,042000	0,5	10,790400
2,050333	0,5	10,598950
2,058667	0,5	10,453750
2,067000	0,5	10,321350
2,075333	0,5	10,218750
2,083667	0,5	10,126000
2,092000	0,5	10,061400
2,100333	0,5	10,028500
2,108667	0,5	9,977100
2,117000	0,5	9,880750
2,125333	0,5	9,770900
2,133667	0,5	9,644950
2,142000	0,5	9,548900
2,150333	0,5	9,483750
2,158667	0,5	9,486150
2,167000	0,5	9,538900
2,175333	0,5	9,652100
2,183667	0,5	9,831450
2,192000	0,5	10,202800
2,200333	0,5	11,032750
2,208667	0,5	12,154050
2,217000	0,5	12,088300
2,225333	0,5	10,989400
2,233667	0,5	10,173500
2,242000	0,5	9,831500
2,250333	0,5	9,727350
2,258667	0,5	9,692900
2,267000	0,5	9,706200
2,275333	0,5	9,736000
2,283667	0,5	9,771100
2,292000	0,5	9,804850
2,300333	0,5	9,849300
2,308667	0,5	9,902350
2,317000	0,5	9,979150
2,325333	0,5	10,064450
2,333667	0,5	10,161650
2,342000	0,5	10,267300
2,350333	0,5	10,446050
2,358667	0,5	10,735200
2,367000	0,5	11,199150
2,375333	0,5	11,951700
2,383667	0,5	13,110350
2,392000	0,5	14,922000
2,400333	0,5	17,827500
2,408667	0,5	22,101750
2,417000	0,5	27,064300
2,425333	0,5	30,697150
2,433667	0,5	31,144850
2,442000	0,5	28,526400
2,450333	0,5	24,563750
2,458667	0,5	20,877400
2,467000	0,5	18,106650
2,475333	0,5	16,217550
2,483667	0,5	14,936400
2,492000	0,5	14,067650
2,500333	0,5	13,463800
2,508667	0,5	13,025450
2,517000	0,5	12,687550
2,525333	0,5	12,428750
2,533667	0,5	12,201900
2,542000	0,5	12,022250
2,550333	0,5	11,855700
2,558667	0,5	11,692100
2,567000	0,5	11,539150
2,575333	0,5	11,420450
2,583667	0,5	11,346550
2,592000	0,5	11,365600
2,600333	0,5	11,546550
2,608667	0,5	11,991500
2,617000	0,5	12,711400
2,625333	0,5	13,501950
2,633667	0,5	14,005700
2,642000	0,5	13,935650
2,650333	0,5	13,335650
2,658667	0,5	12,451900
2,667000	0,5	11,612700
2,675333	0,5	10,970350
2,683667	0,5	10,537800
2,692000	0,5	10,251100
2,700333	0,5	10,049050
2,708667	0,5	9,889400
2,717000	0,5	9,768550
2,725333	0,5	9,644950
2,733667	0,5	9,539250
2,742000	0,5	9,432050
2,750333	0,5	9,329050
2,758667	0,5	9,219700
2,767000	0,5	9,104700
2,775333	0,5	8,974200
2,783667	0,5	8,818400
2,792000	0,5	8,675700
2,800333	0,5	8,536400
2,808667	0,5	8,388850
2,817000	0,5	8,243150
2,825333	0,5	8,117600
2,833667	0,5	7,998900
2,842000	0,5	7,889250
2,850333	0,5	7,766250
2,858667	0,5	7,654200
2,867000	0,5	7,537150
2,875333	0,5	7,428500
2,883667	0,5	7,308650
2,892000	0,5	7,196200
2,900333	0,5	7,076800
2,908667	0,5	6,962000
2,917000	0,5	6,840300
2,925333	0,5	6,725250
2,933667	0,5	6,609600
2,942000	0,5	6,511100
2,950333	0,5	6,410150
2,958667	0,5	6,309950
2,967000	0,5	6,217450
2,975333	0,5	6,140100
2,983667	0,5	6,067150
2,992000	0,5	5,985650
3,000333	0,5	5,901300
3,008667	0,5	5,806750
3,017000	0,5	5,714000
3,025333	0,5	5,613450
3,033667	0,5	5,515950
3,042000	0,5	5,415900
3,050333	0,5	5,327250
3,058667	0,5	5,241300
3,067000	0,5	5,156250
3,075333	0,5	5,081750
3,083667	0,5	4,990550
3,092000	0,5	4,922550
3,100333	0,5	4,839000
3,108667	0,5	4,746750
3,117000	0,5	4,668050
3,125333	0,5	4,591300
3,133667	0,5	4,530950
3,142000	0,5	4,463400
3,150333	0,5	4,390500
3,158667	0,5	4,326350
3,167000	0,5	4,260150
3,175333	0,5	4,202450
3,183667	0,5	4,141450
3,192000	0,5	4,088100
3,200333	0,5	4,029950
3,208667	0,5	3,973200
3,217000	0,5	3,914400
3,225333	0,5	3,859550
3,233667	0,5	3,793800
3,242000	0,5	3,751000
3,250333	0,5	3,687250
3,258667	0,5	3,639150
3,267000	0,5	3,587300
3,275333	0,5	3,550650
3,283667	0,5	3,523800
3,292000	0,5	3,491850
3,300333	0,5	3,458500
3,308667	0,5	3,431550
3,317000	0,5	3,414200
3,325333	0,5	3,398400
3,333667	0,5	3,391350
3,342000	0,5	3,394050
3,350333	0,5	3,417450
3,358667	0,5	3,459700
3,367000	0,5	3,546150
3,375333	0,5	3,686950
3,383667	0,5	3,917400
3,392000	0,5	4,223900
3,400333	0,5	4,578500
3,408667	0,5	4,950650
3,417000	0,5	5,263500
3,425333	0,5	5,457450
3,433667	0,5	5,492200
3,442000	0,5	5,339250
3,450333	0,5	5,066200
3,458667	0,5	4,729850
3,467000	0,5	4,395550
3,475333	0,5	4,095450
3,483667	0,5	3,850050
3,492000	0,5	3,644050
3,500333	0,5	3,471550
3,508667	0,5	3,321950
3,517000	0,5	3,182700
3,525333	0,5	3,059300
3,533667	0,5	2,966250
3,542000	0,5	2,879850
3,550333	0,5	2,808700
3,558667	0,5	2,762400
3,567000	0,5	2,727800
3,575333	0,5	2,712700
3,583667	0,5	2,688750
3,592000	0,5	2,665200
3,600333	0,5	2,628250
3,608667	0,5	2,600650
3,617000	0,5	2,569150
3,625333	0,5	2,551500
3,633667	0,5	2,525200
3,642000	0,5	2,506700
3,650333	0,5	2,494750
3,658667	0,5	2,486950
3,667000	0,5	2,476850
3,675333	0,5	2,471400
3,683667	0,5	2,472200
3,692000	0,5	2,450000
3,700333	0,5	2,428750
3,708667	0,5	2,411250
3,717000	0,5	2,389950
3,725333	0,5	2,371500
3,733667	0,5	2,342150
3,742000	0,5	2,308400
3,750333	0,5	2,282450
3,758667	0,5	2,248250
3,767000	0,5	2,221750
3,775333	0,5	2,192800
3,783667	0,5	2,170300
3,792000	0,5	2,141150
3,800333	0,5	2,120350
3,808667	0,5	2,105100
3,817000	0,5	2,084000
3,825333	0,5	2,067750
3,833667	0,5	2,058600
3,842000	0,5	2,033250
3,850333	0,5	2,011850
3,858667	0,5	1,999850
3,867000	0,5	1,985200
3,875333	0,5	1,978650
3,883667	0,5	1,953000
3,892000	0,5	1,939800
3,900333	0,5	1,916450
3,908667	0,5	1,904050
3,917000	0,5	1,881550
3,925333	0,5	1,867900
3,933667	0,5	1,845050
3,942000	0,5	1,833500
3,950333	0,5	1,814400
3,958667	0,5	1,799300
3,967000	0,5	1,776950
3,975333	0,5	1,772900
3,983667	0,5	1,756750
3,992000	0,5	1,740600
4,000333	0,5	1,728200
4,008667	0,5	1,728950
4,017000	0,5	1,729000
4,025333	0,5	1,726150
4,033667	0,5	1,717450
4,042000	0,5	1,711250
4,050333	0,5	1,705600
4,058667	0,5	1,702050
4,067000	0,5	1,699550
4,075333	0,5	1,691000
4,083667	0,5	1,688050
4,092000	0,5	1,681300
4,100333	0,5	1,687750
4,108667	0,5	1,692100
4,117000	0,5	1,703500
4,125333	0,5	1,732350
4,133667	0,5	1,759600
4,142000	0,5	1,792750
4,150333	0,5	1,835800
4,158667	0,5	1,887750
4,167000	0,5	1,942750
4,175333	0,5	1,966700
4,183667	0,5	1,967350
4,192000	0,5	1,949050
4,200333	0,5	1,915500
4,208667	0,5	1,871000
4,217000	0,5	1,819100
4,225333	0,5	1,764400
4,233667	0,5	1,714500
4,242000	0,5	1,675650
4,250333	0,5	1,644500
4,258667	0,5	1,622550
4,267000	0,5	1,597450
4,275333	0,5	1,587600
4,283667	0,5	1,560950
4,292000	0,5	1,551750
4,300333	0,5	1,532350
4,308667	0,5	1,531500
4,317000	0,5	1,529350
4,325333	0,5	1,521150
4,333667	0,5	1,507500
4,342000	0,5	1,504550
4,350333	0,5	1,490600
4,358667	0,5	1,485200
4,367000	0,5	1,471400
4,375333	0,5	1,457300
4,383667	0,5	1,441450
4,392000	0,5	1,429450
4,400333	0,5	1,414000
4,408667	0,5	1,395300
4,417000	0,5	1,388300
4,425333	0,5	1,384650
4,433667	0,5	1,368500
4,442000	0,5	1,364650
4,450333	0,5	1,363300
4,458667	0,5	1,369950
4,467000	0,5	1,379950
4,475333	0,5	1,380150
4,483667	0,5	1,383500
4,492000	0,5	1,382850
4,500333	0,5	1,387400
4,508667	0,5	1,381150
4,517000	0,5	1,381900
4,525333	0,5	1,374450
4,533667	0,5	1,367700
4,542000	0,5	1,363650
4,550333	0,5	1,348450
4,558667	0,5	1,333900
4,567000	0,5	1,332550
4,575333	0,5	1,316950
4,583667	0,5	1,298700
4,592000	0,5	1,290300
4,600333	0,5	1,282000
4,608667	0,5	1,287250
4,617000	0,5	1,281450
4,625333	0,5	1,281100
4,633667	0,5	1,268950
4,642000	0,5	1,265450
4,650333	0,5	1,257950
4,658667	0,5	1,259300
4,667000	0,5	1,251250
4,675333	0,5	1,247550
4,683667	0,5	1,243150
4,692000	0,5	1,239350
4,700333	0,5	1,233150
4,708667	0,5	1,233200
4,717000	0,5	1,249300
4,725333	0,5	1,251450
4,733667	0,5	1,267250
4,742000	0,5	1,295700
4,750333	0,5	1,334600
4,758667	0,5	1,391400
4,767000	0,5	1,449050
4,775333	0,5	1,506950
4,783667	0,5	1,573100
4,792000	0,5	1,625750
4,800333	0,5	1,668150
4,808667	0,5	1,678300
4,817000	0,5	1,680250
4,825333	0,5	1,649550
4,833667	0,5	1,603800
4,842000	0,5	1,542950
4,850333	0,5	1,475150
4,858667	0,5	1,407100
4,867000	0,5	1,349800
4,875333	0,5	1,283850
4,883667	0,5	1,235550
4,892000	0,5	1,205600
4,900333	0,5	1,182350
4,908667	0,5	1,176200
4,917000	0,5	1,158450
4,925333	0,5	1,145950
4,933667	0,5	1,140400
4,942000	0,5	1,138650
4,950333	0,5	1,131100
4,958667	0,5	1,124050
4,967000	0,5	1,113500
4,975333	0,5	1,109150
4,983667	0,5	1,100600
4,992000	0,5	1,096300
5,000333	0,5	1,078500
5,008667	0,5	1,079100
5,017000	0,5	1,070200
5,025333	0,5	1,058350
5,033667	0,5	1,052900
5,042000	0,5	1,058300
5,050333	0,5	1,059100
5,058667	0,5	1,062950
5,067000	0,5	1,052700
5,075333	0,5	1,053950
5,083667	0,5	1,049050
5,092000	0,5	1,049850
5,100333	0,5	1,044750
5,108667	0,5	1,040250
5,117000	0,5	1,036150
5,125333	0,5	1,029550
5,133667	0,5	1,033250
5,142000	0,5	1,021950
5,150333	0,5	1,017850
5,158667	0,5	1,021300
5,167000	0,5	1,014600
5,175333	0,5	1,011300
5,183667	0,5	1,013250
5,192000	0,5	1,013250
5,200333	0,5	1,028100
5,208667	0,5	1,031200
5,217000	0,5	1,030550
5,225333	0,5	1,030650
5,233667	0,5	1,039750
5,242000	0,5	1,038500
5,250333	0,5	1,045600
5,258667	0,5	1,044400
5,267000	0,5	1,048200
5,275333	0,5	1,051800
5,283667	0,5	1,055150
5,292000	0,5	1,048600
5,300333	0,5	1,043800
5,308667	0,5	1,040600
5,317000	0,5	1,023800
5,325333	0,5	1,017750
5,333667	0,5	1,011050
5,342000	0,5	1,013100
5,350333	0,5	1,015550
5,358667	0,5	1,015750
5,367000	0,5	1,010000
5,375333	0,5	1,012950
5,383667	0,5	1,005500
5,392000	0,5	1,007900
5,400333	0,5	1,002800
5,408667	0,5	1,001050
5,417000	0,5	0,997450
5,425333	0,5	0,995050
5,433667	0,5	0,989450
5,442000	0,5	0,982800
5,450333	0,5	0,984500
5,458667	0,5	0,981000
5,467000	0,5	0,965050
5,475333	0,5	0,957200
5,483667	0,5	0,950750
5,492000	0,5	0,952800
5,500333	0,5	0,950800
5,508667	0,5	0,943900
5,517000	0,5	0,942100
5,525333	0,5	0,932700
5,533667	0,5	0,930100
5,542000	0,5	0,916450
5,550333	0,5	0,910850
5,558667	0,5	0,899350
5,567000	0,5	0,895950
5,575333	0,5	0,889800
5,583667	0,5	0,879600
5,592000	0,5	0,869750
5,600333	0,5	0,872950
5,608667	0,5	0,863600
5,617000	0,5	0,854400
5,625333	0,5	0,854100
5,633667	0,5	0,853150
5,642000	0,5	0,858700
5,650333	0,5	0,856200
5,658667	0,5	0,858000
5,667000	0,5	0,856650
5,675333	0,5	0,857250
5,683667	0,5	0,851550
5,692000	0,5	0,851450
5,700333	0,5	0,845950
5,708667	0,5	0,845400
5,717000	0,5	0,838700
5,725333	0,5	0,839400
5,733667	0,5	0,832000
5,742000	0,5	0,825600
5,750333	0,5	0,824600
5,758667	0,5	0,815700
5,767000	0,5	0,806300
5,775333	0,5	0,802050
5,783667	0,5	0,795400
5,792000	0,5	0,802000
5,800333	0,5	0,798050
5,808667	0,5	0,795800
5,817000	0,5	0,793700
5,825333	0,5	0,794600
5,833667	0,5	0,790550
5,842000	0,5	0,788600
5,850333	0,5	0,786400
5,858667	0,5	0,776350
5,867000	0,5	0,773000
5,875333	0,5	0,766650
5,883667	0,5	0,759750
5,892000	0,5	0,752950
5,900333	0,5	0,747800
5,908667	0,5	0,733950
5,917000	0,5	0,727400
5,925333	0,5	0,724500
5,933667	0,5	0,724250
5,942000	0,5	0,731550
5,950333	0,5	0,724300
5,958667	0,5	0,721700
5,967000	0,5	0,723450
5,975333	0,5	0,721950
5,983667	0,5	0,719750
5,992000	0,5	0,719500
6,000333	0,5	0,714100
6,008667	0,5	0,712050
6,017000	0,5	0,707050
6,025333	0,5	0,708250
6,033667	0,5	0,697900
6,042000	0,5	0,700650
6,050333	0,5	0,695250
6,058667	0,5	0,688700
6,067000	0,5	0,684450
6,075333	0,5	0,684300
6,083667	0,5	0,689550
6,092000	0,5	0,696200
6,100333	0,5	0,691500
6,108667	0,5	0,693700
6,117000	0,5	0,696650
6,125333	0,5	0,699350
6,133667	0,5	0,696900
6,142000	0,5	0,702750
6,150333	0,5	0,703150
6,158667	0,5	0,709650
6,167000	0,5	0,710900
6,175333	0,5	0,714450
6,183667	0,5	0,720050
6,192000	0,5	0,736350
6,200333	0,5	0,748350
6,208667	0,5	0,769700
6,217000	0,5	0,801100
6,225333	0,5	0,844050
6,233667	0,5	0,892850
6,242000	0,5	0,940050
6,250333	0,5	0,979250
6,258667	0,5	1,003850
6,267000	0,5	1,011600
6,275333	0,5	1,002350
6,283667	0,5	0,979550
6,292000	0,5	0,939750
6,300333	0,5	0,900700
6,308667	0,5	0,859300
6,317000	0,5	0,825400
6,325333	0,5	0,795600
6,333667	0,5	0,778800
6,342000	0,5	0,767100
6,350333	0,5	0,762500
6,358667	0,5	0,758750
6,367000	0,5	0,759250
6,375333	0,5	0,763850
6,383667	0,5	0,769000
6,392000	0,5	0,767300
6,400333	0,5	0,760850
6,408667	0,5	0,758950
6,417000	0,5	0,750500
6,425333	0,5	0,746950
6,433667	0,5	0,740650
6,442000	0,5	0,737350
6,450333	0,5	0,738100
6,458667	0,5	0,741250
6,467000	0,5	0,745100
6,475333	0,5	0,756050
6,483667	0,5	0,777350
6,492000	0,5	0,797550
6,500333	0,5	0,812750
6,508667	0,5	0,838150
6,517000	0,5	0,862100
6,525333	0,5	0,887250
6,533667	0,5	0,905450
6,542000	0,5	0,910800
6,550333	0,5	0,908000
6,558667	0,5	0,890650
6,567000	0,5	0,878050
6,575333	0,5	0,856600
6,583667	0,5	0,833300
6,592000	0,5	0,808450
6,600333	0,5	0,791300
6,608667	0,5	0,782400
6,617000	0,5	0,770050
6,625333	0,5	0,760150
6,633667	0,5	0,762750
6,642000	0,5	0,754600
6,650333	0,5	0,749300
6,658667	0,5	0,752100
6,667000	0,5	0,756850
6,675333	0,5	0,760150
6,683667	0,5	0,763650
6,692000	0,5	0,764550
6,700333	0,5	0,770400
6,708667	0,5	0,772850
6,717000	0,5	0,777100
6,725333	0,5	0,778900
6,733667	0,5	0,781750
6,742000	0,5	0,784900
6,750333	0,5	0,783400
6,758667	0,5	0,782100
6,767000	0,5	0,779300
6,775333	0,5	0,779550
6,783667	0,5	0,777900
6,792000	0,5	0,770800
6,800333	0,5	0,765900
6,808667	0,5	0,766350
6,817000	0,5	0,765300
6,825333	0,5	0,771050
6,833667	0,5	0,765450
6,842000	0,5	0,766850
6,850333	0,5	0,762000
6,858667	0,5	0,764600
6,867000	0,5	0,763450
6,875333	0,5	0,764850
6,883667	0,5	0,764450
6,892000	0,5	0,761450
6,900333	0,5	0,763800
6,908667	0,5	0,768000
6,917000	0,5	0,768450
6,925333	0,5	0,767900
6,933667	0,5	0,776400
6,942000	0,5	0,771500
6,950333	0,5	0,772250
6,958667	0,5	0,773050
6,967000	0,5	0,778050
6,975333	0,5	0,784750
6,983667	0,5	0,784900
6,992000	0,5	0,784400
7,000333	0,5	0,787650
7,008667	0,5	0,789000
7,017000	0,5	0,792100
7,025333	0,5	0,790450
7,033667	0,5	0,789550
7,042000	0,5	0,791000
7,050333	0,5	0,789700
7,058667	0,5	0,789700
7,067000	0,5	0,785200
7,075333	0,5	0,789750
7,083667	0,5	0,789850
7,092000	0,5	0,793500
7,100333	0,5	0,800550
7,108667	0,5	0,810550
7,117000	0,5	0,822700
7,125333	0,5	0,834600
7,133667	0,5	0,839450
7,142000	0,5	0,839350
7,150333	0,5	0,837550
7,158667	0,5	0,836750
7,167000	0,5	0,837750
7,175333	0,5	0,838550
7,183667	0,5	0,843700
7,192000	0,5	0,849550
7,200333	0,5	0,853650
7,208667	0,5	0,852500
7,217000	0,5	0,848750
7,225333	0,5	0,847850
7,233667	0,5	0,842300
7,242000	0,5	0,840600
7,250333	0,5	0,838650
7,258667	0,5	0,842600
7,267000	0,5	0,846300
7,275333	0,5	0,853000
7,283667	0,5	0,860150
7,292000	0,5	0,870300
7,300333	0,5	0,886650
7,308667	0,5	0,905550
7,317000	0,5	0,935200
7,325333	0,5	0,971100
7,333667	0,5	1,017200
7,342000	0,5	1,067950
7,350333	0,5	1,118400
7,358667	0,5	1,151950
7,367000	0,5	1,176000
7,375333	0,5	1,176750
7,383667	0,5	1,153350
7,392000	0,5	1,117500
7,400333	0,5	1,071350
7,408667	0,5	1,032300
7,417000	0,5	0,998050
7,425333	0,5	0,969400
7,433667	0,5	0,947100
7,442000	0,5	0,929550
7,450333	0,5	0,920050
7,458667	0,5	0,911450
7,467000	0,5	0,909750
7,475333	0,5	0,904650
7,483667	0,5	0,905100
7,492000	0,5	0,902050
7,500333	0,5	0,902300
7,508667	0,5	0,904900
7,517000	0,5	0,906500
7,525333	0,5	0,909150
7,533667	0,5	0,905150
7,542000	0,5	0,900900
7,550333	0,5	0,896750
7,558667	0,5	0,901050
7,567000	0,5	0,900950
7,575333	0,5	0,900550
7,583667	0,5	0,900550
7,592000	0,5	0,902800
7,600333	0,5	0,905850
7,608667	0,5	0,906250
7,617000	0,5	0,907950
7,625333	0,5	0,908250
7,633667	0,5	0,911050
7,642000	0,5	0,917000
7,650333	0,5	0,918850
7,658667	0,5	0,914050
7,667000	0,5	0,923400
7,675333	0,5	0,923400
7,683667	0,5	0,923200
7,692000	0,5	0,924350
7,700333	0,5	0,929500
7,708667	0,5	0,942550
7,717000	0,5	0,956250
7,725333	0,5	0,969100
7,733667	0,5	0,986800
7,742000	0,5	1,003450
7,750333	0,5	1,017550
7,758667	0,5	1,029400
7,767000	0,5	1,030800
7,775333	0,5	1,028550
7,783667	0,5	1,024050
7,792000	0,5	1,018400
7,800333	0,5	1,009850
7,808667	0,5	1,003500
7,817000	0,5	1,000450
7,825333	0,5	1,000350
7,833667	0,5	0,999650
7,842000	0,5	0,998650
7,850333	0,5	1,003750
7,858667	0,5	1,012050
7,867000	0,5	1,012650
7,875333	0,5	1,013500
7,883667	0,5	1,013000
7,892000	0,5	1,015350
7,900333	0,5	1,022400
7,908667	0,5	1,028100
7,917000	0,5	1,035750
7,925333	0,5	1,045200
7,933667	0,5	1,058550
7,942000	0,5	1,075150
7,950333	0,5	1,092400
7,958667	0,5	1,111350
7,967000	0,5	1,134500
7,975333	0,5	1,155250
7,983667	0,5	1,181200
7,992000	0,5	1,205150
8,000333	0,5	1,227950
8,008667	0,5	1,246400
8,017000	0,5	1,250500
8,025333	0,5	1,238200
8,033667	0,5	1,214200
8,042000	0,5	1,182700
8,050333	0,5	1,153900
8,058667	0,5	1,120400
8,067000	0,5	1,105750
8,075333	0,5	1,091400
8,083667	0,5	1,094450
8,092000	0,5	1,115550
8,100333	0,5	1,159100
8,108667	0,5	1,216650
8,117000	0,5	1,277700
8,125333	0,5	1,323050
8,133667	0,5	1,347900
8,142000	0,5	1,334350
8,150333	0,5	1,291950
8,158667	0,5	1,237950
8,167000	0,5	1,174400
8,175333	0,5	1,120100
8,183667	0,5	1,084650
8,192000	0,5	1,061150
8,200333	0,5	1,047250
8,208667	0,5	1,042750
8,217000	0,5	1,039950
8,225333	0,5	1,040200
8,233667	0,5	1,042000
8,242000	0,5	1,052150
8,250333	0,5	1,065700
8,258667	0,5	1,087300
8,267000	0,5	1,113150
8,275333	0,5	1,135100
8,283667	0,5	1,156200
8,292000	0,5	1,170600
8,300333	0,5	1,178450
8,308667	0,5	1,180000
8,317000	0,5	1,172000
8,325333	0,5	1,164950
8,333667	0,5	1,157500
8,342000	0,5	1,161600
8,350333	0,5	1,178900
8,358667	0,5	1,209850
8,367000	0,5	1,256200
8,375333	0,5	1,316750
8,383667	0,5	1,374550
8,392000	0,5	1,419500
8,400333	0,5	1,447700
8,408667	0,5	1,442400
8,417000	0,5	1,413950
8,425333	0,5	1,366200
8,433667	0,5	1,306700
8,442000	0,5	1,248450
8,450333	0,5	1,199450
8,458667	0,5	1,160600
8,467000	0,5	1,129700
8,475333	0,5	1,107200
8,483667	0,5	1,098150
8,492000	0,5	1,091250
8,500333	0,5	1,093600
8,508667	0,5	1,094750
8,517000	0,5	1,099700
8,525333	0,5	1,106050
8,533667	0,5	1,115900
8,542000	0,5	1,131300
8,550333	0,5	1,155250
8,558667	0,5	1,189100
8,567000	0,5	1,211250
8,575333	0,5	1,234700
8,583667	0,5	1,250700
8,592000	0,5	1,261550
8,600333	0,5	1,274550
8,608667	0,5	1,298050
8,617000	0,5	1,341950
8,625333	0,5	1,391300
8,633667	0,5	1,434550
8,642000	0,5	1,450250
8,650333	0,5	1,426750
8,658667	0,5	1,371850
8,667000	0,5	1,301250
8,675333	0,5	1,227150
8,683667	0,5	1,171150
8,692000	0,5	1,132400
8,700333	0,5	1,107650
8,708667	0,5	1,092200
8,717000	0,5	1,082150
8,725333	0,5	1,078050
8,733667	0,5	1,076150
8,742000	0,5	1,075200
8,750333	0,5	1,082850
8,758667	0,5	1,081200
8,767000	0,5	1,083700
8,775333	0,5	1,087700
8,783667	0,5	1,094000
8,792000	0,5	1,098350
8,800333	0,5	1,102650
8,808667	0,5	1,116800
8,817000	0,5	1,128400
8,825333	0,5	1,148650
8,833667	0,5	1,179900
8,842000	0,5	1,228700
8,850333	0,5	1,292350
8,858667	0,5	1,370150
8,867000	0,5	1,451300
8,875333	0,5	1,523050
8,883667	0,5	1,580100
8,892000	0,5	1,620000
8,900333	0,5	1,632450
8,908667	0,5	1,630100
8,917000	0,5	1,613300
8,925333	0,5	1,580250
8,933667	0,5	1,542850
8,942000	0,5	1,490850
8,950333	0,5	1,439050
8,958667	0,5	1,385000
8,967000	0,5	1,326600
8,975333	0,5	1,282050
8,983667	0,5	1,247950
8,992000	0,5	1,231350
9,000333	0,5	1,242850
9,008667	0,5	1,279150
9,017000	0,5	1,336600
9,025333	0,5	1,398400
9,033667	0,5	1,448250
9,042000	0,5	1,479600
9,050333	0,5	1,477500
9,058667	0,5	1,452400
9,067000	0,5	1,420600
9,075333	0,5	1,395050
9,083667	0,5	1,372450
9,092000	0,5	1,354600
9,100333	0,5	1,336800
9,108667	0,5	1,322850
9,117000	0,5	1,311350
9,125333	0,5	1,303800
9,133667	0,5	1,300000
9,142000	0,5	1,302750
9,150333	0,5	1,318600
9,158667	0,5	1,330100
9,167000	0,5	1,339500
9,175333	0,5	1,344000
9,183667	0,5	1,332300
9,192000	0,5	1,306650
9,200333	0,5	1,269150
9,208667	0,5	1,230350
9,217000	0,5	1,195750
9,225333	0,5	1,161800
9,233667	0,5	1,139800
9,242000	0,5	1,126800
9,250333	0,5	1,117550
9,258667	0,5	1,108600
9,267000	0,5	1,108250
9,275333	0,5	1,102950
9,283667	0,5	1,101400
9,292000	0,5	1,099850
9,300333	0,5	1,096700
9,308667	0,5	1,092600
9,317000	0,5	1,092900
9,325333	0,5	1,100000
9,333667	0,5	1,119200
9,342000	0,5	1,157700
9,350333	0,5	1,211200
9,358667	0,5	1,283300
9,367000	0,5	1,361450
9,375333	0,5	1,441100
9,383667	0,5	1,496600
9,392000	0,5	1,537500
9,400333	0,5	1,552350
9,408667	0,5	1,540300
9,417000	0,5	1,508100
9,425333	0,5	1,461350
9,433667	0,5	1,397200
9,442000	0,5	1,333400
9,450333	0,5	1,268600
9,458667	0,5	1,206700
9,467000	0,5	1,155300
9,475333	0,5	1,114500
9,483667	0,5	1,090100
9,492000	0,5	1,071400
9,500333	0,5	1,059000
9,508667	0,5	1,053300
9,517000	0,5	1,050450
9,525333	0,5	1,054350
9,533667	0,5	1,058450
9,542000	0,5	1,066600
9,550333	0,5	1,078750
9,558667	0,5	1,087300
9,567000	0,5	1,102250
9,575333	0,5	1,118500
9,583667	0,5	1,137500
9,592000	0,5	1,171250
9,600333	0,5	1,202950
9,608667	0,5	1,228850
9,617000	0,5	1,247150
9,625333	0,5	1,251000
9,633667	0,5	1,243450
9,642000	0,5	1,221400
9,650333	0,5	1,202900
9,658667	0,5	1,186300
9,667000	0,5	1,180400
9,675333	0,5	1,175500
9,683667	0,5	1,160350
9,692000	0,5	1,137700
9,700333	0,5	1,104050
9,708667	0,5	1,076500
9,717000	0,5	1,050650
9,725333	0,5	1,039850
9,733667	0,5	1,038450
9,742000	0,5	1,057950
9,750333	0,5	1,091550
9,758667	0,5	1,146600
9,767000	0,5	1,219200
9,775333	0,5	1,292300
9,783667	0,5	1,358450
9,792000	0,5	1,392750
9,800333	0,5	1,387800
9,808667	0,5	1,349750
9,817000	0,5	1,296950
9,825333	0,5	1,231750
9,833667	0,5	1,172750
9,842000	0,5	1,118750
9,850333	0,5	1,070500
9,858667	0,5	1,031550
9,867000	0,5	1,009850
9,875333	0,5	0,993350
9,883667	0,5	0,988500
9,892000	0,5	0,994200
9,900333	0,5	1,010550
9,908667	0,5	1,035200
9,917000	0,5	1,066800
9,925333	0,5	1,104000
9,933667	0,5	1,140900
9,942000	0,5	1,161750
9,950333	0,5	1,175250
9,958667	0,5	1,183800
9,967000	0,5	1,188500
9,975333	0,5	1,185700
9,983667	0,5	1,173050
9,992000	0,5	1,146600
10,000333	0,5	1,112300
10,008667	0,5	1,073650
10,017000	0,5	1,031550
10,025333	0,5	0,993450
10,033667	0,5	0,976850
10,042000	0,5	0,971150
10,050333	0,5	0,981650
10,058667	0,5	1,018800
10,067000	0,5	1,078300
10,075333	0,5	1,163850
10,083667	0,5	1,247950
10,092000	0,5	1,316150
10,100333	0,5	1,358400
10,108667	0,5	1,364700
10,117000	0,5	1,332050
10,125333	0,5	1,281300
10,133667	0,5	1,222300
10,142000	0,5	1,161100
10,150333	0,5	1,107100
10,158667	0,5	1,060750
10,167000	0,5	1,019050
10,175333	0,5	0,980850
10,183667	0,5	0,962600
10,192000	0,5	0,950450
10,200333	0,5	0,953200
10,208667	0,5	0,966700
10,217000	0,5	0,991600
10,225333	0,5	1,022800
10,233667	0,5	1,054950
10,242000	0,5	1,084100
10,250333	0,5	1,103950
10,258667	0,5	1,111800
10,267000	0,5	1,116850
10,275333	0,5	1,125700
10,283667	0,5	1,158050
10,292000	0,5	1,219250
10,300333	0,5	1,299700
10,308667	0,5	1,386150
10,317000	0,5	1,454450
10,325333	0,5	1,478800
10,333667	0,5	1,457750
10,342000	0,5	1,403200
10,350333	0,5	1,325200
10,358667	0,5	1,250150
10,367000	0,5	1,188650
10,375333	0,5	1,162100
10,383667	0,5	1,171300
10,392000	0,5	1,218800
10,400333	0,5	1,306300
10,408667	0,5	1,446500
10,417000	0,5	1,652200
10,425333	0,5	1,947050
10,433667	0,5	2,370750
10,442000	0,5	2,783750
10,450333	0,5	2,884600
10,458667	0,5	2,697950
10,467000	0,5	2,315550
10,475333	0,5	1,715150
10,483667	0,5	1,084650
10,492000	0,5	0,638400
10,500333	0,5	0,386800
10,508667	0,5	0,244550
10,517000	0,5	0,166850
10,525333	0,5	0,111650
10,533667	0,5	0,075600
10,542000	0,5	0,047050
10,550333	0,5	0,023700
10,558667	0,5	0,003900
10,567000	0,5	-0,018200
10,575333	0,5	-0,040400
10,583667	0,5	-0,062950
10,592000	0,5	-0,084250
10,600333	0,5	-0,104300
10,608667	0,5	-0,122850
10,617000	0,5	-0,147450
10,625333	0,5	-0,158900
10,633667	0,5	-0,172650
10,642000	0,5	-0,189950
10,650333	0,5	-0,201300
10,658667	0,5	-0,212300
10,667000	0,5	-0,214650
10,675333	0,5	-0,221500
10,683667	0,5	-0,220550
10,692000	0,5	-0,218800
10,700333	0,5	-0,211050
10,708667	0,5	-0,205150
10,717000	0,5	-0,195500
10,725333	0,5	-0,189650
10,733667	0,5	-0,179150
10,742000	0,5	-0,181100
10,750333	0,5	-0,179100
10,758667	0,5	-0,181900
10,767000	0,5	-0,190650
10,775333	0,5	-0,197100
10,783667	0,5	-0,210950
10,792000	0,5	-0,225900
10,800333	0,5	-0,242500
10,808667	0,5	-0,256150
10,817000	0,5	-0,265450
10,825333	0,5	-0,271200
10,833667	0,5	-0,282800
10,842000	0,5	-0,288850
10,850333	0,5	-0,294900
10,858667	0,5	-0,298450
10,867000	0,5	-0,305600
10,875333	0,5	-0,310500
10,883667	0,5	-0,313350
10,892000	0,5	-0,320900
10,900333	0,5	-0,324800
10,908667	0,5	-0,328100
10,917000	0,5	-0,332550
10,925333	0,5	-0,337100
10,933667	0,5	-0,346550
10,942000	0,5	-0,355800
10,950333	0,5	-0,363000
10,958667	0,5	-0,368050
10,967000	0,5	-0,369550
10,975333	0,5	-0,373850
10,983667	0,5	-0,381050
10,992000	0,5	-0,388050
11,000333	0,5	-0,388050
11,008667	0,5	-0,391250
11,017000	0,5	-0,393450
11,025333	0,5	-0,396250
11,033667	0,5	-0,399100
11,042000	0,5	-0,399550
11,050333	0,5	-0,396250
11,058667	0,5	-0,398250
11,067000	0,5	-0,392200
11,075333	0,5	-0,391500
11,083667	0,5	-0,392100
11,092000	0,5	-0,395150
11,100333	0,5	-0,397700
11,108667	0,5	-0,395700
11,117000	0,5	-0,395550
11,125333	0,5	-0,396100
11,133667	0,5	-0,397200
11,142000	0,5	-0,400650
11,150333	0,5	-0,402600
11,158667	0,5	-0,401700
11,167000	0,5	-0,404100
11,175333	0,5	-0,406300
11,183667	0,5	-0,409300
11,192000	0,5	-0,409450
11,200333	0,5	-0,415150
11,208667	0,5	-0,415750
11,217000	0,5	-0,412350
11,225333	0,5	-0,412000
11,233667	0,5	-0,417650
11,242000	0,5	-0,420000
11,250333	0,5	-0,420550
11,258667	0,5	-0,418000
11,267000	0,5	-0,412850
11,275333	0,5	-0,409500
11,283667	0,5	-0,406000
11,292000	0,5	-0,404650
11,300333	0,5	-0,399900
11,308667	0,5	-0,398900
11,317000	0,5	-0,397200
11,325333	0,5	-0,391650
11,333667	0,5	-0,390200
11,342000	0,5	-0,382100
11,350333	0,5	-0,379650
11,358667	0,5	-0,371100
11,367000	0,5	-0,363550
11,375333	0,5	-0,356850
11,383667	0,5	-0,349000
11,392000	0,5	-0,347750
11,400333	0,5	-0,338200
11,408667	0,5	-0,328650
11,417000	0,5	-0,318350
11,425333	0,5	-0,313800
11,433667	0,5	-0,304050
11,442000	0,5	-0,299250
11,450333	0,5	-0,289200
11,458667	0,5	-0,284850
11,467000	0,5	-0,280150
11,475333	0,5	-0,280600
11,483667	0,5	-0,279100
11,492000	0,5	-0,275750
11,500333	0,5	-0,279600
11,508667	0,5	-0,273150
11,517000	0,5	-0,273900
11,525333	0,5	-0,278250
11,533667	0,5	-0,283750
11,542000	0,5	-0,288700
11,550333	0,5	-0,289900
11,558667	0,5	-0,286850
11,567000	0,5	-0,291950
11,575333	0,5	-0,291300
11,583667	0,5	-0,294300
11,592000	0,5	-0,298050
11,600333	0,5	-0,302250
11,608667	0,5	-0,304750
11,617000	0,5	-0,308550
11,625333	0,5	-0,313450
11,633667	0,5	-0,312800
11,642000	0,5	-0,313650
11,650333	0,5	-0,321000
11,658667	0,5	-0,315700
11,667000	0,5	-0,318550
11,675333	0,5	-0,326450
11,683667	0,5	-0,326050
11,692000	0,5	-0,332150
11,700333	0,5	-0,328000
11,708667	0,5	-0,328650
11,717000	0,5	-0,325500
11,725333	0,5	-0,329650
11,733667	0,5	-0,326950
11,742000	0,5	-0,327100
11,750333	0,5	-0,325250
11,758667	0,5	-0,326300
11,767000	0,5	-0,323250
11,775333	0,5	-0,322150
11,783667	0,5	-0,317250
11,792000	0,5	-0,316000
11,800333	0,5	-0,312900
11,808667	0,5	-0,305350
11,817000	0,5	-0,304600
11,825333	0,5	-0,304400
11,833667	0,5	-0,301250
11,842000	0,5	-0,292600
11,850333	0,5	-0,286650
11,858667	0,5	-0,275800
11,867000	0,5	-0,268600
11,875333	0,5	-0,260100
11,883667	0,5	-0,254350
11,892000	0,5	-0,246400
11,900333	0,5	-0,240300
11,908667	0,5	-0,231200
11,917000	0,5	-0,228000
11,925333	0,5	-0,226750
11,933667	0,5	-0,218050
11,942000	0,5	-0,214400
11,950333	0,5	-0,207150
11,958667	0,5	-0,202250
11,967000	0,5	-0,206400
11,975333	0,5	-0,206900
11,983667	0,5	-0,210300
11,992000	0,5	-0,208300
12,000333	0,5	-0,200500
12,008667	0,5	-0,200100
12,017000	0,5	-0,201850
12,025333	0,5	-0,202250
12,033667	0,5	-0,200550
12,042000	0,5	-0,202450
12,050333	0,5	-0,201550
12,058667	0,5	-0,201400
12,067000	0,5	-0,203400
12,075333	0,5	-0,204900
12,083667	0,5	-0,203100
12,092000	0,5	-0,206200
12,100333	0,5	-0,198600
12,108667	0,5	-0,197900
12,117000	0,5	-0,194850
12,125333	0,5	-0,197450
12,133667	0,5	-0,192100
12,142000	0,5	-0,183450
12,150333	0,5	-0,171700
12,158667	0,5	-0,154850
12,167000	0,5	-0,142200
12,175333	0,5	-0,122650
12,183667	0,5	-0,098400
12,192000	0,5	-0,075050
12,200333	0,5	-0,051350
12,208667	0,5	-0,030500
12,217000	0,5	-0,012700
12,225333	0,5	0,004100
12,233667	0,5	0,010150
12,242000	0,5	0,017300
12,250333	0,5	0,019350
12,258667	0,5	0,010800
12,267000	0,5	0,000200
12,275333	0,5	-0,016100
12,283667	0,5	-0,029450
12,292000	0,5	-0,032700
12,300333	0,5	-0,039950
12,308667	0,5	-0,044350
12,317000	0,5	-0,051700
12,325333	0,5	-0,054800
12,333667	0,5	-0,058250
12,342000	0,5	-0,058250
12,350333	0,5	-0,058450
12,358667	0,5	-0,060200
12,367000	0,5	-0,057300
12,375333	0,5	-0,055900
12,383667	0,5	-0,058100
12,392000	0,5	-0,048450
12,400333	0,5	-0,037200
12,408667	0,5	-0,038850
12,417000	0,5	-0,034000
12,425333	0,5	-0,032500
12,433667	0,5	-0,016700
12,442000	0,5	-0,007500
12,450333	0,5	0,003300
12,458667	0,5	0,005650
12,467000	0,5	0,015550
12,475333	0,5	0,022100
12,483667	0,5	0,025100
12,492000	0,5	0,034850
12,500333	0,5	0,034850
12,508667	0,5	0,040800
12,517000	0,5	0,046300
12,525333	0,5	0,057650
12,533667	0,5	0,066500
12,542000	0,5	0,091700
12,550333	0,5	0,107250
12,558667	0,5	0,122250
12,567000	0,5	0,138150
12,575333	0,5	0,151550
12,583667	0,5	0,169900
12,592000	0,5	0,180150
12,600333	0,5	0,177850
12,608667	0,5	0,175000
12,617000	0,5	0,164200
12,625333	0,5	0,160200
12,633667	0,5	0,149050
12,642000	0,5	0,143600
12,650333	0,5	0,133250
12,658667	0,5	0,127100
12,667000	0,5	0,123700
12,675333	0,5	0,115700
12,683667	0,5	0,111600
12,692000	0,5	0,116850
12,700333	0,5	0,115300
12,708667	0,5	0,112200
12,717000	0,5	0,108800
12,725333	0,5	0,114300
12,733667	0,5	0,124600
12,742000	0,5	0,135800
12,750333	0,5	0,141250
12,758667	0,5	0,145850
12,767000	0,5	0,155700
12,775333	0,5	0,154950
12,783667	0,5	0,159850
12,792000	0,5	0,157500
12,800333	0,5	0,160250
12,808667	0,5	0,161050
12,817000	0,5	0,168450
12,825333	0,5	0,172200
12,833667	0,5	0,189950
12,842000	0,5	0,195100
12,850333	0,5	0,196000
12,858667	0,5	0,190350
12,867000	0,5	0,179400
12,875333	0,5	0,171650
12,883667	0,5	0,164550
12,892000	0,5	0,161900
12,900333	0,5	0,154600
12,908667	0,5	0,151950
12,917000	0,5	0,149850
12,925333	0,5	0,148350
12,933667	0,5	0,148200
12,942000	0,5	0,146350
12,950333	0,5	0,148750
12,958667	0,5	0,150850
12,967000	0,5	0,147050
12,975333	0,5	0,148600
12,983667	0,5	0,155100
12,992000	0,5	0,162350
13,000333	0,5	0,158500
13,008667	0,5	0,154400
13,017000	0,5	0,152250
13,025333	0,5	0,157950
13,033667	0,5	0,167300
13,042000	0,5	0,172850
13,050333	0,5	0,179550
13,058667	0,5	0,184250
13,067000	0,5	0,190950
13,075333	0,5	0,189550
13,083667	0,5	0,188100
13,092000	0,5	0,183800
13,100333	0,5	0,175350
13,108667	0,5	0,175300
13,117000	0,5	0,162500
13,125333	0,5	0,159000
13,133667	0,5	0,159800
13,142000	0,5	0,156100
13,150333	0,5	0,154650
13,158667	0,5	0,147500
13,167000	0,5	0,145000
13,175333	0,5	0,147600
13,183667	0,5	0,150550
13,192000	0,5	0,146350
13,200333	0,5	0,149650
13,208667	0,5	0,145650
13,217000	0,5	0,149250
13,225333	0,5	0,155450
13,233667	0,5	0,154500
13,242000	0,5	0,154650
13,250333	0,5	0,153350
13,258667	0,5	0,155100
13,267000	0,5	0,142300
13,275333	0,5	0,152100
13,283667	0,5	0,153850
13,292000	0,5	0,155300
13,300333	0,5	0,149400
13,308667	0,5	0,149700
13,317000	0,5	0,151050
13,325333	0,5	0,158350
13,333667	0,5	0,155000
13,342000	0,5	0,154150
13,350333	0,5	0,152900
13,358667	0,5	0,154150
13,367000	0,5	0,151100
13,375333	0,5	0,149700
13,383667	0,5	0,150550
13,392000	0,5	0,149900
13,400333	0,5	0,153550
13,408667	0,5	0,152700
13,417000	0,5	0,146200
13,425333	0,5	0,159950
13,433667	0,5	0,164800
13,442000	0,5	0,162750
13,450333	0,5	0,161550
13,458667	0,5	0,152500
13,467000	0,5	0,158150
13,475333	0,5	0,157750
13,483667	0,5	0,157950
13,492000	0,5	0,153850
13,500333	0,5	0,148700
13,508667	0,5	0,144550
13,517000	0,5	0,150400
13,525333	0,5	0,148100
13,533667	0,5	0,149050
13,542000	0,5	0,155050
13,550333	0,5	0,165950
13,558667	0,5	0,173350
13,567000	0,5	0,181500
13,575333	0,5	0,192350
13,583667	0,5	0,196450
13,592000	0,5	0,192400
13,600333	0,5	0,175150
13,608667	0,5	0,166750
13,617000	0,5	0,158950
13,625333	0,5	0,156650
13,633667	0,5	0,154550
13,642000	0,5	0,160550
13,650333	0,5	0,158600
13,658667	0,5	0,167850
13,667000	0,5	0,168500
13,675333	0,5	0,167250
13,683667	0,5	0,161150
13,692000	0,5	0,154550
13,700333	0,5	0,153300
13,708667	0,5	0,151400
13,717000	0,5	0,160300
13,725333	0,5	0,179250
13,733667	0,5	0,202800
13,742000	0,5	0,228300
13,750333	0,5	0,248100
13,758667	0,5	0,259600
13,767000	0,5	0,269650
13,775333	0,5	0,245950
13,783667	0,5	0,225250
13,792000	0,5	0,191650
13,800333	0,5	0,171350
13,808667	0,5	0,154000
13,817000	0,5	0,154100
13,825333	0,5	0,154350
13,833667	0,5	0,171000
13,842000	0,5	0,187650
13,850333	0,5	0,208900
13,858667	0,5	0,211450
13,867000	0,5	0,231600
13,875333	0,5	0,248850
13,883667	0,5	0,273150
13,892000	0,5	0,303200
13,900333	0,5	0,342500
13,908667	0,5	0,392300
13,917000	0,5	0,417850
13,925333	0,5	0,422400
13,933667	0,5	0,396250
13,942000	0,5	0,349950
13,950333	0,5	0,297750
13,958667	0,5	0,250000
13,967000	0,5	0,209000
13,975333	0,5	0,184100
13,983667	0,5	0,174200
13,992000	0,5	0,182350
14,000333	0,5	0,197000
14,008667	0,5	0,222800
14,017000	0,5	0,258150
14,025333	0,5	0,292150
14,033667	0,5	0,331850
14,042000	0,5	0,372050
14,050333	0,5	0,404650
14,058667	0,5	0,423550
14,067000	0,5	0,422600
14,075333	0,5	0,394800
14,083667	0,5	0,344600
14,092000	0,5	0,287900
14,100333	0,5	0,232950
14,108667	0,5	0,191200
14,117000	0,5	0,169550
14,125333	0,5	0,158650
14,133667	0,5	0,175850
14,142000	0,5	0,204250
14,150333	0,5	0,234850
14,158667	0,5	0,284200
14,167000	0,5	0,329000
14,175333	0,5	0,353500
14,183667	0,5	0,365700
14,192000	0,5	0,349250
14,200333	0,5	0,328900
14,208667	0,5	0,292450
14,217000	0,5	0,250550
14,225333	0,5	0,204600
14,233667	0,5	0,166750
14,242000	0,5	0,139750
14,250333	0,5	0,125750
14,258667	0,5	0,127900
14,267000	0,5	0,144600
14,275333	0,5	0,163200
14,283667	0,5	0,189050
14,292000	0,5	0,206550
14,300333	0,5	0,210500
14,308667	0,5	0,224750
14,317000	0,5	0,211950
14,325333	0,5	0,189400
14,333667	0,5	0,154750
14,342000	0,5	0,116800
14,350333	0,5	0,097250
14,358667	0,5	0,084050
14,367000	0,5	0,086050
14,375333	0,5	0,095200
14,383667	0,5	0,114000
14,392000	0,5	0,135500
14,400333	0,5	0,154850
14,408667	0,5	0,172400
14,417000	0,5	0,171400
14,425333	0,5	0,163700
14,433667	0,5	0,150900
14,442000	0,5	0,125200
14,450333	0,5	0,098400
14,458667	0,5	0,077900
14,467000	0,5	0,059900
14,475333	0,5	0,039200
14,483667	0,5	0,030300
14,492000	0,5	0,026750
14,500333	0,5	0,039300
14,508667	0,5	0,041200
14,517000	0,5	0,044850
14,525333	0,5	0,039900
14,533667	0,5	0,035700
14,542000	0,5	0,025750
14,550333	0,5	0,018900
14,558667	0,5	0,016000
14,567000	0,5	0,008600
14,575333	0,5	0,009050
14,583667	0,5	0,008450
14,592000	0,5	-0,001950
14,600333	0,5	0,001650
14,608667	0,5	0,005250
14,617000	0,5	0,003650
14,625333	0,5	0,005250
14,633667	0,5	-0,009200
14,642000	0,5	-0,012900
14,650333	0,5	-0,012450
14,658667	0,5	-0,017800
14,667000	0,5	-0,025550
14,675333	0,5	-0,025850
14,683667	0,5	-0,035500
14,692000	0,5	-0,033900
14,700333	0,5	-0,038150
14,708667	0,5	-0,036900
14,717000	0,5	-0,035300
14,725333	0,5	-0,032550
14,733667	0,5	-0,025300
14,742000	0,5	-0,029800
14,750333	0,5	-0,023300
14,758667	0,5	-0,024050
14,767000	0,5	-0,031550
14,775333	0,5	-0,044850
14,783667	0,5	-0,061250
14,792000	0,5	-0,064550
14,800333	0,5	-0,059000
14,808667	0,5	-0,059350
14,817000	0,5	-0,057700
14,825333	0,5	-0,056350
14,833667	0,5	-0,045950
14,842000	0,5	-0,045150
14,850333	0,5	-0,036100
14,858667	0,5	-0,038800
14,867000	0,5	-0,039400
14,875333	0,5	-0,041150
14,883667	0,5	-0,055950
14,892000	0,5	-0,068300
14,900333	0,5	-0,061300
14,908667	0,5	-0,068150
14,917000	0,5	-0,070000
14,925333	0,5	-0,075050
14,933667	0,5	-0,077250
14,942000	0,5	-0,075650
14,950333	0,5	-0,075050
14,958667	0,5	-0,072050
14,967000	0,5	-0,075900
14,975333	0,5	-0,075250
14,983667	0,5	-0,091400
14,992000	0,5	-0,086450
15,000333	0,5	-0,085900
15,008667	0,5	-0,082200
15,017000	0,5	-0,077200
15,025333	0,5	-0,073700
15,033667	0,5	-0,083000
15,042000	0,5	-0,072450
15,050333	0,5	-0,071750
15,058667	0,5	-0,072350
15,067000	0,5	-0,078800
15,075333	0,5	-0,092100
15,083667	0,5	-0,097100
15,092000	0,5	-0,101000
15,100333	0,5	-0,101200
15,108667	0,5	-0,105300
15,117000	0,5	-0,110650
15,125333	0,5	-0,110900
15,133667	0,5	-0,113600
15,142000	0,5	-0,116750
15,150333	0,5	-0,114550
15,158667	0,5	-0,121950
15,167000	0,5	-0,115800
15,175333	0,5	-0,120400
15,183667	0,5	-0,131000
15,192000	0,5	-0,122050
15,200333	0,5	-0,115350
15,208667	0,5	-0,119400
15,217000	0,5	-0,119100
15,225333	0,5	-0,134100
15,233667	0,5	-0,134850
15,242000	0,5	-0,135000
15,250333	0,5	-0,133400
15,258667	0,5	-0,133900
15,267000	0,5	-0,134050
15,275333	0,5	-0,138600
15,283667	0,5	-0,135550
15,292000	0,5	-0,129950
15,300333	0,5	-0,131300
15,308667	0,5	-0,132950
15,317000	0,5	-0,129200
15,325333	0,5	-0,136400
15,333667	0,5	-0,138050
15,342000	0,5	-0,124700
15,350333	0,5	-0,124900
15,358667	0,5	-0,121400
15,367000	0,5	-0,126050
15,375333	0,5	-0,130900
15,383667	0,5	-0,121750
15,392000	0,5	-0,117750
15,400333	0,5	-0,119050
15,408667	0,5	-0,112400
15,417000	0,5	-0,108000
15,425333	0,5	-0,106800
15,433667	0,5	-0,098150
15,442000	0,5	-0,097550
15,450333	0,5	-0,091750
15,458667	0,5	-0,094400
15,467000	0,5	-0,084950
15,475333	0,5	-0,098850
15,483667	0,5	-0,088250
15,492000	0,5	-0,082500
15,500333	0,5	-0,083400
15,508667	0,5	-0,090150
15,517000	0,5	-0,097400
15,525333	0,5	-0,097900
15,533667	0,5	-0,088950
15,542000	0,5	-0,090450
15,550333	0,5	-0,083100
15,558667	0,5	-0,077350
15,567000	0,5	-0,072550
15,575333	0,5	-0,066950
15,583667	0,5	-0,059800
15,592000	0,5	-0,054000
15,600333	0,5	-0,053700
15,608667	0,5	-0,044050
15,617000	0,5	-0,037450
15,625333	0,5	-0,038750
15,633667	0,5	-0,024150
15,642000	0,5	-0,013000
15,650333	0,5	-0,003700
15,658667	0,5	-0,005650
15,667000	0,5	-0,026600
15,675333	0,5	-0,031900
15,683667	0,5	-0,045200
15,692000	0,5	-0,054300
15,700333	0,5	-0,071850
15,708667	0,5	-0,080600
15,717000	0,5	-0,092800
15,725333	0,5	-0,095600
15,733667	0,5	-0,100150
15,742000	0,5	-0,102050
15,750333	0,5	-0,106750
15,758667	0,5	-0,105550
15,767000	0,5	-0,109900
15,775333	0,5	-0,115550
15,783667	0,5	-0,106600
15,792000	0,5	-0,113600
15,800333	0,5	-0,115800
15,808667	0,5	-0,126900
15,817000	0,5	-0,136950
15,825333	0,5	-0,137400
15,833667	0,5	-0,131750
15,842000	0,5	-0,135600
15,850333	0,5	-0,132300
15,858667	0,5	-0,131650
15,867000	0,5	-0,130850
15,875333	0,5	-0,135350
15,883667	0,5	-0,133400
15,892000	0,5	-0,132400
15,900333	0,5	-0,130050
15,908667	0,5	-0,130850
15,917000	0,5	-0,138050
15,925333	0,5	-0,136200
15,933667	0,5	-0,133100
15,942000	0,5	-0,130600
15,950333	0,5	-0,134050
15,958667	0,5	-0,139050
15,967000	0,5	-0,147100
15,975333	0,5	-0,137950
15,983667	0,5	-0,136600
15,992000	0,5	-0,132200
16,000333	0,5	-0,133050
16,008667	0,5	-0,129950
16,017000	0,5	-0,128800
16,025333	0,5	-0,121350
16,033667	0,5	-0,121700
16,042000	0,5	-0,119650
16,050333	0,5	-0,111850
16,058667	0,5	-0,112450
16,067000	0,5	-0,129550
16,075333	0,5	-0,122850
16,083667	0,5	-0,121800
16,092000	0,5	-0,126050
16,100333	0,5	-0,130300
16,108667	0,5	-0,138950
16,117000	0,5	-0,132750
16,125333	0,5	-0,131600
16,133667	0,5	-0,126150
16,142000	0,5	-0,127500
16,150333	0,5	-0,123300
16,158667	0,5	-0,122750
16,167000	0,5	-0,123300
16,175333	0,5	-0,119550
16,183667	0,5	-0,118350
16,192000	0,5	-0,114150
16,200333	0,5	-0,099950
16,208667	0,5	-0,105100
16,217000	0,5	-0,097000
16,225333	0,5	-0,083550
16,233667	0,5	-0,074850
16,242000	0,5	-0,076750
16,250333	0,5	-0,077450
16,258667	0,5	-0,084000
16,267000	0,5	-0,082450
16,275333	0,5	-0,076050
16,283667	0,5	-0,072500
16,292000	0,5	-0,064650
16,300333	0,5	-0,058950
16,308667	0,5	-0,050800
16,317000	0,5	-0,040300
16,325333	0,5	-0,035050
16,333667	0,5	-0,035300
16,342000	0,5	-0,029850
16,350333	0,5	-0,030250
16,358667	0,5	-0,043800
16,367000	0,5	-0,040100
16,375333	0,5	-0,034900
16,383667	0,5	-0,035400
16,392000	0,5	-0,034100
16,400333	0,5	-0,048550
16,408667	0,5	-0,043850
16,417000	0,5	-0,034450
16,425333	0,5	-0,031300
16,433667	0,5	-0,028900
16,442000	0,5	-0,026100
16,450333	0,5	-0,024150
16,458667	0,5	-0,021650
16,467000	0,5	-0,019800
16,475333	0,5	-0,024100
16,483667	0,5	-0,019700
16,492000	0,5	-0,025400
16,500333	0,5	-0,008650
16,508667	0,5	-0,022750
16,517000	0,5	-0,008600
16,525333	0,5	-0,008650
16,533667	0,5	-0,006900
16,542000	0,5	-0,013400
16,550333	0,5	-0,021350
16,558667	0,5	-0,019500
16,567000	0,5	-0,010200
16,575333	0,5	-0,011950
16,583667	0,5	-0,008300
16,592000	0,5	-0,010750
16,600333	0,5	-0,010300
16,608667	0,5	-0,008450
16,617000	0,5	-0,006000
16,625333	0,5	-0,003950
16,633667	0,5	-0,005350
16,642000	0,5	0,002350
16,650333	0,5	0,002450
16,658667	0,5	-0,009700
16,667000	0,5	0,007750
16,675333	0,5	0,006450
16,683667	0,5	0,006700
16,692000	0,5	0,007800
16,700333	0,5	-0,000600
16,708667	0,5	0,008550
16,717000	0,5	0,014250
16,725333	0,5	0,018300
16,733667	0,5	0,016800
16,742000	0,5	0,018550
16,750333	0,5	0,014350
16,758667	0,5	0,013150
16,767000	0,5	0,008550
16,775333	0,5	0,005950
16,783667	0,5	0,006600
16,792000	0,5	0,006250
16,800333	0,5	0,003600
16,808667	0,5	0,011300
16,817000	0,5	0,018100
16,825333	0,5	0,013100
16,833667	0,5	0,010700
16,842000	0,5	-0,003800
16,850333	0,5	-0,012300
16,858667	0,5	-0,017750
16,867000	0,5	-0,011350
16,875333	0,5	-0,017550
16,883667	0,5	-0,014400
16,892000	0,5	-0,018050
16,900333	0,5	-0,020000
16,908667	0,5	-0,019300
16,917000	0,5	-0,022250
16,925333	0,5	-0,026250
16,933667	0,5	-0,027300
16,942000	0,5	-0,033850
16,950333	0,5	-0,043250
16,958667	0,5	-0,035450
16,967000	0,5	-0,033900
16,975333	0,5	-0,040100
16,983667	0,5	-0,046850
16,992000	0,5	-0,053900
17,000333	0,5	-0,060600
17,008667	0,5	-0,057600
17,017000	0,5	-0,061750
17,025333	0,5	-0,060100
17,033667	0,5	-0,066500
17,042000	0,5	-0,066200
17,050333	0,5	-0,071550
17,058667	0,5	-0,070800
17,067000	0,5	-0,072750
17,075333	0,5	-0,073450
17,083667	0,5	-0,072300
17,092000	0,5	-0,081550
17,100333	0,5	-0,081350
17,108667	0,5	-0,074950
17,117000	0,5	-0,076550
17,125333	0,5	-0,081450
17,133667	0,5	-0,095350
17,142000	0,5	-0,097850
17,150333	0,5	-0,097350
17,158667	0,5	-0,101400
17,167000	0,5	-0,100700
17,175333	0,5	-0,102300
17,183667	0,5	-0,102800
17,192000	0,5	-0,110400
17,200333	0,5	-0,110000
17,208667	0,5	-0,117550
17,217000	0,5	-0,118550
17,225333	0,5	-0,115150
17,233667	0,5	-0,110850
17,242000	0,5	-0,128050
17,250333	0,5	-0,124000
17,258667	0,5	-0,130150
17,267000	0,5	-0,131750
17,275333	0,5	-0,137250
17,283667	0,5	-0,153050
17,292000	0,5	-0,149750
17,300333	0,5	-0,149300
17,308667	0,5	-0,149200
17,317000	0,5	-0,157250
17,325333	0,5	-0,156050
17,333667	0,5	-0,162700
17,342000	0,5	-0,159400
17,350333	0,5	-0,168500
17,358667	0,5	-0,169400
17,367000	0,5	-0,171700
17,375333	0,5	-0,165000
17,383667	0,5	-0,170750
17,392000	0,5	-0,182450
17,400333	0,5	-0,176250
17,408667	0,5	-0,176250
17,417000	0,5	-0,180950
17,425333	0,5	-0,187250
17,433667	0,5	-0,205500
17,442000	0,5	-0,204200
17,450333	0,5	-0,202000
17,458667	0,5	-0,207400
17,467000	0,5	-0,206050
17,475333	0,5	-0,210450
17,483667	0,5	-0,210250
17,492000	0,5	-0,212000
17,500333	0,5	-0,213200
17,508667	0,5	-0,220800
17,517000	0,5	-0,223200
17,525333	0,5	-0,220900
17,533667	0,5	-0,221950
17,542000	0,5	-0,233050
17,550333	0,5	-0,222700
17,558667	0,5	-0,227050
17,567000	0,5	-0,230600
17,575333	0,5	-0,240300
17,583667	0,5	-0,247450
17,592000	0,5	-0,245400
17,600333	0,5	-0,246500
17,608667	0,5	-0,245150
17,617000	0,5	-0,245700
17,625333	0,5	-0,247750
17,633667	0,5	-0,247050
17,642000	0,5	-0,249550
17,650333	0,5	-0,256350
17,658667	0,5	-0,254500
17,667000	0,5	-0,250450
17,675333	0,5	-0,251450
17,683667	0,5	-0,262950
17,692000	0,5	-0,257150
17,700333	0,5	-0,253400
17,708667	0,5	-0,254050
17,717000	0,5	-0,263800
17,725333	0,5	-0,271750
17,733667	0,5	-0,277500
17,742000	0,5	-0,275000
17,750333	0,5	-0,277150
17,758667	0,5	-0,271550
17,767000	0,5	-0,273500
17,775333	0,5	-0,272650
17,783667	0,5	-0,267900
17,792000	0,5	-0,270650
17,800333	0,5	-0,270000
17,808667	0,5	-0,275000
17,817000	0,5	-0,263500
17,825333	0,5	-0,269650
17,833667	0,5	-0,274050
17,842000	0,5	-0,273300
17,850333	0,5	-0,267400
17,858667	0,5	-0,272350
17,867000	0,5	-0,282150
17,875333	0,5	-0,293600
17,883667	0,5	-0,292800
17,892000	0,5	-0,293250
17,900333	0,5	-0,287150
17,908667	0,5	-0,289800
17,917000	0,5	-0,287750
17,925333	0,5	-0,293000
17,933667	0,5	-0,288100
17,942000	0,5	-0,294850
17,950333	0,5	-0,299400
17,958667	0,5	-0,296200
17,967000	0,5	-0,290500
17,975333	0,5	-0,302950
17,983667	0,5	-0,303000
17,992000	0,5	-0,299100
18,000333	0,5	-0,303750
18,008667	0,5	-0,305900
18,017000	0,5	-0,323450
18,025333	0,5	-0,322500
18,033667	0,5	-0,325300
18,042000	0,5	-0,325200
18,050333	0,5	-0,332000
18,058667	0,5	-0,327200
18,067000	0,5	-0,327850
18,075333	0,5	-0,328500
18,083667	0,5	-0,327200
18,092000	0,5	-0,334300
18,100333	0,5	-0,332200
18,108667	0,5	-0,331300
18,117000	0,5	-0,328300
18,125333	0,5	-0,345100
18,133667	0,5	-0,338750
18,142000	0,5	-0,334650
18,150333	0,5	-0,337050
18,158667	0,5	-0,343500
18,167000	0,5	-0,355050
18,175333	0,5	-0,354800
18,183667	0,5	-0,350550
18,192000	0,5	-0,352750
18,200333	0,5	-0,354950
18,208667	0,5	-0,355800
18,217000	0,5	-0,348550
18,225333	0,5	-0,354950
18,233667	0,5	-0,354050
18,242000	0,5	-0,361250
18,250333	0,5	-0,360150
18,258667	0,5	-0,345950
18,267000	0,5	-0,346500
18,275333	0,5	-0,355250
18,283667	0,5	-0,350450
18,292000	0,5	-0,349550
18,300333	0,5	-0,353850
18,308667	0,5	-0,360400
18,317000	0,5	-0,370700
18,325333	0,5	-0,358250
18,333667	0,5	-0,361100
18,342000	0,5	-0,359400
18,350333	0,5	-0,360800
18,358667	0,5	-0,356000
18,367000	0,5	-0,361400
18,375333	0,5	-0,352500
18,383667	0,5	-0,353900
18,392000	0,5	-0,351350
18,400333	0,5	-0,348600
18,408667	0,5	-0,335500
18,417000	0,5	-0,343250
18,425333	0,5	-0,343350
18,433667	0,5	-0,339700
18,442000	0,5	-0,338500
18,450333	0,5	-0,344800
18,458667	0,5	-0,356450
18,467000	0,5	-0,356400
18,475333	0,5	-0,348600
18,483667	0,5	-0,346700
18,492000	0,5	-0,348800
18,500333	0,5	-0,344250
18,508667	0,5	-0,342000
18,517000	0,5	-0,340500
18,525333	0,5	-0,340650
18,533667	0,5	-0,343300
18,542000	0,5	-0,346350
18,550333	0,5	-0,335900
18,558667	0,5	-0,330200
18,567000	0,5	-0,338850
18,575333	0,5	-0,329900
18,583667	0,5	-0,332150
18,592000	0,5	-0,330550
18,600333	0,5	-0,339100
18,608667	0,5	-0,348650
18,617000	0,5	-0,353200
18,625333	0,5	-0,339150
18,633667	0,5	-0,344300
18,642000	0,5	-0,341250
18,650333	0,5	-0,341750
18,658667	0,5	-0,334900
18,667000	0,5	-0,338400
18,675333	0,5	-0,335650
18,683667	0,5	-0,337200
18,692000	0,5	-0,332600
18,700333	0,5	-0,329250
18,708667	0,5	-0,327000
18,717000	0,5	-0,331250
18,725333	0,5	-0,323600
18,733667	0,5	-0,330400
18,742000	0,5	-0,329250
18,750333	0,5	-0,339850
18,758667	0,5	-0,345850
18,767000	0,5	-0,346300
18,775333	0,5	-0,345550
18,783667	0,5	-0,346700
18,792000	0,5	-0,345600
18,800333	0,5	-0,347850
18,808667	0,5	-0,346250
18,817000	0,5	-0,342150
18,825333	0,5	-0,348550
18,833667	0,5	-0,346750
18,842000	0,5	-0,342100
18,850333	0,5	-0,332350
18,858667	0,5	-0,349800
18,867000	0,5	-0,341550
18,875333	0,5	-0,340950
18,883667	0,5	-0,343450
18,892000	0,5	-0,353900
18,900333	0,5	-0,367000
18,908667	0,5	-0,366800
18,917000	0,5	-0,365400
18,925333	0,5	-0,370500
18,933667	0,5	-0,370000
18,942000	0,5	-0,367050
18,950333	0,5	-0,367300
18,958667	0,5	-0,367350
18,967000	0,5	-0,369850
18,975333	0,5	-0,371900
18,983667	0,5	-0,375350
18,992000	0,5	-0,364750
19,000333	0,5	-0,365950
19,008667	0,5	-0,370900
19,017000	0,5	-0,369250
19,025333	0,5	-0,365350
19,033667	0,5	-0,377750
19,042000	0,5	-0,378500
19,050333	0,5	-0,393450
19,058667	0,5	-0,391050
19,067000	0,5	-0,388750
19,075333	0,5	-0,390550
19,083667	0,5	-0,391900
19,092000	0,5	-0,390800
19,100333	0,5	-0,392150
19,108667	0,5	-0,390300
19,117000	0,5	-0,387250
19,125333	0,5	-0,396150
19,133667	0,5	-0,389600
19,142000	0,5	-0,381300
19,150333	0,5	-0,384000
19,158667	0,5	-0,392050
19,167000	0,5	-0,386950
19,175333	0,5	-0,386600
19,183667	0,5	-0,389600
19,192000	0,5	-0,403550
19,200333	0,5	-0,404500
19,208667	0,5	-0,398050
19,217000	0,5	-0,397900
19,225333	0,5	-0,404400
19,233667	0,5	-0,397450
19,242000	0,5	-0,398450
19,250333	0,5	-0,392600
19,258667	0,5	-0,394100
19,267000	0,5	-0,394150
19,275333	0,5	-0,394300
19,283667	0,5	-0,390750
19,292000	0,5	-0,381950
19,300333	0,5	-0,394800
19,308667	0,5	-0,385500
19,317000	0,5	-0,384750
19,325333	0,5	-0,388600
19,333667	0,5	-0,393000
19,342000	0,5	-0,402900
19,350333	0,5	-0,400800
19,358667	0,5	-0,391750
19,367000	0,5	-0,396600
19,375333	0,5	-0,394200
19,383667	0,5	-0,398200
19,392000	0,5	-0,392350
19,400333	0,5	-0,390650
19,408667	0,5	-0,390200
19,417000	0,5	-0,389550
19,425333	0,5	-0,394650
19,433667	0,5	-0,377450
19,442000	0,5	-0,374950
19,450333	0,5	-0,385200
19,458667	0,5	-0,375750
19,467000	0,5	-0,373450
19,475333	0,5	-0,375700
19,483667	0,5	-0,380500
19,492000	0,5	-0,398500
19,500333	0,5	-0,383550
19,508667	0,5	-0,384000
19,517000	0,5	-0,381150
19,525333	0,5	-0,389100
19,533667	0,5	-0,378850
19,542000	0,5	-0,380550
19,550333	0,5	-0,375250
19,558667	0,5	-0,372000
19,567000	0,5	-0,372950
19,575333	0,5	-0,367750
19,583667	0,5	-0,360500
19,592000	0,5	-0,365000
19,600333	0,5	-0,363350
19,608667	0,5	-0,354600
19,617000	0,5	-0,358850
19,625333	0,5	-0,364150
19,633667	0,5	-0,372850
19,642000	0,5	-0,376850
19,650333	0,5	-0,372500
19,658667	0,5	-0,361500
19,667000	0,5	-0,364000
19,675333	0,5	-0,360100
19,683667	0,5	-0,359850
19,692000	0,5	-0,355000
19,700333	0,5	-0,353400
19,708667	0,5	-0,350750
19,717000	0,5	-0,352450
19,725333	0,5	-0,345300
19,733667	0,5	-0,336400
19,742000	0,5	-0,345950
19,750333	0,5	-0,337300
19,758667	0,5	-0,331950
19,767000	0,5	-0,337750
19,775333	0,5	-0,346500
19,783667	0,5	-0,348450
19,792000	0,5	-0,354050
19,800333	0,5	-0,342750
19,808667	0,5	-0,344400
19,817000	0,5	-0,344800
19,825333	0,5	-0,344350
19,833667	0,5	-0,335800
19,842000	0,5	-0,340100
19,850333	0,5	-0,336550
19,858667	0,5	-0,338850
19,867000	0,5	-0,334700
19,875333	0,5	-0,323950
19,883667	0,5	-0,328800
19,892000	0,5	-0,332200
19,900333	0,5	-0,323050
19,908667	0,5	-0,325250
19,917000	0,5	-0,330050
19,925333	0,5	-0,339100
19,933667	0,5	-0,342950
19,942000	0,5	-0,332850
19,950333	0,5	-0,330950
19,958667	0,5	-0,323300
19,967000	0,5	-0,324700
19,975333	0,5	-0,318050
19,983667	0,5	-0,320950
19,992000	0,5	-0,311450
20,000333	0,5	-0,319050
20,008667	0,5	-0,322050
20,017000	0,5	-0,319500
20,025333	0,5	-0,311300
20,033667	0,5	-0,324800
20,042000	0,5	-0,316400
20,050333	0,5	-0,315300
20,058667	0,5	-0,313800
20,067000	0,5	-0,317800
20,075333	0,5	-0,335550
20,083667	0,5	-0,324900
20,092000	0,5	-0,326850
20,100333	0,5	-0,320750
20,108667	0,5	-0,326350
20,117000	0,5	-0,321350
20,125333	0,5	-0,323900
20,133667	0,5	-0,315850
20,142000	0,5	-0,312100
20,150333	0,5	-0,303800
20,158667	0,5	-0,303000
20,167000	0,5	-0,292550
20,175333	0,5	-0,290250
20,183667	0,5	-0,298700
20,192000	0,5	-0,289650
20,200333	0,5	-0,293750
20,208667	0,5	-0,302150
20,217000	0,5	-0,311600
20,225333	0,5	-0,319250
20,233667	0,5	-0,313950
20,242000	0,5	-0,310250
20,250333	0,5	-0,312500
20,258667	0,5	-0,308600
20,267000	0,5	-0,309800
20,275333	0,5	-0,305650
20,283667	0,5	-0,306700
20,292000	0,5	-0,304000
20,300333	0,5	-0,310200
20,308667	0,5	-0,309700
20,317000	0,5	-0,301000
20,325333	0,5	-0,301250
20,333667	0,5	-0,305400
20,342000	0,5	-0,293050
20,350333	0,5	-0,295300
20,358667	0,5	-0,298700
20,367000	0,5	-0,307950
20,375333	0,5	-0,311900
20,383667	0,5	-0,299900
20,392000	0,5	-0,298550
20,400333	0,5	-0,297400
20,408667	0,5	-0,304050
20,417000	0,5	-0,299850
20,425333	0,5	-0,296200
20,433667	0,5	-0,286550
20,442000	0,5	-0,290650
20,450333	0,5	-0,284850
20,458667	0,5	-0,271200
20,467000	0,5	-0,261900
20,475333	0,5	-0,267600
20,483667	0,5	-0,262650
20,492000	0,5	-0,263350
20,500333	0,5	-0,258450
20,508667	0,5	-0,272850
20,517000	0,5	-0,282100
20,525333	0,5	-0,269850
20,533667	0,5	-0,266400
20,542000	0,5	-0,261250
20,550333	0,5	-0,259250
20,558667	0,5	-0,252300
20,567000	0,5	-0,252250
20,575333	0,5	-0,248750
20,583667	0,5	-0,246200
20,592000	0,5	-0,243550
20,600333	0,5	-0,239600
20,608667	0,5	-0,220400
20,617000	0,5	-0,219200
20,625333	0,5	-0,222600
20,633667	0,5	-0,215950
20,642000	0,5	-0,214550
20,650333	0,5	-0,221250
20,658667	0,5	-0,231200
20,667000	0,5	-0,236800
20,675333	0,5	-0,230600
20,683667	0,5	-0,221300
20,692000	0,5	-0,216650
20,700333	0,5	-0,211300
20,708667	0,5	-0,212700
20,717000	0,5	-0,202550
20,725333	0,5	-0,196900
20,733667	0,5	-0,194700
20,742000	0,5	-0,191550
20,750333	0,5	-0,170500
20,758667	0,5	-0,157600
20,767000	0,5	-0,153600
20,775333	0,5	-0,157400
20,783667	0,5	-0,147250
20,792000	0,5	-0,153800
20,800333	0,5	-0,156450
20,808667	0,5	-0,163900
20,817000	0,5	-0,153750
20,825333	0,5	-0,147650
20,833667	0,5	-0,138250
20,842000	0,5	-0,128350
20,850333	0,5	-0,123400
20,858667	0,5	-0,113800
20,867000	0,5	-0,109500
20,875333	0,5	-0,097900
20,883667	0,5	-0,097800
20,892000	0,5	-0,087750
20,900333	0,5	-0,065300
20,908667	0,5	-0,052400
20,917000	0,5	-0,050250
20,925333	0,5	-0,041000
20,933667	0,5	-0,034850
20,942000	0,5	-0,037000
20,950333	0,5	-0,042100
20,958667	0,5	-0,040450
20,967000	0,5	-0,024500
20,975333	0,5	-0,013900
20,983667	0,5	-0,003150
20,992000	0,5	0,004000
21,000333	0,5	0,009850
21,008667	0,5	0,016450
21,017000	0,5	0,029550
21,025333	0,5	0,034150
21,033667	0,5	0,039250
21,042000	0,5	0,055000
21,050333	0,5	0,070850
21,058667	0,5	0,081150
21,067000	0,5	0,076550
21,075333	0,5	0,078800
21,083667	0,5	0,079450
21,092000	0,5	0,073050
21,100333	0,5	0,057400
21,108667	0,5	0,076800
21,117000	0,5	0,087000
21,125333	0,5	0,094150
21,133667	0,5	0,099150
21,142000	0,5	0,107450
21,150333	0,5	0,113750
21,158667	0,5	0,124600
21,167000	0,5	0,130500
21,175333	0,5	0,141200
21,183667	0,5	0,151000
21,192000	0,5	0,176350
21,200333	0,5	0,197200
21,208667	0,5	0,193200
21,217000	0,5	0,201650
21,225333	0,5	0,209900
21,233667	0,5	0,209300
21,242000	0,5	0,221550
21,250333	0,5	0,225600
21,258667	0,5	0,257000
21,267000	0,5	0,291250
21,275333	0,5	0,317000
21,283667	0,5	0,338950
21,292000	0,5	0,355250
21,300333	0,5	0,356650
21,308667	0,5	0,354800
21,317000	0,5	0,355750
21,325333	0,5	0,347450
21,333667	0,5	0,355550
21,342000	0,5	0,369650
21,350333	0,5	0,380150
21,358667	0,5	0,373200
21,367000	0,5	0,378850
21,375333	0,5	0,382300
21,383667	0,5	0,384150
21,392000	0,5	0,385050
21,400333	0,5	0,383400
21,408667	0,5	0,398750
21,417000	0,5	0,408450
21,425333	0,5	0,418750
21,433667	0,5	0,427250
21,442000	0,5	0,436800
21,450333	0,5	0,445100
21,458667	0,5	0,465450
21,467000	0,5	0,472250
21,475333	0,5	0,490050
21,483667	0,5	0,524450
21,492000	0,5	0,550850
21,500333	0,5	0,557600
21,508667	0,5	0,566950
21,517000	0,5	0,573750
21,525333	0,5	0,580150
21,533667	0,5	0,576000
21,542000	0,5	0,582500
21,550333	0,5	0,591100
21,558667	0,5	0,610650
21,567000	0,5	0,616300
21,575333	0,5	0,630000
21,583667	0,5	0,645800
21,592000	0,5	0,660900
21,600333	0,5	0,677300
21,608667	0,5	0,692300
21,617000	0,5	0,707900
21,625333	0,5	0,723750
21,633667	0,5	0,752550
21,642000	0,5	0,775600
21,650333	0,5	0,779600
21,658667	0,5	0,791500
21,667000	0,5	0,796650
21,675333	0,5	0,803300
21,683667	0,5	0,805050
21,692000	0,5	0,815350
21,700333	0,5	0,838650
21,708667	0,5	0,860150
21,717000	0,5	0,879750
21,725333	0,5	0,896250
21,733667	0,5	0,909500
21,742000	0,5	0,930850
21,750333	0,5	0,947250
21,758667	0,5	0,974550
21,767000	0,5	0,989400
21,775333	0,5	1,029150
21,783667	0,5	1,057400
21,792000	0,5	1,077200
21,800333	0,5	1,098100
21,808667	0,5	1,120500
21,817000	0,5	1,137250
21,825333	0,5	1,154850
21,833667	0,5	1,175450
21,842000	0,5	1,203900
21,850333	0,5	1,232850
21,858667	0,5	1,256100
21,867000	0,5	1,278850
21,875333	0,5	1,297900
21,883667	0,5	1,317600
21,892000	0,5	1,330500
21,900333	0,5	1,354850
21,908667	0,5	1,367350
21,917000	0,5	1,391150
21,925333	0,5	1,414900
21,933667	0,5	1,426250
21,942000	0,5	1,438200
21,950333	0,5	1,461150
21,958667	0,5	1,477850
21,967000	0,5	1,503200
21,975333	0,5	1,506400
21,983667	0,5	1,532400
21,992000	0,5	1,566600
22,000333	0,5	1,597250
22,008667	0,5	1,622850
22,017000	0,5	1,665050
22,025333	0,5	1,697300
22,033667	0,5	1,731450
22,042000	0,5	1,765150
22,050333	0,5	1,794600
22,058667	0,5	1,830350
22,067000	0,5	1,869450
22,075333	0,5	1,912550
22,083667	0,5	1,927600
22,092000	0,5	1,975800
22,100333	0,5	1,998850
22,108667	0,5	2,014200
22,117000	0,5	2,029550
22,125333	0,5	2,037750
22,133667	0,5	2,075950
22,142000	0,5	2,104150
22,150333	0,5	2,134550
22,158667	0,5	2,162900
22,167000	0,5	2,192600
22,175333	0,5	2,220750
22,183667	0,5	2,253900
22,192000	0,5	2,278750
22,200333	0,5	2,313400
22,208667	0,5	2,344350
22,217000	0,5	2,376400
22,225333	0,5	2,400650
22,233667	0,5	2,455400
22,242000	0,5	2,499650
22,250333	0,5	2,548500
22,258667	0,5	2,588450
22,267000	0,5	2,626750
22,275333	0,5	2,671750
22,283667	0,5	2,717900
22,292000	0,5	2,771500
22,300333	0,5	2,825900
22,308667	0,5	2,876350
22,317000	0,5	2,923950
22,325333	0,5	2,970100
22,333667	0,5	3,013600
22,342000	0,5	3,048450
22,350333	0,5	3,085450
22,358667	0,5	3,112950
22,367000	0,5	3,147850
22,375333	0,5	3,196800
22,383667	0,5	3,256000
22,392000	0,5	3,306450
22,400333	0,5	3,355750
22,408667	0,5	3,399350
22,417000	0,5	3,440950
22,425333	0,5	3,498100
22,433667	0,5	3,559650
22,442000	0,5	3,617150
22,450333	0,5	3,676400
22,458667	0,5	3,737050
22,467000	0,5	3,791500
22,475333	0,5	3,841800
22,483667	0,5	3,908300
22,492000	0,5	3,962400
22,500333	0,5	4,023700
22,508667	0,5	4,041600
22,517000	0,5	4,114450
22,525333	0,5	4,172250
22,533667	0,5	4,233700
22,542000	0,5	4,269750
22,550333	0,5	4,306550
22,558667	0,5	4,327650
22,567000	0,5	4,355000
22,575333	0,5	4,390000
22,583667	0,5	4,419200
22,592000	0,5	4,448200
22,600333	0,5	4,466150
22,608667	0,5	4,481150
22,617000	0,5	4,490150
22,625333	0,5	4,497450
22,633667	0,5	4,486000
22,642000	0,5	4,479650
22,650333	0,5	4,434800
22,658667	0,5	4,403700
22,667000	0,5	4,380850
22,675333	0,5	4,370600
22,683667	0,5	4,318450
22,692000	0,5	4,257650
22,700333	0,5	4,181100
22,708667	0,5	4,097150
22,717000	0,5	4,012450
22,725333	0,5	3,924450
22,733667	0,5	3,833950
22,742000	0,5	3,733600
22,750333	0,5	3,628200
22,758667	0,5	3,520500
22,767000	0,5	3,404500
22,775333	0,5	3,284400
22,783667	0,5	3,158150
22,792000	0,5	3,034900
22,800333	0,5	2,857800
22,808667	0,5	2,725350
22,817000	0,5	2,621850
22,825333	0,5	2,483350
22,833667	0,5	2,340050
22,842000	0,5	2,195000
22,850333	0,5	2,048700
22,858667	0,5	1,904700
22,867000	0,5	1,754050
22,875333	0,5	1,608000
22,883667	0,5	1,470250
22,892000	0,5	1,328400
22,900333	0,5	1,194400
22,908667	0,5	1,059800
22,917000	0,5	0,928950
22,925333	0,5	0,799750
22,933667	0,5	0,673100
22,942000	0,5	0,567450
22,950333	0,5	0,428900
22,958667	0,5	0,321300
22,967000	0,5	0,186800
22,975333	0,5	0,054850
22,983667	0,5	-0,046750
22,992000	0,5	-0,158850
23,000333	0,5	-0,240900
23,008667	0,5	-0,347100
23,017000	0,5	-0,440600
23,025333	0,5	-0,529150
23,033667	0,5	-0,606450
23,042000	0,5	-0,683450
23,050333	0,5	-0,752800
23,058667	0,5	-0,817500
23,067000	0,5	-0,888550
23,075333	0,5	-0,934000
23,083667	0,5	-1,020150
23,092000	0,5	-1,049650
23,100333	0,5	-1,092300
23,108667	0,5	-1,151050
23,117000	0,5	-1,240200
23,125333	0,5	-1,286800
23,133667	0,5	-1,332600
23,142000	0,5	-1,363800
23,150333	0,5	-1,391450
23,158667	0,5	-1,435400
23,167000	0,5	-1,472800
23,175333	0,5	-1,496450
23,183667	0,5	-1,522500
23,192000	0,5	-1,539950
23,200333	0,5	-1,559850
23,208667	0,5	-1,576050
23,217000	0,5	-1,599250
23,225333	0,5	-1,615500
23,233667	0,5	-1,614200
23,242000	0,5	-1,653150
23,250333	0,5	-1,646450
23,258667	0,5	-1,642100
23,267000	0,5	-1,685000
23,275333	0,5	-1,705950
23,283667	0,5	-1,710200
23,292000	0,5	-1,712950
23,300333	0,5	-1,712450
23,308667	0,5	-1,729250
23,317000	0,5	-1,726200
23,325333	0,5	-1,729900
23,333667	0,5	-1,722900
23,342000	0,5	-1,723350
23,350333	0,5	-1,715600
23,358667	0,5	-1,712100
23,367000	0,5	-1,709150
23,375333	0,5	-1,700500
23,383667	0,5	-1,712550
23,392000	0,5	-1,728900
23,400333	0,5	-1,681850
23,408667	0,5	-1,665450
23,417000	0,5	-1,675300
23,425333	0,5	-1,678700
23,433667	0,5	-1,671450
23,442000	0,5	-1,662750
23,450333	0,5	-1,655900
23,458667	0,5	-1,652450
23,467000	0,5	-1,649650
23,475333	0,5	-1,635700
23,483667	0,5	-1,630650
23,492000	0,5	-1,615750
23,500333	0,5	-1,605750
23,508667	0,5	-1,596700
23,517000	0,5	-1,585800
23,525333	0,5	-1,575650
23,533667	0,5	-1,648100
23,542000	0,5	-1,615650
23,550333	0,5	-1,563400
23,558667	0,5	-1,527100
23,567000	0,5	-1,517150
23,575333	0,5	-1,515050
23,583667	0,5	-1,504050
23,592000	0,5	-1,493650
23,600333	0,5	-1,486000
23,608667	0,5	-1,475250
23,617000	0,5	-1,465400
23,625333	0,5	-1,454350
23,633667	0,5	-1,441400
23,642000	0,5	-1,430550
23,650333	0,5	-1,421450
23,658667	0,5	-1,408700
23,667000	0,5	-1,396350
23,675333	0,5	-1,413150
23,683667	0,5	-1,486200
23,692000	0,5	-1,444800
23,700333	0,5	-1,387800
23,708667	0,5	-1,349500
23,717000	0,5	-1,331100
23,725333	0,5	-1,320550
23,733667	0,5	-1,315350
23,742000	0,5	-1,307000
23,750333	0,5	-1,286850
23,758667	0,5	-1,272150
23,767000	0,5	-1,257050
23,775333	0,5	-1,242650
23,783667	0,5	-1,228550
23,792000	0,5	-1,215250
23,800333	0,5	-1,198400
23,808667	0,5	-1,188600
23,817000	0,5	-1,175350
23,825333	0,5	-1,281200
23,833667	0,5	-1,261400
23,842000	0,5	-1,232300
23,850333	0,5	-1,159350
23,858667	0,5	-1,132200
23,867000	0,5	-1,115050
23,875333	0,5	-1,104100
23,883667	0,5	-1,101550
23,892000	0,5	-1,085950
23,900333	0,5	-1,069700
23,908667	0,5	-1,055650
23,917000	0,5	-1,042100
23,925333	0,5	-1,028400
23,933667	0,5	-1,016150
23,942000	0,5	-0,997050
23,950333	0,5	-0,984300
23,958667	0,5	-0,964700
23,967000	0,5	-0,961500
23,975333	0,5	-1,062750
23,983667	0,5	-1,024150
23,992000	0,5	-0,985200
24,000333	0,5	-0,932600
24,008667	0,5	-0,905600
24,017000	0,5	-0,890350
24,025333	0,5	-0,879100
24,033667	0,5	-0,888700
24,042000	0,5	-0,862600
24,050333	0,5	-0,846800
24,058667	0,5	-0,836700
24,067000	0,5	-0,822200
24,075333	0,5	-0,809600
24,083667	0,5	-0,795200
24,092000	0,5	-0,782800
24,100333	0,5	-0,769550
24,108667	0,5	-0,762550
24,117000	0,5	-0,806700
24,125333	0,5	-0,846400
24,133667	0,5	-0,805850
24,142000	0,5	-0,766800
24,150333	0,5	-0,722800
24,158667	0,5	-0,705100
24,167000	0,5	-0,689550
24,175333	0,5	-0,688100
24,183667	0,5	-0,682000
24,192000	0,5	-0,663550
24,200333	0,5	-0,645100
24,208667	0,5	-0,632350
24,217000	0,5	-0,623100
24,225333	0,5	-0,617350
24,233667	0,5	-0,602000
24,242000	0,5	-0,587500
24,250333	0,5	-0,575250
24,258667	0,5	-0,568850
24,267000	0,5	-0,652350
24,275333	0,5	-0,620550
24,283667	0,5	-0,601000
24,292000	0,5	-0,562200
24,300333	0,5	-0,539850
24,308667	0,5	-0,526300
24,317000	0,5	-0,520200
24,325333	0,5	-0,522950
24,333667	0,5	-0,518650
24,342000	0,5	-0,498000
24,350333	0,5	-0,490050
24,358667	0,5	-0,475650
24,367000	0,5	-0,466750
24,375333	0,5	-0,456450
24,383667	0,5	-0,446050
24,392000	0,5	-0,433000
24,400333	0,5	-0,427150
24,408667	0,5	-0,426450
24,417000	0,5	-0,486650
24,425333	0,5	-0,464150
24,433667	0,5	-0,437650
24,442000	0,5	-0,408500
24,450333	0,5	-0,392100
24,458667	0,5	-0,387050
24,467000	0,5	-0,385100
24,475333	0,5	-0,391200
24,483667	0,5	-0,381200
24,492000	0,5	-0,370500
24,500333	0,5	-0,357850
24,508667	0,5	-0,354800
24,517000	0,5	-0,348000
24,525333	0,5	-0,344450
24,533667	0,5	-0,332800
24,542000	0,5	-0,326750
24,550333	0,5	-0,319250
24,558667	0,5	-0,337550
24,567000	0,5	-0,356750
24,575333	0,5	-0,339550
24,583667	0,5	-0,315000
24,592000	0,5	-0,298000
24,600333	0,5	-0,286550
24,608667	0,5	-0,279050
24,617000	0,5	-0,291450
24,625333	0,5	-0,284400
24,633667	0,5	-0,279650
24,642000	0,5	-0,270300
24,650333	0,5	-0,266750
24,658667	0,5	-0,257700
24,667000	0,5	-0,257950
24,675333	0,5	-0,248100
24,683667	0,5	-0,246950
24,692000	0,5	-0,239800
24,700333	0,5	-0,237700
24,708667	0,5	-0,272050
24,717000	0,5	-0,264500
24,725333	0,5	-0,252100
24,733667	0,5	-0,233150
24,742000	0,5	-0,216900
24,750333	0,5	-0,213600
24,758667	0,5	-0,209950
24,767000	0,5	-0,212400
24,775333	0,5	-0,213750
24,783667	0,5	-0,205200
24,792000	0,5	-0,200750
24,800333	0,5	-0,194450
24,808667	0,5	-0,196200
24,817000	0,5	-0,193800
24,825333	0,5	-0,189850
24,833667	0,5	-0,184400
24,842000	0,5	-0,183100
24,850333	0,5	-0,183150
24,858667	0,5	-0,205750
24,867000	0,5	-0,192200
24,875333	0,5	-0,183000
24,883667	0,5	-0,174700
24,892000	0,5	-0,167600
24,900333	0,5	-0,161250
24,908667	0,5	-0,167150
24,917000	0,5	-0,171350
24,925333	0,5	-0,162650
24,933667	0,5	-0,157800
24,942000	0,5	-0,156650
24,950333	0,5	-0,155250
24,958667	0,5	-0,149300
24,967000	0,5	-0,147850
24,975333	0,5	-0,146150
24,983667	0,5	-0,144350
24,992000	0,5	-0,143650
25,000333	0,5	-0,151650
25,008667	0,5	-0,150600
25,017000	0,5	-0,145750
25,025333	0,5	-0,137800
25,033667	0,5	-0,131950
25,042000	0,5	-0,129450
25,050333	0,5	-0,127700
25,058667	0,5	-0,128900
25,067000	0,5	-0,131100
25,075333	0,5	-0,126750
25,083667	0,5	-0,124700
25,092000	0,5	-0,122650
25,100333	0,5	-0,122400
25,108667	0,5	-0,120850
25,117000	0,5	-0,119200
25,125333	0,5	-0,116200
25,133667	0,5	-0,115850
25,142000	0,5	-0,115400
25,150333	0,5	-0,121950
25,158667	0,5	-0,114750
25,167000	0,5	-0,111200
25,175333	0,5	-0,110300
25,183667	0,5	-0,106850
25,192000	0,5	-0,104400
25,200333	0,5	-0,106750
25,208667	0,5	-0,110250
25,217000	0,5	-0,106700
25,225333	0,5	-0,110500
25,233667	0,5	-0,107150
25,242000	0,5	-0,105250
25,250333	0,5	-0,106050
25,258667	0,5	-0,107000
25,267000	0,5	-0,105700
25,275333	0,5	-0,104300
25,283667	0,5	-0,102100
25,292000	0,5	-0,096800
25,300333	0,5	-0,102900
25,308667	0,5	-0,098450
25,317000	0,5	-0,096650
25,325333	0,5	-0,096300
25,333667	0,5	-0,092650
25,342000	0,5	-0,092350
25,350333	0,5	-0,094550
25,358667	0,5	-0,094050
25,367000	0,5	-0,093300
25,375333	0,5	-0,093450
25,383667	0,5	-0,093200
25,392000	0,5	-0,090400
25,400333	0,5	-0,092200
25,408667	0,5	-0,093600
25,417000	0,5	-0,093100
25,425333	0,5	-0,091450
25,433667	0,5	-0,092000
25,442000	0,5	-0,091750
25,450333	0,5	-0,087000
25,458667	0,5	-0,085550
25,467000	0,5	-0,087050
25,475333	0,5	-0,087700
25,483667	0,5	-0,086950
25,492000	0,5	-0,087600
25,500333	0,5	-0,086500
25,508667	0,5	-0,086200
25,517000	0,5	-0,086750
25,525333	0,5	-0,087150
25,533667	0,5	-0,084350
25,542000	0,5	-0,084150
25,550333	0,5	-0,084300
25,558667	0,5	-0,085750
25,567000	0,5	-0,084150
25,575333	0,5	-0,086750
25,583667	0,5	-0,086650
25,592000	0,5	-0,082750
25,600333	0,5	-0,082750
25,608667	0,5	-0,080100
25,617000	0,5	-0,084000
25,625333	0,5	-0,084400
25,633667	0,5	-0,083700
25,642000	0,5	-0,082050
25,650333	0,5	-0,079650
25,658667	0,5	-0,079300
25,667000	0,5	-0,080750
25,675333	0,5	-0,081450
25,683667	0,5	-0,078550
25,692000	0,5	-0,079200
25,700333	0,5	-0,077550
25,708667	0,5	-0,077350
25,717000	0,5	-0,078850
25,725333	0,5	-0,078500
25,733667	0,5	-0,079000
25,742000	0,5	-0,072550
25,750333	0,5	-0,072150
25,758667	0,5	-0,070700
25,767000	0,5	-0,075300
25,775333	0,5	-0,075050
25,783667	0,5	-0,073850
25,792000	0,5	-0,072000
25,800333	0,5	-0,066100
25,808667	0,5	-0,068600
25,817000	0,5	-0,069650
25,825333	0,5	-0,068350
25,833667	0,5	-0,068250
25,842000	0,5	-0,066650
25,850333	0,5	-0,066450
25,858667	0,5	-0,066950
25,867000	0,5	-0,067150
25,875333	0,5	-0,065400
25,883667	0,5	-0,060000
25,892000	0,5	-0,057000
25,900333	0,5	-0,058700
25,908667	0,5	-0,058100
25,917000	0,5	-0,063800
25,925333	0,5	-0,063850
25,933667	0,5	-0,062800
25,942000	0,5	-0,060100
25,950333	0,5	-0,055350
25,958667	0,5	-0,057200
25,967000	0,5	-0,053150
25,975333	0,5	-0,053050
25,983667	0,5	-0,049500
25,992000	0,5	-0,049000
26,000333	0,5	-0,044350
