File Path	chrom://chromeleon01/ikbm_chromeleon/2022/ICS-5000/ED1/Esteban/20220612_Cell_7_4_eg.seq/985.smp/ED_1.channel/ED_1.chm
Channel	ED_1

Injection Information:
Data Vault	ikbm_chromeleon
Injection	7_24h-EGS-pH6_3
Injection Number	13
Position	RA8
Comment	
Processing Method	Stop sequence after Cell Death
Instrument Method	ICS5000_PA200_FullNative_Ox_26min_ED1
Type	Unknown
Status	Finished
Injection Date	12.06.2022
Injection Time	21:44:07
Injection Volume (µl)	5,0
Dilution Factor	1,0000
Weight	1,0000

Chromatogram Data Information:
Time Min. (min)	0,000333
Time Max. (min)	26,000333
Data Points	3121
Detector	EDet1
Generating Data System	Chromeleon 7.2.9.11323
Exporting Data System	Chromeleon 7.2.9.0
Operator	Instrument Controller
Signal Quantity	
Signal Unit	nC
Signal Min.	-1,488000
Signal Max.	640,490360
Channel	ED_1
Driver Name	DC-5000
Channel Type	Evaluation
Min. Step (s)	0,5
Max. Step (s)	0,5
Average Step (s)	0,5

Signal Parameter Information:
Signal Info	

Chromatogram Data:
Time (min)	Step (s)	Value (nC)
0,000333	n.a.	-0,013400
0,008667	0,5	-0,033600
0,017000	0,5	-0,019100
0,025333	0,5	-0,009900
0,033667	0,5	-0,011000
0,042000	0,5	0,003100
0,050333	0,5	0,001850
0,058667	0,5	0,007600
0,067000	0,5	0,005500
0,075333	0,5	0,006750
0,083667	0,5	0,002350
0,092000	0,5	0,006800
0,100333	0,5	0,014800
0,108667	0,5	-0,002350
0,117000	0,5	-0,001900
0,125333	0,5	0,020400
0,133667	0,5	-0,004850
0,142000	0,5	-0,004700
0,150333	0,5	0,002050
0,158667	0,5	0,008500
0,167000	0,5	0,028450
0,175333	0,5	0,018550
0,183667	0,5	0,027700
0,192000	0,5	0,023900
0,200333	0,5	0,031850
0,208667	0,5	0,023900
0,217000	0,5	0,028150
0,225333	0,5	0,019050
0,233667	0,5	0,022600
0,242000	0,5	0,023050
0,250333	0,5	0,014950
0,258667	0,5	0,006050
0,267000	0,5	0,018450
0,275333	0,5	0,019650
0,283667	0,5	0,010150
0,292000	0,5	0,025750
0,300333	0,5	0,057100
0,308667	0,5	0,068150
0,317000	0,5	0,062150
0,325333	0,5	0,038600
0,333667	0,5	0,024150
0,342000	0,5	0,027200
0,350333	0,5	0,026150
0,358667	0,5	0,032400
0,367000	0,5	0,031000
0,375333	0,5	0,037600
0,383667	0,5	0,035200
0,392000	0,5	0,038400
0,400333	0,5	0,027600
0,408667	0,5	0,027750
0,417000	0,5	0,035950
0,425333	0,5	0,036900
0,433667	0,5	0,024150
0,442000	0,5	0,031000
0,450333	0,5	0,032750
0,458667	0,5	0,050400
0,467000	0,5	0,060450
0,475333	0,5	0,061150
0,483667	0,5	0,064500
0,492000	0,5	0,061900
0,500333	0,5	0,061850
0,508667	0,5	0,059350
0,517000	0,5	0,061050
0,525333	0,5	0,052150
0,533667	0,5	0,058650
0,542000	0,5	0,058950
0,550333	0,5	0,055350
0,558667	0,5	0,056750
0,567000	0,5	0,080250
0,575333	0,5	0,059200
0,583667	0,5	0,058200
0,592000	0,5	0,064300
0,600333	0,5	0,079500
0,608667	0,5	0,090100
0,617000	0,5	0,087500
0,625333	0,5	0,087950
0,633667	0,5	0,091500
0,642000	0,5	0,094350
0,650333	0,5	0,091800
0,658667	0,5	0,093750
0,667000	0,5	0,097500
0,675333	0,5	0,098000
0,683667	0,5	0,096100
0,692000	0,5	0,100950
0,700333	0,5	0,088250
0,708667	0,5	0,103950
0,717000	0,5	0,101900
0,725333	0,5	0,096650
0,733667	0,5	0,092550
0,742000	0,5	0,104550
0,750333	0,5	0,115150
0,758667	0,5	0,134450
0,767000	0,5	0,123950
0,775333	0,5	0,125000
0,783667	0,5	0,127800
0,792000	0,5	0,131300
0,800333	0,5	0,129700
0,808667	0,5	0,134550
0,817000	0,5	0,129800
0,825333	0,5	0,132100
0,833667	0,5	0,134400
0,842000	0,5	0,130900
0,850333	0,5	0,133050
0,858667	0,5	0,144150
0,867000	0,5	0,145900
0,875333	0,5	0,130300
0,883667	0,5	0,137750
0,892000	0,5	0,141300
0,900333	0,5	0,152100
0,908667	0,5	0,164500
0,917000	0,5	0,167600
0,925333	0,5	0,160900
0,933667	0,5	0,167900
0,942000	0,5	0,162400
0,950333	0,5	0,168450
0,958667	0,5	0,158000
0,967000	0,5	0,160250
0,975333	0,5	0,159000
0,983667	0,5	0,159400
0,992000	0,5	0,161800
1,000333	0,5	0,162700
1,008667	0,5	0,168100
1,017000	0,5	0,159050
1,025333	0,5	0,154400
1,033667	0,5	0,158100
1,042000	0,5	0,165250
1,050333	0,5	0,181300
1,058667	0,5	0,183750
1,067000	0,5	0,174850
1,075333	0,5	0,180100
1,083667	0,5	0,173100
1,092000	0,5	0,177050
1,100333	0,5	0,171600
1,108667	0,5	0,172400
1,117000	0,5	0,165250
1,125333	0,5	0,168050
1,133667	0,5	0,164950
1,142000	0,5	0,158300
1,150333	0,5	0,160350
1,158667	0,5	0,165400
1,167000	0,5	0,149000
1,175333	0,5	0,144800
1,183667	0,5	0,145700
1,192000	0,5	0,153900
1,200333	0,5	0,162700
1,208667	0,5	0,149750
1,217000	0,5	0,150700
1,225333	0,5	0,149700
1,233667	0,5	0,156250
1,242000	0,5	0,147200
1,250333	0,5	0,142300
1,258667	0,5	0,134000
1,267000	0,5	0,134900
1,275333	0,5	0,129200
1,283667	0,5	0,125350
1,292000	0,5	0,108150
1,300333	0,5	0,122200
1,308667	0,5	0,113100
1,317000	0,5	0,105150
1,325333	0,5	0,099500
1,333667	0,5	0,106500
1,342000	0,5	0,110050
1,350333	0,5	0,113950
1,358667	0,5	0,104900
1,367000	0,5	0,097350
1,375333	0,5	0,094100
1,383667	0,5	0,090100
1,392000	0,5	0,086700
1,400333	0,5	0,079650
1,408667	0,5	0,077450
1,417000	0,5	0,069200
1,425333	0,5	0,075000
1,433667	0,5	0,061250
1,442000	0,5	0,058000
1,450333	0,5	0,060700
1,458667	0,5	0,056300
1,467000	0,5	0,048100
1,475333	0,5	0,051250
1,483667	0,5	0,050200
1,492000	0,5	0,063400
1,500333	0,5	0,063400
1,508667	0,5	0,057550
1,517000	0,5	0,053400
1,525333	0,5	0,049500
1,533667	0,5	0,037000
1,542000	0,5	0,033700
1,550333	0,5	0,032550
1,558667	0,5	0,034350
1,567000	0,5	0,048750
1,575333	0,5	0,050000
1,583667	0,5	0,365450
1,592000	0,5	3,015900
1,600333	0,5	14,384600
1,608667	0,5	52,020051
1,617000	0,5	152,029652
1,625333	0,5	333,216205
1,633667	0,5	532,127008
1,642000	0,5	640,490360
1,650333	0,5	610,334359
1,658667	0,5	488,883707
1,667000	0,5	354,471905
1,675333	0,5	248,436204
1,683667	0,5	175,763403
1,692000	0,5	128,671502
1,700333	0,5	98,738051
1,708667	0,5	79,542251
1,717000	0,5	66,521651
1,725333	0,5	57,050901
1,733667	0,5	50,056201
1,742000	0,5	45,380701
1,750333	0,5	43,162851
1,758667	0,5	43,551101
1,767000	0,5	45,782201
1,775333	0,5	47,927651
1,783667	0,5	48,183951
1,792000	0,5	46,078151
1,800333	0,5	42,386001
1,808667	0,5	38,410351
1,817000	0,5	34,951701
1,825333	0,5	32,363050
1,833667	0,5	30,789900
1,842000	0,5	30,439950
1,850333	0,5	30,945550
1,858667	0,5	31,122100
1,867000	0,5	30,083900
1,875333	0,5	28,486450
1,883667	0,5	27,689000
1,892000	0,5	28,893300
1,900333	0,5	33,018450
1,908667	0,5	40,113601
1,917000	0,5	47,568451
1,925333	0,5	51,699901
1,933667	0,5	51,120951
1,942000	0,5	46,800301
1,950333	0,5	40,937901
1,958667	0,5	35,739051
1,967000	0,5	32,335700
1,975333	0,5	30,474050
1,983667	0,5	29,736650
1,992000	0,5	30,357150
2,000333	0,5	31,916100
2,008667	0,5	32,259050
2,017000	0,5	30,244250
2,025333	0,5	27,185750
2,033667	0,5	24,652300
2,042000	0,5	23,381450
2,050333	0,5	24,082350
2,058667	0,5	27,487000
2,067000	0,5	32,161650
2,075333	0,5	34,256401
2,083667	0,5	32,103950
2,092000	0,5	27,957250
2,100333	0,5	24,244950
2,108667	0,5	21,639900
2,117000	0,5	19,914450
2,125333	0,5	18,796650
2,133667	0,5	17,979850
2,142000	0,5	17,308550
2,150333	0,5	16,792100
2,158667	0,5	16,491550
2,167000	0,5	16,398650
2,175333	0,5	16,705950
2,183667	0,5	18,047300
2,192000	0,5	21,404450
2,200333	0,5	23,363600
2,208667	0,5	20,887600
2,217000	0,5	17,353550
2,225333	0,5	15,465300
2,233667	0,5	14,683400
2,242000	0,5	14,378150
2,250333	0,5	14,336950
2,258667	0,5	14,494900
2,267000	0,5	14,893950
2,275333	0,5	15,736500
2,283667	0,5	17,460550
2,292000	0,5	20,508900
2,300333	0,5	24,575500
2,308667	0,5	28,276300
2,317000	0,5	30,141500
2,325333	0,5	29,746250
2,333667	0,5	27,912450
2,342000	0,5	25,862850
2,350333	0,5	24,750350
2,358667	0,5	25,384450
2,367000	0,5	28,766400
2,375333	0,5	36,656151
2,383667	0,5	51,039001
2,392000	0,5	71,308051
2,400333	0,5	91,175151
2,408667	0,5	101,164552
2,417000	0,5	96,970851
2,425333	0,5	82,881151
2,433667	0,5	66,868001
2,442000	0,5	54,823051
2,450333	0,5	49,368151
2,458667	0,5	50,788401
2,467000	0,5	56,795501
2,475333	0,5	63,009851
2,483667	0,5	65,682351
2,492000	0,5	63,694351
2,500333	0,5	58,068101
2,508667	0,5	50,391701
2,517000	0,5	42,216301
2,525333	0,5	34,835401
2,533667	0,5	28,976450
2,542000	0,5	24,801850
2,550333	0,5	22,033900
2,558667	0,5	20,315600
2,567000	0,5	19,333300
2,575333	0,5	19,009400
2,583667	0,5	19,368550
2,592000	0,5	20,425750
2,600333	0,5	21,850200
2,608667	0,5	22,928850
2,617000	0,5	22,983300
2,625333	0,5	21,903150
2,633667	0,5	20,156850
2,642000	0,5	18,345550
2,650333	0,5	16,921100
2,658667	0,5	16,003250
2,667000	0,5	15,580750
2,675333	0,5	15,622300
2,683667	0,5	16,272600
2,692000	0,5	17,941150
2,700333	0,5	21,229450
2,708667	0,5	26,171300
2,717000	0,5	31,526450
2,725333	0,5	35,014851
2,733667	0,5	35,130651
2,742000	0,5	32,122750
2,750333	0,5	27,457050
2,758667	0,5	22,709850
2,767000	0,5	18,867750
2,775333	0,5	16,182350
2,783667	0,5	14,392300
2,792000	0,5	13,192350
2,800333	0,5	12,373600
2,808667	0,5	11,794500
2,817000	0,5	11,384000
2,825333	0,5	11,080200
2,833667	0,5	10,843150
2,842000	0,5	10,670750
2,850333	0,5	10,513450
2,858667	0,5	10,369000
2,867000	0,5	10,241900
2,875333	0,5	10,178300
2,883667	0,5	10,163200
2,892000	0,5	10,174400
2,900333	0,5	10,130550
2,908667	0,5	9,978650
2,917000	0,5	9,741850
2,925333	0,5	9,491100
2,933667	0,5	9,215650
2,942000	0,5	8,984250
2,950333	0,5	8,809050
2,958667	0,5	8,713300
2,967000	0,5	8,695350
2,975333	0,5	8,712850
2,983667	0,5	8,774400
2,992000	0,5	8,873800
3,000333	0,5	9,017400
3,008667	0,5	9,171400
3,017000	0,5	9,327350
3,025333	0,5	9,496500
3,033667	0,5	9,804200
3,042000	0,5	10,255300
3,050333	0,5	10,659050
3,058667	0,5	10,805250
3,067000	0,5	10,695600
3,075333	0,5	10,415750
3,083667	0,5	10,025200
3,092000	0,5	9,616300
3,100333	0,5	9,212900
3,108667	0,5	8,827650
3,117000	0,5	8,479150
3,125333	0,5	8,137550
3,133667	0,5	7,830300
3,142000	0,5	7,550500
3,150333	0,5	7,311000
3,158667	0,5	7,099450
3,167000	0,5	6,921950
3,175333	0,5	6,766350
3,183667	0,5	6,622200
3,192000	0,5	6,493950
3,200333	0,5	6,362000
3,208667	0,5	6,232650
3,217000	0,5	6,108150
3,225333	0,5	6,004700
3,233667	0,5	5,890750
3,242000	0,5	5,805150
3,250333	0,5	5,727600
3,258667	0,5	5,672300
3,267000	0,5	5,632850
3,275333	0,5	5,590400
3,283667	0,5	5,562850
3,292000	0,5	5,551100
3,300333	0,5	5,551700
3,308667	0,5	5,581950
3,317000	0,5	5,649500
3,325333	0,5	5,786050
3,333667	0,5	6,022200
3,342000	0,5	6,394650
3,350333	0,5	6,930200
3,358667	0,5	7,604450
3,367000	0,5	8,355350
3,375333	0,5	9,020700
3,383667	0,5	9,463800
3,392000	0,5	9,596550
3,400333	0,5	9,390650
3,408667	0,5	8,913450
3,417000	0,5	8,291050
3,425333	0,5	7,642600
3,433667	0,5	7,064750
3,442000	0,5	6,598050
3,450333	0,5	6,245100
3,458667	0,5	5,959000
3,467000	0,5	5,720200
3,475333	0,5	5,504800
3,483667	0,5	5,310250
3,492000	0,5	5,153950
3,500333	0,5	5,021500
3,508667	0,5	4,948050
3,517000	0,5	4,924550
3,525333	0,5	4,905000
3,533667	0,5	4,891400
3,542000	0,5	4,881450
3,550333	0,5	4,855100
3,558667	0,5	4,819050
3,567000	0,5	4,757100
3,575333	0,5	4,703300
3,583667	0,5	4,648050
3,592000	0,5	4,611200
3,600333	0,5	4,580150
3,608667	0,5	4,564100
3,617000	0,5	4,543100
3,625333	0,5	4,514700
3,633667	0,5	4,475250
3,642000	0,5	4,426900
3,650333	0,5	4,371050
3,658667	0,5	4,325150
3,667000	0,5	4,279850
3,675333	0,5	4,225200
3,683667	0,5	4,182850
3,692000	0,5	4,149500
3,700333	0,5	4,124900
3,708667	0,5	4,099950
3,717000	0,5	4,070450
3,725333	0,5	4,039150
3,733667	0,5	4,024500
3,742000	0,5	4,023000
3,750333	0,5	4,052350
3,758667	0,5	4,109400
3,767000	0,5	4,220350
3,775333	0,5	4,371500
3,783667	0,5	4,566650
3,792000	0,5	4,769250
3,800333	0,5	4,928900
3,808667	0,5	5,028400
3,817000	0,5	5,021350
3,825333	0,5	4,910450
3,833667	0,5	4,734750
3,842000	0,5	4,527350
3,850333	0,5	4,324700
3,858667	0,5	4,134950
3,867000	0,5	3,969300
3,875333	0,5	3,852750
3,883667	0,5	3,768650
3,892000	0,5	3,717250
3,900333	0,5	3,693450
3,908667	0,5	3,686750
3,917000	0,5	3,690600
3,925333	0,5	3,709450
3,933667	0,5	3,731550
3,942000	0,5	3,756550
3,950333	0,5	3,772650
3,958667	0,5	3,808400
3,967000	0,5	3,815550
3,975333	0,5	3,827900
3,983667	0,5	3,836400
3,992000	0,5	3,851250
4,000333	0,5	3,863500
4,008667	0,5	3,858850
4,017000	0,5	3,850750
4,025333	0,5	3,844350
4,033667	0,5	3,833000
4,042000	0,5	3,820150
4,050333	0,5	3,811850
4,058667	0,5	3,806550
4,067000	0,5	3,806650
4,075333	0,5	3,813900
4,083667	0,5	3,835550
4,092000	0,5	3,853000
4,100333	0,5	3,897950
4,108667	0,5	3,941850
4,117000	0,5	3,976200
4,125333	0,5	4,011150
4,133667	0,5	4,037950
4,142000	0,5	4,049400
4,150333	0,5	4,049950
4,158667	0,5	4,021000
4,167000	0,5	3,982450
4,175333	0,5	3,941500
4,183667	0,5	3,905850
4,192000	0,5	3,880800
4,200333	0,5	3,865000
4,208667	0,5	3,858500
4,217000	0,5	3,856850
4,225333	0,5	3,864500
4,233667	0,5	3,859200
4,242000	0,5	3,855000
4,250333	0,5	3,851000
4,258667	0,5	3,839550
4,267000	0,5	3,815400
4,275333	0,5	3,798800
4,283667	0,5	3,781500
4,292000	0,5	3,786100
4,300333	0,5	3,776550
4,308667	0,5	3,770450
4,317000	0,5	3,762650
4,325333	0,5	3,767650
4,333667	0,5	3,761500
4,342000	0,5	3,765000
4,350333	0,5	3,765250
4,358667	0,5	3,765450
4,367000	0,5	3,756250
4,375333	0,5	3,729900
4,383667	0,5	3,681600
4,392000	0,5	3,595300
4,400333	0,5	3,502000
4,408667	0,5	3,369500
4,417000	0,5	3,235900
4,425333	0,5	3,108100
4,433667	0,5	3,002450
4,442000	0,5	2,922400
4,450333	0,5	2,851350
4,458667	0,5	2,789100
4,467000	0,5	2,744750
4,475333	0,5	2,703400
4,483667	0,5	2,669750
4,492000	0,5	2,633100
4,500333	0,5	2,601400
4,508667	0,5	2,566050
4,517000	0,5	2,536100
4,525333	0,5	2,505100
4,533667	0,5	2,473050
4,542000	0,5	2,447750
4,550333	0,5	2,443150
4,558667	0,5	2,414100
4,567000	0,5	2,403700
4,575333	0,5	2,392650
4,583667	0,5	2,389300
4,592000	0,5	2,395900
4,600333	0,5	2,380450
4,608667	0,5	2,374050
4,617000	0,5	2,365400
4,625333	0,5	2,363450
4,633667	0,5	2,356750
4,642000	0,5	2,357750
4,650333	0,5	2,354800
4,658667	0,5	2,362550
4,667000	0,5	2,372900
4,675333	0,5	2,398950
4,683667	0,5	2,430400
4,692000	0,5	2,491150
4,700333	0,5	2,580400
4,708667	0,5	2,671400
4,717000	0,5	2,788000
4,725333	0,5	2,918500
4,733667	0,5	3,050100
4,742000	0,5	3,177200
4,750333	0,5	3,262150
4,758667	0,5	3,306950
4,767000	0,5	3,309900
4,775333	0,5	3,265950
4,783667	0,5	3,175850
4,792000	0,5	3,054300
4,800333	0,5	2,920400
4,808667	0,5	2,783800
4,817000	0,5	2,664650
4,825333	0,5	2,548450
4,833667	0,5	2,464400
4,842000	0,5	2,403100
4,850333	0,5	2,359700
4,858667	0,5	2,325400
4,867000	0,5	2,324100
4,875333	0,5	2,338100
4,883667	0,5	2,376500
4,892000	0,5	2,427450
4,900333	0,5	2,487600
4,908667	0,5	2,559600
4,917000	0,5	2,638350
4,925333	0,5	2,712500
4,933667	0,5	2,774350
4,942000	0,5	2,815500
4,950333	0,5	2,820650
4,958667	0,5	2,797750
4,967000	0,5	2,738550
4,975333	0,5	2,659900
4,983667	0,5	2,560900
4,992000	0,5	2,471000
5,000333	0,5	2,365250
5,008667	0,5	2,274750
5,017000	0,5	2,198300
5,025333	0,5	2,142250
5,033667	0,5	2,097750
5,042000	0,5	2,058600
5,050333	0,5	2,021050
5,058667	0,5	2,002700
5,067000	0,5	1,983000
5,075333	0,5	1,963700
5,083667	0,5	1,944850
5,092000	0,5	1,931250
5,100333	0,5	1,918250
5,108667	0,5	1,908250
5,117000	0,5	1,900950
5,125333	0,5	1,885950
5,133667	0,5	1,882300
5,142000	0,5	1,886400
5,150333	0,5	1,879700
5,158667	0,5	1,878950
5,167000	0,5	1,893100
5,175333	0,5	1,905800
5,183667	0,5	1,931850
5,192000	0,5	1,941000
5,200333	0,5	1,958700
5,208667	0,5	1,966950
5,217000	0,5	1,982000
5,225333	0,5	1,980850
5,233667	0,5	1,986400
5,242000	0,5	1,982300
5,250333	0,5	1,978550
5,258667	0,5	1,976150
5,267000	0,5	1,980400
5,275333	0,5	1,985550
5,283667	0,5	2,006750
5,292000	0,5	2,035050
5,300333	0,5	2,067050
5,308667	0,5	2,113700
5,317000	0,5	2,171550
5,325333	0,5	2,244150
5,333667	0,5	2,318900
5,342000	0,5	2,396350
5,350333	0,5	2,485400
5,358667	0,5	2,580100
5,367000	0,5	2,678450
5,375333	0,5	2,779300
5,383667	0,5	2,870950
5,392000	0,5	2,961800
5,400333	0,5	3,031850
5,408667	0,5	3,086100
5,417000	0,5	3,113700
5,425333	0,5	3,116800
5,433667	0,5	3,095000
5,442000	0,5	3,034450
5,450333	0,5	2,946900
5,458667	0,5	2,840650
5,467000	0,5	2,723850
5,475333	0,5	2,595900
5,483667	0,5	2,465700
5,492000	0,5	2,332400
5,500333	0,5	2,210200
5,508667	0,5	2,100150
5,517000	0,5	2,005300
5,525333	0,5	1,924900
5,533667	0,5	1,869400
5,542000	0,5	1,823900
5,550333	0,5	1,796150
5,558667	0,5	1,785750
5,567000	0,5	1,777900
5,575333	0,5	1,781600
5,583667	0,5	1,794850
5,592000	0,5	1,802850
5,600333	0,5	1,814350
5,608667	0,5	1,832400
5,617000	0,5	1,854500
5,625333	0,5	1,882500
5,633667	0,5	1,900850
5,642000	0,5	1,926950
5,650333	0,5	1,958250
5,658667	0,5	1,993250
5,667000	0,5	2,025050
5,675333	0,5	2,065000
5,683667	0,5	2,094050
5,692000	0,5	2,117400
5,700333	0,5	2,131000
5,708667	0,5	2,130350
5,717000	0,5	2,106400
5,725333	0,5	2,077750
5,733667	0,5	2,035800
5,742000	0,5	1,984600
5,750333	0,5	1,938000
5,758667	0,5	1,891650
5,767000	0,5	1,851100
5,775333	0,5	1,821500
5,783667	0,5	1,784000
5,792000	0,5	1,755650
5,800333	0,5	1,730000
5,808667	0,5	1,708600
5,817000	0,5	1,689000
5,825333	0,5	1,661450
5,833667	0,5	1,638200
5,842000	0,5	1,615900
5,850333	0,5	1,596250
5,858667	0,5	1,574200
5,867000	0,5	1,555000
5,875333	0,5	1,543200
5,883667	0,5	1,526700
5,892000	0,5	1,519200
5,900333	0,5	1,514300
5,908667	0,5	1,520950
5,917000	0,5	1,536400
5,925333	0,5	1,553900
5,933667	0,5	1,567400
5,942000	0,5	1,584600
5,950333	0,5	1,601150
5,958667	0,5	1,616150
5,967000	0,5	1,626950
5,975333	0,5	1,624100
5,983667	0,5	1,615650
5,992000	0,5	1,603800
6,000333	0,5	1,579750
6,008667	0,5	1,557600
6,017000	0,5	1,527800
6,025333	0,5	1,506300
6,033667	0,5	1,474700
6,042000	0,5	1,454650
6,050333	0,5	1,438500
6,058667	0,5	1,436650
6,067000	0,5	1,435450
6,075333	0,5	1,440950
6,083667	0,5	1,439600
6,092000	0,5	1,444150
6,100333	0,5	1,447000
6,108667	0,5	1,457200
6,117000	0,5	1,465250
6,125333	0,5	1,476400
6,133667	0,5	1,492300
6,142000	0,5	1,522400
6,150333	0,5	1,566400
6,158667	0,5	1,632650
6,167000	0,5	1,734900
6,175333	0,5	1,868350
6,183667	0,5	2,009000
6,192000	0,5	2,141750
6,200333	0,5	2,236450
6,208667	0,5	2,283050
6,217000	0,5	2,275700
6,225333	0,5	2,215900
6,233667	0,5	2,141300
6,242000	0,5	2,060800
6,250333	0,5	2,000000
6,258667	0,5	1,956200
6,267000	0,5	1,940300
6,275333	0,5	1,944600
6,283667	0,5	1,989800
6,292000	0,5	2,094250
6,300333	0,5	2,282100
6,308667	0,5	2,585800
6,317000	0,5	3,010650
6,325333	0,5	3,492700
6,333667	0,5	3,965850
6,342000	0,5	4,324450
6,350333	0,5	4,492350
6,358667	0,5	4,437500
6,367000	0,5	4,183350
6,375333	0,5	3,799750
6,383667	0,5	3,372200
6,392000	0,5	2,974950
6,400333	0,5	2,645250
6,408667	0,5	2,406950
6,417000	0,5	2,258650
6,425333	0,5	2,206850
6,433667	0,5	2,231950
6,442000	0,5	2,346500
6,450333	0,5	2,480450
6,458667	0,5	2,517500
6,467000	0,5	2,463850
6,475333	0,5	2,314850
6,483667	0,5	2,119400
6,492000	0,5	1,947700
6,500333	0,5	1,824100
6,508667	0,5	1,732050
6,517000	0,5	1,661950
6,525333	0,5	1,616900
6,533667	0,5	1,589300
6,542000	0,5	1,571800
6,550333	0,5	1,557100
6,558667	0,5	1,546500
6,567000	0,5	1,535850
6,575333	0,5	1,526500
6,583667	0,5	1,522850
6,592000	0,5	1,516550
6,600333	0,5	1,510800
6,608667	0,5	1,506950
6,617000	0,5	1,512650
6,625333	0,5	1,503150
6,633667	0,5	1,507200
6,642000	0,5	1,507050
6,650333	0,5	1,512300
6,658667	0,5	1,522100
6,667000	0,5	1,530300
6,675333	0,5	1,533050
6,683667	0,5	1,537850
6,692000	0,5	1,544500
6,700333	0,5	1,547500
6,708667	0,5	1,553950
6,717000	0,5	1,554950
6,725333	0,5	1,560150
6,733667	0,5	1,563350
6,742000	0,5	1,563900
6,750333	0,5	1,560900
6,758667	0,5	1,567750
6,767000	0,5	1,566900
6,775333	0,5	1,565250
6,783667	0,5	1,570350
6,792000	0,5	1,569200
6,800333	0,5	1,581350
6,808667	0,5	1,584600
6,817000	0,5	1,587700
6,825333	0,5	1,592700
6,833667	0,5	1,594500
6,842000	0,5	1,598600
6,850333	0,5	1,601800
6,858667	0,5	1,600850
6,867000	0,5	1,604350
6,875333	0,5	1,608900
6,883667	0,5	1,616450
6,892000	0,5	1,618500
6,900333	0,5	1,623450
6,908667	0,5	1,639400
6,917000	0,5	1,649650
6,925333	0,5	1,658450
6,933667	0,5	1,672350
6,942000	0,5	1,686800
6,950333	0,5	1,710150
6,958667	0,5	1,722800
6,967000	0,5	1,737250
6,975333	0,5	1,749900
6,983667	0,5	1,763950
6,992000	0,5	1,769600
7,000333	0,5	1,775750
7,008667	0,5	1,779250
7,017000	0,5	1,780450
7,025333	0,5	1,775650
7,033667	0,5	1,770600
7,042000	0,5	1,756450
7,050333	0,5	1,742150
7,058667	0,5	1,728400
7,067000	0,5	1,705900
7,075333	0,5	1,689900
7,083667	0,5	1,668600
7,092000	0,5	1,655450
7,100333	0,5	1,646200
7,108667	0,5	1,634550
7,117000	0,5	1,622650
7,125333	0,5	1,620950
7,133667	0,5	1,622050
7,142000	0,5	1,626200
7,150333	0,5	1,627650
7,158667	0,5	1,640650
7,167000	0,5	1,654300
7,175333	0,5	1,680150
7,183667	0,5	1,707200
7,192000	0,5	1,740500
7,200333	0,5	1,780150
7,208667	0,5	1,836350
7,217000	0,5	1,884550
7,225333	0,5	1,950650
7,233667	0,5	2,030450
7,242000	0,5	2,125300
7,250333	0,5	2,238100
7,258667	0,5	2,364000
7,267000	0,5	2,516800
7,275333	0,5	2,698600
7,283667	0,5	2,919850
7,292000	0,5	3,185300
7,300333	0,5	3,508350
7,308667	0,5	3,895400
7,317000	0,5	4,357650
7,325333	0,5	4,896300
7,333667	0,5	5,500450
7,342000	0,5	6,159600
7,350333	0,5	6,852550
7,358667	0,5	7,528100
7,367000	0,5	8,152750
7,375333	0,5	8,672450
7,383667	0,5	9,043600
7,392000	0,5	9,226900
7,400333	0,5	9,198650
7,408667	0,5	8,951100
7,417000	0,5	8,504500
7,425333	0,5	7,901700
7,433667	0,5	7,183600
7,442000	0,5	6,409500
7,450333	0,5	5,633050
7,458667	0,5	4,895400
7,467000	0,5	4,234100
7,475333	0,5	3,667150
7,483667	0,5	3,197500
7,492000	0,5	2,832650
7,500333	0,5	2,553600
7,508667	0,5	2,351850
7,517000	0,5	2,200900
7,525333	0,5	2,105700
7,533667	0,5	2,044500
7,542000	0,5	2,012400
7,550333	0,5	1,999650
7,558667	0,5	1,998800
7,567000	0,5	2,008200
7,575333	0,5	2,032250
7,583667	0,5	2,065800
7,592000	0,5	2,110900
7,600333	0,5	2,172750
7,608667	0,5	2,240500
7,617000	0,5	2,323700
7,625333	0,5	2,404400
7,633667	0,5	2,480350
7,642000	0,5	2,545900
7,650333	0,5	2,588150
7,658667	0,5	2,596400
7,667000	0,5	2,578100
7,675333	0,5	2,532250
7,683667	0,5	2,474900
7,692000	0,5	2,400450
7,700333	0,5	2,315150
7,708667	0,5	2,224000
7,717000	0,5	2,136250
7,725333	0,5	2,055800
7,733667	0,5	1,980050
7,742000	0,5	1,909800
7,750333	0,5	1,850650
7,758667	0,5	1,799000
7,767000	0,5	1,759200
7,775333	0,5	1,728600
7,783667	0,5	1,703900
7,792000	0,5	1,686850
7,800333	0,5	1,678200
7,808667	0,5	1,674400
7,817000	0,5	1,673950
7,825333	0,5	1,677300
7,833667	0,5	1,684900
7,842000	0,5	1,694700
7,850333	0,5	1,701550
7,858667	0,5	1,708350
7,867000	0,5	1,713750
7,875333	0,5	1,718600
7,883667	0,5	1,722500
7,892000	0,5	1,723850
7,900333	0,5	1,724000
7,908667	0,5	1,725200
7,917000	0,5	1,725100
7,925333	0,5	1,723200
7,933667	0,5	1,709650
7,942000	0,5	1,702600
7,950333	0,5	1,681200
7,958667	0,5	1,659400
7,967000	0,5	1,639950
7,975333	0,5	1,621950
7,983667	0,5	1,613600
7,992000	0,5	1,605150
8,000333	0,5	1,606100
8,008667	0,5	1,610650
8,017000	0,5	1,634800
8,025333	0,5	1,669000
8,033667	0,5	1,728050
8,042000	0,5	1,811100
8,050333	0,5	1,926550
8,058667	0,5	2,057850
8,067000	0,5	2,198850
8,075333	0,5	2,325500
8,083667	0,5	2,437700
8,092000	0,5	2,534000
8,100333	0,5	2,623850
8,108667	0,5	2,730450
8,117000	0,5	2,874000
8,125333	0,5	3,063200
8,133667	0,5	3,297800
8,142000	0,5	3,569750
8,150333	0,5	3,867250
8,158667	0,5	4,175900
8,167000	0,5	4,478150
8,175333	0,5	4,758700
8,183667	0,5	4,988350
8,192000	0,5	5,153050
8,200333	0,5	5,241750
8,208667	0,5	5,249800
8,217000	0,5	5,183600
8,225333	0,5	5,065800
8,233667	0,5	4,932750
8,242000	0,5	4,806850
8,250333	0,5	4,703050
8,258667	0,5	4,607150
8,267000	0,5	4,494900
8,275333	0,5	4,330800
8,283667	0,5	4,102850
8,292000	0,5	3,800200
8,300333	0,5	3,459150
8,308667	0,5	3,109100
8,317000	0,5	2,782200
8,325333	0,5	2,497050
8,333667	0,5	2,268400
8,342000	0,5	2,088350
8,350333	0,5	1,956450
8,358667	0,5	1,858000
8,367000	0,5	1,793850
8,375333	0,5	1,753050
8,383667	0,5	1,737850
8,392000	0,5	1,744800
8,400333	0,5	1,771950
8,408667	0,5	1,815600
8,417000	0,5	1,872200
8,425333	0,5	1,934450
8,433667	0,5	1,989900
8,442000	0,5	2,035500
8,450333	0,5	2,069150
8,458667	0,5	2,093650
8,467000	0,5	2,104600
8,475333	0,5	2,102750
8,483667	0,5	2,080450
8,492000	0,5	2,031650
8,500333	0,5	1,967650
8,508667	0,5	1,880300
8,517000	0,5	1,785850
8,525333	0,5	1,694250
8,533667	0,5	1,616750
8,542000	0,5	1,554300
8,550333	0,5	1,504250
8,558667	0,5	1,466250
8,567000	0,5	1,441600
8,575333	0,5	1,430700
8,583667	0,5	1,431650
8,592000	0,5	1,452800
8,600333	0,5	1,501200
8,608667	0,5	1,585400
8,617000	0,5	1,690000
8,625333	0,5	1,803100
8,633667	0,5	1,889750
8,642000	0,5	1,929850
8,650333	0,5	1,916250
8,658667	0,5	1,858050
8,667000	0,5	1,771200
8,675333	0,5	1,682350
8,683667	0,5	1,598350
8,692000	0,5	1,516300
8,700333	0,5	1,450350
8,708667	0,5	1,398150
8,717000	0,5	1,362150
8,725333	0,5	1,340350
8,733667	0,5	1,334250
8,742000	0,5	1,337450
8,750333	0,5	1,343200
8,758667	0,5	1,354950
8,767000	0,5	1,358250
8,775333	0,5	1,356050
8,783667	0,5	1,347550
8,792000	0,5	1,335600
8,800333	0,5	1,319250
8,808667	0,5	1,305250
8,817000	0,5	1,298450
8,825333	0,5	1,299800
8,833667	0,5	1,317050
8,842000	0,5	1,348100
8,850333	0,5	1,396500
8,858667	0,5	1,468350
8,867000	0,5	1,551000
8,875333	0,5	1,630050
8,883667	0,5	1,698850
8,892000	0,5	1,739950
8,900333	0,5	1,754800
8,908667	0,5	1,743150
8,917000	0,5	1,708200
8,925333	0,5	1,660200
8,933667	0,5	1,610250
8,942000	0,5	1,562300
8,950333	0,5	1,525450
8,958667	0,5	1,498550
8,967000	0,5	1,480100
8,975333	0,5	1,471700
8,983667	0,5	1,478350
8,992000	0,5	1,490550
9,000333	0,5	1,524100
9,008667	0,5	1,581450
9,017000	0,5	1,666650
9,025333	0,5	1,768300
9,033667	0,5	1,856450
9,042000	0,5	1,914800
9,050333	0,5	1,917200
9,058667	0,5	1,878300
9,067000	0,5	1,796400
9,075333	0,5	1,706700
9,083667	0,5	1,623400
9,092000	0,5	1,565350
9,100333	0,5	1,540600
9,108667	0,5	1,554500
9,117000	0,5	1,588900
9,125333	0,5	1,642400
9,133667	0,5	1,694050
9,142000	0,5	1,723650
9,150333	0,5	1,717050
9,158667	0,5	1,676300
9,167000	0,5	1,613850
9,175333	0,5	1,540600
9,183667	0,5	1,463750
9,192000	0,5	1,402150
9,200333	0,5	1,355700
9,208667	0,5	1,320900
9,217000	0,5	1,303250
9,225333	0,5	1,287750
9,233667	0,5	1,281700
9,242000	0,5	1,276000
9,250333	0,5	1,266750
9,258667	0,5	1,260200
9,267000	0,5	1,257200
9,275333	0,5	1,256850
9,283667	0,5	1,256000
9,292000	0,5	1,262350
9,300333	0,5	1,275200
9,308667	0,5	1,294000
9,317000	0,5	1,314250
9,325333	0,5	1,348550
9,333667	0,5	1,385950
9,342000	0,5	1,439850
9,350333	0,5	1,521700
9,358667	0,5	1,641800
9,367000	0,5	1,794350
9,375333	0,5	1,963550
9,383667	0,5	2,113500
9,392000	0,5	2,209800
9,400333	0,5	2,234400
9,408667	0,5	2,180950
9,417000	0,5	2,069700
9,425333	0,5	1,927450
9,433667	0,5	1,776850
9,442000	0,5	1,635150
9,450333	0,5	1,513350
9,458667	0,5	1,423000
9,467000	0,5	1,357350
9,475333	0,5	1,317950
9,483667	0,5	1,288050
9,492000	0,5	1,282000
9,500333	0,5	1,283000
9,508667	0,5	1,297900
9,517000	0,5	1,318300
9,525333	0,5	1,345700
9,533667	0,5	1,371750
9,542000	0,5	1,396500
9,550333	0,5	1,419700
9,558667	0,5	1,451850
9,567000	0,5	1,503300
9,575333	0,5	1,574950
9,583667	0,5	1,661450
9,592000	0,5	1,745150
9,600333	0,5	1,813850
9,608667	0,5	1,858950
9,617000	0,5	1,862800
9,625333	0,5	1,827850
9,633667	0,5	1,775700
9,642000	0,5	1,716650
9,650333	0,5	1,666950
9,658667	0,5	1,647300
9,667000	0,5	1,657850
9,675333	0,5	1,706400
9,683667	0,5	1,786500
9,692000	0,5	1,897800
9,700333	0,5	2,035450
9,708667	0,5	2,197000
9,717000	0,5	2,380650
9,725333	0,5	2,576300
9,733667	0,5	2,781800
9,742000	0,5	2,988300
9,750333	0,5	3,177500
9,758667	0,5	3,341750
9,767000	0,5	3,444650
9,775333	0,5	3,467450
9,783667	0,5	3,398650
9,792000	0,5	3,246900
9,800333	0,5	3,027800
9,808667	0,5	2,775200
9,817000	0,5	2,517000
9,825333	0,5	2,281050
9,833667	0,5	2,069500
9,842000	0,5	1,893000
9,850333	0,5	1,754150
9,858667	0,5	1,644150
9,867000	0,5	1,575350
9,875333	0,5	1,521550
9,883667	0,5	1,496850
9,892000	0,5	1,484450
9,900333	0,5	1,484850
9,908667	0,5	1,496900
9,917000	0,5	1,505600
9,925333	0,5	1,521600
9,933667	0,5	1,544550
9,942000	0,5	1,583050
9,950333	0,5	1,636150
9,958667	0,5	1,686700
9,967000	0,5	1,730200
9,975333	0,5	1,750850
9,983667	0,5	1,748050
9,992000	0,5	1,725800
10,000333	0,5	1,686250
10,008667	0,5	1,635600
10,017000	0,5	1,601250
10,025333	0,5	1,577750
10,033667	0,5	1,575650
10,042000	0,5	1,609500
10,050333	0,5	1,680000
10,058667	0,5	1,792500
10,067000	0,5	1,920600
10,075333	0,5	2,038250
10,083667	0,5	2,123250
10,092000	0,5	2,151550
10,100333	0,5	2,122450
10,108667	0,5	2,046650
10,117000	0,5	1,939800
10,125333	0,5	1,830950
10,133667	0,5	1,735850
10,142000	0,5	1,653150
10,150333	0,5	1,594350
10,158667	0,5	1,564050
10,167000	0,5	1,555850
10,175333	0,5	1,567800
10,183667	0,5	1,593000
10,192000	0,5	1,637350
10,200333	0,5	1,693250
10,208667	0,5	1,754750
10,217000	0,5	1,816500
10,225333	0,5	1,867700
10,233667	0,5	1,911700
10,242000	0,5	1,963550
10,250333	0,5	2,044000
10,258667	0,5	2,166600
10,267000	0,5	2,310700
10,275333	0,5	2,451500
10,283667	0,5	2,570700
10,292000	0,5	2,634450
10,300333	0,5	2,618800
10,308667	0,5	2,539300
10,317000	0,5	2,430550
10,325333	0,5	2,349600
10,333667	0,5	2,366000
10,342000	0,5	2,584600
10,350333	0,5	3,291700
10,358667	0,5	4,676400
10,367000	0,5	5,774350
10,375333	0,5	5,954150
10,383667	0,5	5,515200
10,392000	0,5	4,589700
10,400333	0,5	3,389500
10,408667	0,5	2,337000
10,417000	0,5	1,598300
10,425333	0,5	1,155600
10,433667	0,5	0,892350
10,442000	0,5	0,734450
10,450333	0,5	0,626000
10,458667	0,5	0,557350
10,467000	0,5	0,495650
10,475333	0,5	0,454050
10,483667	0,5	0,418600
10,492000	0,5	0,391000
10,500333	0,5	0,367250
10,508667	0,5	0,350900
10,517000	0,5	0,329550
10,525333	0,5	0,311650
10,533667	0,5	0,294900
10,542000	0,5	0,279550
10,550333	0,5	0,267100
10,558667	0,5	0,255000
10,567000	0,5	0,242150
10,575333	0,5	0,235350
10,583667	0,5	0,227550
10,592000	0,5	0,221500
10,600333	0,5	0,215600
10,608667	0,5	0,213700
10,617000	0,5	0,208950
10,625333	0,5	0,206200
10,633667	0,5	0,206350
10,642000	0,5	0,208050
10,650333	0,5	0,218600
10,658667	0,5	0,221900
10,667000	0,5	0,231900
10,675333	0,5	0,241850
10,683667	0,5	0,251650
10,692000	0,5	0,259550
10,700333	0,5	0,266250
10,708667	0,5	0,265800
10,717000	0,5	0,267650
10,725333	0,5	0,268100
10,733667	0,5	0,263700
10,742000	0,5	0,253350
10,750333	0,5	0,246450
10,758667	0,5	0,234350
10,767000	0,5	0,221750
10,775333	0,5	0,206450
10,783667	0,5	0,186250
10,792000	0,5	0,177450
10,800333	0,5	0,159850
10,808667	0,5	0,147950
10,817000	0,5	0,132750
10,825333	0,5	0,119350
10,833667	0,5	0,104600
10,842000	0,5	0,095450
10,850333	0,5	0,085950
10,858667	0,5	0,071650
10,867000	0,5	0,064000
10,875333	0,5	0,055800
10,883667	0,5	0,044050
10,892000	0,5	0,033150
10,900333	0,5	0,027750
10,908667	0,5	0,019550
10,917000	0,5	0,011450
10,925333	0,5	0,004850
10,933667	0,5	-0,001200
10,942000	0,5	-0,005050
10,950333	0,5	-0,005400
10,958667	0,5	-0,015200
10,967000	0,5	-0,015150
10,975333	0,5	-0,016300
10,983667	0,5	-0,015950
10,992000	0,5	-0,018400
11,000333	0,5	-0,011750
11,008667	0,5	-0,011250
11,017000	0,5	-0,010900
11,025333	0,5	-0,004400
11,033667	0,5	-0,000150
11,042000	0,5	0,004200
11,050333	0,5	0,009450
11,058667	0,5	0,011750
11,067000	0,5	0,015600
11,075333	0,5	0,018700
11,083667	0,5	0,023350
11,092000	0,5	0,032600
11,100333	0,5	0,037050
11,108667	0,5	0,042250
11,117000	0,5	0,048000
11,125333	0,5	0,056350
11,133667	0,5	0,061550
11,142000	0,5	0,071000
11,150333	0,5	0,074900
11,158667	0,5	0,081600
11,167000	0,5	0,085050
11,175333	0,5	0,093700
11,183667	0,5	0,090750
11,192000	0,5	0,096300
11,200333	0,5	0,096750
11,208667	0,5	0,097750
11,217000	0,5	0,086650
11,225333	0,5	0,078900
11,233667	0,5	0,073650
11,242000	0,5	0,070000
11,250333	0,5	0,057450
11,258667	0,5	0,049450
11,267000	0,5	0,045000
11,275333	0,5	0,037200
11,283667	0,5	0,030350
11,292000	0,5	0,019500
11,300333	0,5	0,019750
11,308667	0,5	0,011400
11,317000	0,5	0,009900
11,325333	0,5	0,007450
11,333667	0,5	0,000950
11,342000	0,5	0,001950
11,350333	0,5	-0,000900
11,358667	0,5	-0,005100
11,367000	0,5	-0,002700
11,375333	0,5	-0,004350
11,383667	0,5	-0,003650
11,392000	0,5	0,001550
11,400333	0,5	0,005100
11,408667	0,5	0,004500
11,417000	0,5	0,008000
11,425333	0,5	0,012300
11,433667	0,5	0,012850
11,442000	0,5	0,013700
11,450333	0,5	0,015000
11,458667	0,5	0,017950
11,467000	0,5	0,021600
11,475333	0,5	0,022350
11,483667	0,5	0,024650
11,492000	0,5	0,033050
11,500333	0,5	0,031600
11,508667	0,5	0,034950
11,517000	0,5	0,034550
11,525333	0,5	0,036650
11,533667	0,5	0,043650
11,542000	0,5	0,051000
11,550333	0,5	0,053800
11,558667	0,5	0,063900
11,567000	0,5	0,068250
11,575333	0,5	0,074150
11,583667	0,5	0,083800
11,592000	0,5	0,091350
11,600333	0,5	0,103400
11,608667	0,5	0,111350
11,617000	0,5	0,121100
11,625333	0,5	0,127750
11,633667	0,5	0,137050
11,642000	0,5	0,149900
11,650333	0,5	0,155150
11,658667	0,5	0,166450
11,667000	0,5	0,174850
11,675333	0,5	0,180400
11,683667	0,5	0,196150
11,692000	0,5	0,200700
11,700333	0,5	0,209500
11,708667	0,5	0,214650
11,717000	0,5	0,214500
11,725333	0,5	0,218800
11,733667	0,5	0,220700
11,742000	0,5	0,215350
11,750333	0,5	0,205900
11,758667	0,5	0,208450
11,767000	0,5	0,200900
11,775333	0,5	0,192300
11,783667	0,5	0,190750
11,792000	0,5	0,180550
11,800333	0,5	0,175100
11,808667	0,5	0,167750
11,817000	0,5	0,159300
11,825333	0,5	0,159600
11,833667	0,5	0,153600
11,842000	0,5	0,154150
11,850333	0,5	0,151000
11,858667	0,5	0,155700
11,867000	0,5	0,154550
11,875333	0,5	0,154850
11,883667	0,5	0,155100
11,892000	0,5	0,155550
11,900333	0,5	0,157650
11,908667	0,5	0,160600
11,917000	0,5	0,158650
11,925333	0,5	0,166000
11,933667	0,5	0,169500
11,942000	0,5	0,174850
11,950333	0,5	0,176250
11,958667	0,5	0,177250
11,967000	0,5	0,184100
11,975333	0,5	0,195150
11,983667	0,5	0,207800
11,992000	0,5	0,214800
12,000333	0,5	0,227600
12,008667	0,5	0,240550
12,017000	0,5	0,255600
12,025333	0,5	0,268000
12,033667	0,5	0,285200
12,042000	0,5	0,302850
12,050333	0,5	0,326200
12,058667	0,5	0,347050
12,067000	0,5	0,369000
12,075333	0,5	0,397350
12,083667	0,5	0,427350
12,092000	0,5	0,457350
12,100333	0,5	0,483350
12,108667	0,5	0,512800
12,117000	0,5	0,542750
12,125333	0,5	0,579950
12,133667	0,5	0,604650
12,142000	0,5	0,627900
12,150333	0,5	0,660850
12,158667	0,5	0,680750
12,167000	0,5	0,702550
12,175333	0,5	0,721100
12,183667	0,5	0,733650
12,192000	0,5	0,753950
12,200333	0,5	0,770450
12,208667	0,5	0,794150
12,217000	0,5	0,803550
12,225333	0,5	0,831100
12,233667	0,5	0,850700
12,242000	0,5	0,871200
12,250333	0,5	0,900400
12,258667	0,5	0,924300
12,267000	0,5	0,963550
12,275333	0,5	0,998500
12,283667	0,5	1,035450
12,292000	0,5	1,065400
12,300333	0,5	1,088550
12,308667	0,5	1,105050
12,317000	0,5	1,109250
12,325333	0,5	1,109850
12,333667	0,5	1,104500
12,342000	0,5	1,092850
12,350333	0,5	1,080250
12,358667	0,5	1,067550
12,367000	0,5	1,054450
12,375333	0,5	1,045150
12,383667	0,5	1,040000
12,392000	0,5	1,032550
12,400333	0,5	1,030100
12,408667	0,5	1,025900
12,417000	0,5	1,033900
12,425333	0,5	1,042500
12,433667	0,5	1,052500
12,442000	0,5	1,062450
12,450333	0,5	1,078800
12,458667	0,5	1,093150
12,467000	0,5	1,105450
12,475333	0,5	1,118900
12,483667	0,5	1,129850
12,492000	0,5	1,143800
12,500333	0,5	1,157600
12,508667	0,5	1,165950
12,517000	0,5	1,178950
12,525333	0,5	1,191100
12,533667	0,5	1,198100
12,542000	0,5	1,207250
12,550333	0,5	1,214300
12,558667	0,5	1,228200
12,567000	0,5	1,242900
12,575333	0,5	1,268650
12,583667	0,5	1,292050
12,592000	0,5	1,324000
12,600333	0,5	1,354900
12,608667	0,5	1,383450
12,617000	0,5	1,407600
12,625333	0,5	1,414700
12,633667	0,5	1,420400
12,642000	0,5	1,416800
12,650333	0,5	1,410300
12,658667	0,5	1,396050
12,667000	0,5	1,386150
12,675333	0,5	1,374000
12,683667	0,5	1,365050
12,692000	0,5	1,357150
12,700333	0,5	1,346450
12,708667	0,5	1,348400
12,717000	0,5	1,353150
12,725333	0,5	1,350300
12,733667	0,5	1,359450
12,742000	0,5	1,368100
12,750333	0,5	1,380650
12,758667	0,5	1,387450
12,767000	0,5	1,399700
12,775333	0,5	1,402600
12,783667	0,5	1,402950
12,792000	0,5	1,403900
12,800333	0,5	1,399250
12,808667	0,5	1,395400
12,817000	0,5	1,396700
12,825333	0,5	1,397800
12,833667	0,5	1,398700
12,842000	0,5	1,400500
12,850333	0,5	1,404800
12,858667	0,5	1,417300
12,867000	0,5	1,422700
12,875333	0,5	1,430900
12,883667	0,5	1,430800
12,892000	0,5	1,430350
12,900333	0,5	1,426250
12,908667	0,5	1,422050
12,917000	0,5	1,415850
12,925333	0,5	1,414500
12,933667	0,5	1,415900
12,942000	0,5	1,413850
12,950333	0,5	1,405700
12,958667	0,5	1,408900
12,967000	0,5	1,408300
12,975333	0,5	1,404650
12,983667	0,5	1,395900
12,992000	0,5	1,388000
13,000333	0,5	1,391650
13,008667	0,5	1,391000
13,017000	0,5	1,393000
13,025333	0,5	1,396250
13,033667	0,5	1,404700
13,042000	0,5	1,408600
13,050333	0,5	1,416650
13,058667	0,5	1,427000
13,067000	0,5	1,435100
13,075333	0,5	1,441100
13,083667	0,5	1,443700
13,092000	0,5	1,445600
13,100333	0,5	1,435150
13,108667	0,5	1,436950
13,117000	0,5	1,426050
13,125333	0,5	1,414900
13,133667	0,5	1,405450
13,142000	0,5	1,391050
13,150333	0,5	1,389050
13,158667	0,5	1,388550
13,167000	0,5	1,384000
13,175333	0,5	1,382650
13,183667	0,5	1,387000
13,192000	0,5	1,390550
13,200333	0,5	1,391500
13,208667	0,5	1,397150
13,217000	0,5	1,394100
13,225333	0,5	1,401200
13,233667	0,5	1,400800
13,242000	0,5	1,407700
13,250333	0,5	1,407000
13,258667	0,5	1,414100
13,267000	0,5	1,414550
13,275333	0,5	1,413000
13,283667	0,5	1,406350
13,292000	0,5	1,404550
13,300333	0,5	1,411600
13,308667	0,5	1,420700
13,317000	0,5	1,423400
13,325333	0,5	1,426600
13,333667	0,5	1,423500
13,342000	0,5	1,421300
13,350333	0,5	1,418900
13,358667	0,5	1,412700
13,367000	0,5	1,412450
13,375333	0,5	1,413900
13,383667	0,5	1,416000
13,392000	0,5	1,410800
13,400333	0,5	1,420400
13,408667	0,5	1,420450
13,417000	0,5	1,421800
13,425333	0,5	1,418100
13,433667	0,5	1,414600
13,442000	0,5	1,411000
13,450333	0,5	1,415050
13,458667	0,5	1,404350
13,467000	0,5	1,401650
13,475333	0,5	1,390350
13,483667	0,5	1,386200
13,492000	0,5	1,382100
13,500333	0,5	1,391900
13,508667	0,5	1,394850
13,517000	0,5	1,400800
13,525333	0,5	1,421750
13,533667	0,5	1,433450
13,542000	0,5	1,439150
13,550333	0,5	1,462150
13,558667	0,5	1,465400
13,567000	0,5	1,463350
13,575333	0,5	1,458200
13,583667	0,5	1,445950
13,592000	0,5	1,445200
13,600333	0,5	1,433800
13,608667	0,5	1,426900
13,617000	0,5	1,416200
13,625333	0,5	1,421750
13,633667	0,5	1,420700
13,642000	0,5	1,423000
13,650333	0,5	1,428750
13,658667	0,5	1,427850
13,667000	0,5	1,426300
13,675333	0,5	1,420950
13,683667	0,5	1,411000
13,692000	0,5	1,399250
13,700333	0,5	1,406600
13,708667	0,5	1,409750
13,717000	0,5	1,427650
13,725333	0,5	1,442900
13,733667	0,5	1,471650
13,742000	0,5	1,504300
13,750333	0,5	1,534450
13,758667	0,5	1,542950
13,767000	0,5	1,540100
13,775333	0,5	1,520400
13,783667	0,5	1,497400
13,792000	0,5	1,470300
13,800333	0,5	1,439300
13,808667	0,5	1,420450
13,817000	0,5	1,410150
13,825333	0,5	1,411350
13,833667	0,5	1,417650
13,842000	0,5	1,428900
13,850333	0,5	1,451300
13,858667	0,5	1,460450
13,867000	0,5	1,467350
13,875333	0,5	1,469750
13,883667	0,5	1,471750
13,892000	0,5	1,495350
13,900333	0,5	1,523750
13,908667	0,5	1,574100
13,917000	0,5	1,622350
13,925333	0,5	1,665250
13,933667	0,5	1,677600
13,942000	0,5	1,664400
13,950333	0,5	1,626800
13,958667	0,5	1,566700
13,967000	0,5	1,510200
13,975333	0,5	1,451100
13,983667	0,5	1,395350
13,992000	0,5	1,373550
14,000333	0,5	1,356700
14,008667	0,5	1,353300
14,017000	0,5	1,359150
14,025333	0,5	1,371200
14,033667	0,5	1,403450
14,042000	0,5	1,433850
14,050333	0,5	1,473650
14,058667	0,5	1,522100
14,067000	0,5	1,571300
14,075333	0,5	1,612300
14,083667	0,5	1,627450
14,092000	0,5	1,612350
14,100333	0,5	1,572450
14,108667	0,5	1,510600
14,117000	0,5	1,453850
14,125333	0,5	1,391300
14,133667	0,5	1,341700
14,142000	0,5	1,313300
14,150333	0,5	1,297100
14,158667	0,5	1,292250
14,167000	0,5	1,300850
14,175333	0,5	1,317800
14,183667	0,5	1,355500
14,192000	0,5	1,394200
14,200333	0,5	1,426950
14,208667	0,5	1,462350
14,217000	0,5	1,489200
14,225333	0,5	1,494650
14,233667	0,5	1,478650
14,242000	0,5	1,446100
14,250333	0,5	1,395300
14,258667	0,5	1,349400
14,267000	0,5	1,311550
14,275333	0,5	1,275300
14,283667	0,5	1,253700
14,292000	0,5	1,250250
14,300333	0,5	1,245400
14,308667	0,5	1,255800
14,317000	0,5	1,265150
14,325333	0,5	1,284850
14,333667	0,5	1,318000
14,342000	0,5	1,343200
14,350333	0,5	1,360150
14,358667	0,5	1,365850
14,367000	0,5	1,356950
14,375333	0,5	1,333850
14,383667	0,5	1,305650
14,392000	0,5	1,273300
14,400333	0,5	1,273250
14,408667	0,5	1,240000
14,417000	0,5	1,237650
14,425333	0,5	1,236900
14,433667	0,5	1,258950
14,442000	0,5	1,273250
14,450333	0,5	1,286550
14,458667	0,5	1,290200
14,467000	0,5	1,293700
14,475333	0,5	1,287250
14,483667	0,5	1,284950
14,492000	0,5	1,265250
14,500333	0,5	1,246100
14,508667	0,5	1,223400
14,517000	0,5	1,203150
14,525333	0,5	1,185100
14,533667	0,5	1,167450
14,542000	0,5	1,157200
14,550333	0,5	1,146850
14,558667	0,5	1,151050
14,567000	0,5	1,149500
14,575333	0,5	1,143950
14,583667	0,5	1,149250
14,592000	0,5	1,143300
14,600333	0,5	1,139750
14,608667	0,5	1,130700
14,617000	0,5	1,126050
14,625333	0,5	1,132400
14,633667	0,5	1,130900
14,642000	0,5	1,137950
14,650333	0,5	1,136300
14,658667	0,5	1,139800
14,667000	0,5	1,137750
14,675333	0,5	1,135800
14,683667	0,5	1,133100
14,692000	0,5	1,125150
14,700333	0,5	1,130600
14,708667	0,5	1,128650
14,717000	0,5	1,118700
14,725333	0,5	1,120750
14,733667	0,5	1,117950
14,742000	0,5	1,117850
14,750333	0,5	1,115250
14,758667	0,5	1,097450
14,767000	0,5	1,098400
14,775333	0,5	1,091450
14,783667	0,5	1,087200
14,792000	0,5	1,070600
14,800333	0,5	1,063250
14,808667	0,5	1,053300
14,817000	0,5	1,045550
14,825333	0,5	1,039900
14,833667	0,5	1,040450
14,842000	0,5	1,037450
14,850333	0,5	1,039100
14,858667	0,5	1,044500
14,867000	0,5	1,042350
14,875333	0,5	1,055500
14,883667	0,5	1,065300
14,892000	0,5	1,062850
14,900333	0,5	1,061000
14,908667	0,5	1,046500
14,917000	0,5	1,045050
14,925333	0,5	1,037850
14,933667	0,5	1,025250
14,942000	0,5	1,018200
14,950333	0,5	1,010450
14,958667	0,5	1,010200
14,967000	0,5	1,002650
14,975333	0,5	1,005950
14,983667	0,5	1,002350
14,992000	0,5	1,004650
15,000333	0,5	1,009450
15,008667	0,5	1,004250
15,017000	0,5	0,991500
15,025333	0,5	0,993900
15,033667	0,5	0,984850
15,042000	0,5	0,984000
15,050333	0,5	0,975500
15,058667	0,5	0,967100
15,067000	0,5	0,981150
15,075333	0,5	0,982000
15,083667	0,5	0,978950
15,092000	0,5	0,976200
15,100333	0,5	0,980400
15,108667	0,5	0,977300
15,117000	0,5	0,978700
15,125333	0,5	0,971450
15,133667	0,5	0,967250
15,142000	0,5	0,960950
15,150333	0,5	0,960650
15,158667	0,5	0,949150
15,167000	0,5	0,944250
15,175333	0,5	0,942600
15,183667	0,5	0,938850
15,192000	0,5	0,930750
15,200333	0,5	0,926800
15,208667	0,5	0,918900
15,217000	0,5	0,926050
15,225333	0,5	0,928650
15,233667	0,5	0,922800
15,242000	0,5	0,927350
15,250333	0,5	0,920700
15,258667	0,5	0,922300
15,267000	0,5	0,923950
15,275333	0,5	0,924600
15,283667	0,5	0,919050
15,292000	0,5	0,927250
15,300333	0,5	0,925750
15,308667	0,5	0,924850
15,317000	0,5	0,927400
15,325333	0,5	0,929000
15,333667	0,5	0,925350
15,342000	0,5	0,917900
15,350333	0,5	0,908200
15,358667	0,5	0,911400
15,367000	0,5	0,914800
15,375333	0,5	0,918900
15,383667	0,5	0,923350
15,392000	0,5	0,925750
15,400333	0,5	0,928200
15,408667	0,5	0,925650
15,417000	0,5	0,926300
15,425333	0,5	0,923600
15,433667	0,5	0,928200
15,442000	0,5	0,929100
15,450333	0,5	0,931500
15,458667	0,5	0,929850
15,467000	0,5	0,943500
15,475333	0,5	0,941850
15,483667	0,5	0,942550
15,492000	0,5	0,940250
15,500333	0,5	0,941450
15,508667	0,5	0,948350
15,517000	0,5	0,960150
15,525333	0,5	0,958200
15,533667	0,5	0,960550
15,542000	0,5	0,958800
15,550333	0,5	0,962300
15,558667	0,5	0,956700
15,567000	0,5	0,955950
15,575333	0,5	0,955400
15,583667	0,5	0,954700
15,592000	0,5	0,966900
15,600333	0,5	0,961600
15,608667	0,5	0,975500
15,617000	0,5	0,980550
15,625333	0,5	0,986250
15,633667	0,5	0,984850
15,642000	0,5	0,980150
15,650333	0,5	0,984250
15,658667	0,5	0,990200
15,667000	0,5	0,997150
15,675333	0,5	1,013600
15,683667	0,5	1,028350
15,692000	0,5	1,049950
15,700333	0,5	1,053600
15,708667	0,5	1,058950
15,717000	0,5	1,048050
15,725333	0,5	1,034200
15,733667	0,5	1,023350
15,742000	0,5	1,016550
15,750333	0,5	0,987050
15,758667	0,5	0,986900
15,767000	0,5	0,981300
15,775333	0,5	0,971300
15,783667	0,5	0,970700
15,792000	0,5	0,958850
15,800333	0,5	0,971850
15,808667	0,5	0,967400
15,817000	0,5	0,972800
15,825333	0,5	0,964800
15,833667	0,5	0,964050
15,842000	0,5	0,960550
15,850333	0,5	0,959600
15,858667	0,5	0,954700
15,867000	0,5	0,946000
15,875333	0,5	0,943800
15,883667	0,5	0,948700
15,892000	0,5	0,946300
15,900333	0,5	0,934650
15,908667	0,5	0,943550
15,917000	0,5	0,938600
15,925333	0,5	0,931800
15,933667	0,5	0,920000
15,942000	0,5	0,909400
15,950333	0,5	0,908300
15,958667	0,5	0,913850
15,967000	0,5	0,906850
15,975333	0,5	0,908000
15,983667	0,5	0,910750
15,992000	0,5	0,914350
16,000333	0,5	0,919700
16,008667	0,5	0,923600
16,017000	0,5	0,922900
16,025333	0,5	0,924300
16,033667	0,5	0,928000
16,042000	0,5	0,924850
16,050333	0,5	0,925350
16,058667	0,5	0,933150
16,067000	0,5	0,928400
16,075333	0,5	0,927300
16,083667	0,5	0,933350
16,092000	0,5	0,936550
16,100333	0,5	0,959450
16,108667	0,5	0,971600
16,117000	0,5	0,979850
16,125333	0,5	0,978800
16,133667	0,5	0,977200
16,142000	0,5	0,969200
16,150333	0,5	0,962100
16,158667	0,5	0,950800
16,167000	0,5	0,937050
16,175333	0,5	0,934850
16,183667	0,5	0,931450
16,192000	0,5	0,922500
16,200333	0,5	0,930350
16,208667	0,5	0,929600
16,217000	0,5	0,929050
16,225333	0,5	0,927150
16,233667	0,5	0,922650
16,242000	0,5	0,930450
16,250333	0,5	0,933750
16,258667	0,5	0,941350
16,267000	0,5	0,940750
16,275333	0,5	0,952300
16,283667	0,5	0,949850
16,292000	0,5	0,957050
16,300333	0,5	0,954200
16,308667	0,5	0,953050
16,317000	0,5	0,950700
16,325333	0,5	0,952350
16,333667	0,5	0,946300
16,342000	0,5	0,948400
16,350333	0,5	0,957600
16,358667	0,5	0,965950
16,367000	0,5	0,965250
16,375333	0,5	0,962700
16,383667	0,5	0,962250
16,392000	0,5	0,963900
16,400333	0,5	0,964550
16,408667	0,5	0,958300
16,417000	0,5	0,956550
16,425333	0,5	0,957150
16,433667	0,5	0,956850
16,442000	0,5	0,957600
16,450333	0,5	0,960300
16,458667	0,5	0,958350
16,467000	0,5	0,962700
16,475333	0,5	0,968450
16,483667	0,5	0,968200
16,492000	0,5	0,977250
16,500333	0,5	0,981300
16,508667	0,5	0,983300
16,517000	0,5	0,982750
16,525333	0,5	0,974700
16,533667	0,5	0,984750
16,542000	0,5	0,995500
16,550333	0,5	1,013350
16,558667	0,5	1,022250
16,567000	0,5	1,043350
16,575333	0,5	1,071150
16,583667	0,5	1,095100
16,592000	0,5	1,119900
16,600333	0,5	1,137900
16,608667	0,5	1,154950
16,617000	0,5	1,157500
16,625333	0,5	1,175650
16,633667	0,5	1,179200
16,642000	0,5	1,218000
16,650333	0,5	1,257150
16,658667	0,5	1,317600
16,667000	0,5	1,389600
16,675333	0,5	1,472750
16,683667	0,5	1,562300
16,692000	0,5	1,635100
16,700333	0,5	1,667900
16,708667	0,5	1,662150
16,717000	0,5	1,619700
16,725333	0,5	1,544900
16,733667	0,5	1,449400
16,742000	0,5	1,350550
16,750333	0,5	1,252450
16,758667	0,5	1,173100
16,767000	0,5	1,123250
16,775333	0,5	1,071900
16,783667	0,5	1,035050
16,792000	0,5	1,021800
16,800333	0,5	1,000300
16,808667	0,5	0,984550
16,817000	0,5	0,964700
16,825333	0,5	0,949500
16,833667	0,5	0,945650
16,842000	0,5	0,941050
16,850333	0,5	0,937150
16,858667	0,5	0,930850
16,867000	0,5	0,935200
16,875333	0,5	0,930800
16,883667	0,5	0,935600
16,892000	0,5	0,933550
16,900333	0,5	0,927450
16,908667	0,5	0,928200
16,917000	0,5	0,921250
16,925333	0,5	0,909000
16,933667	0,5	0,910450
16,942000	0,5	0,912800
16,950333	0,5	0,899000
16,958667	0,5	0,898550
16,967000	0,5	0,880850
16,975333	0,5	0,885900
16,983667	0,5	0,882450
16,992000	0,5	0,881950
17,000333	0,5	0,873000
17,008667	0,5	0,872250
17,017000	0,5	0,867200
17,025333	0,5	0,866450
17,033667	0,5	0,860750
17,042000	0,5	0,858400
17,050333	0,5	0,848800
17,058667	0,5	0,847950
17,067000	0,5	0,849050
17,075333	0,5	0,834500
17,083667	0,5	0,844650
17,092000	0,5	0,840300
17,100333	0,5	0,839000
17,108667	0,5	0,827750
17,117000	0,5	0,817250
17,125333	0,5	0,824450
17,133667	0,5	0,832100
17,142000	0,5	0,822600
17,150333	0,5	0,819900
17,158667	0,5	0,820050
17,167000	0,5	0,823900
17,175333	0,5	0,822450
17,183667	0,5	0,823950
17,192000	0,5	0,821250
17,200333	0,5	0,822800
17,208667	0,5	0,825450
17,217000	0,5	0,824250
17,225333	0,5	0,816550
17,233667	0,5	0,826900
17,242000	0,5	0,817900
17,250333	0,5	0,814900
17,258667	0,5	0,805250
17,267000	0,5	0,791900
17,275333	0,5	0,801550
17,283667	0,5	0,795350
17,292000	0,5	0,796600
17,300333	0,5	0,798950
17,308667	0,5	0,800900
17,317000	0,5	0,794800
17,325333	0,5	0,796900
17,333667	0,5	0,792450
17,342000	0,5	0,785200
17,350333	0,5	0,791800
17,358667	0,5	0,792900
17,367000	0,5	0,784150
17,375333	0,5	0,783550
17,383667	0,5	0,785850
17,392000	0,5	0,780000
17,400333	0,5	0,770300
17,408667	0,5	0,758700
17,417000	0,5	0,768600
17,425333	0,5	0,764750
17,433667	0,5	0,767300
17,442000	0,5	0,763900
17,450333	0,5	0,771750
17,458667	0,5	0,772400
17,467000	0,5	0,780900
17,475333	0,5	0,781100
17,483667	0,5	0,788650
17,492000	0,5	0,796450
17,500333	0,5	0,811100
17,508667	0,5	0,817500
17,517000	0,5	0,823700
17,525333	0,5	0,839000
17,533667	0,5	0,857850
17,542000	0,5	0,866100
17,550333	0,5	0,878950
17,558667	0,5	0,896150
17,567000	0,5	0,922350
17,575333	0,5	0,949550
17,583667	0,5	0,968050
17,592000	0,5	0,992300
17,600333	0,5	1,013050
17,608667	0,5	1,035750
17,617000	0,5	1,058200
17,625333	0,5	1,083700
17,633667	0,5	1,096050
17,642000	0,5	1,114700
17,650333	0,5	1,133250
17,658667	0,5	1,146050
17,667000	0,5	1,153750
17,675333	0,5	1,168700
17,683667	0,5	1,174600
17,692000	0,5	1,181750
17,700333	0,5	1,176500
17,708667	0,5	1,175850
17,717000	0,5	1,189500
17,725333	0,5	1,192650
17,733667	0,5	1,185100
17,742000	0,5	1,184150
17,750333	0,5	1,185050
17,758667	0,5	1,178250
17,767000	0,5	1,173650
17,775333	0,5	1,154200
17,783667	0,5	1,148750
17,792000	0,5	1,138250
17,800333	0,5	1,132500
17,808667	0,5	1,107700
17,817000	0,5	1,100100
17,825333	0,5	1,087300
17,833667	0,5	1,070600
17,842000	0,5	1,054500
17,850333	0,5	1,034750
17,858667	0,5	1,022400
17,867000	0,5	1,022550
17,875333	0,5	1,010900
17,883667	0,5	1,002000
17,892000	0,5	0,993900
17,900333	0,5	0,984450
17,908667	0,5	0,975600
17,917000	0,5	0,964450
17,925333	0,5	0,957800
17,933667	0,5	0,943050
17,942000	0,5	0,946200
17,950333	0,5	0,938250
17,958667	0,5	0,921050
17,967000	0,5	0,922900
17,975333	0,5	0,913150
17,983667	0,5	0,901350
17,992000	0,5	0,890350
18,000333	0,5	0,870200
18,008667	0,5	0,867000
18,017000	0,5	0,865950
18,025333	0,5	0,862600
18,033667	0,5	0,857550
18,042000	0,5	0,858850
18,050333	0,5	0,855900
18,058667	0,5	0,856300
18,067000	0,5	0,855700
18,075333	0,5	0,846550
18,083667	0,5	0,851550
18,092000	0,5	0,851450
18,100333	0,5	0,841050
18,108667	0,5	0,838800
18,117000	0,5	0,839550
18,125333	0,5	0,828250
18,133667	0,5	0,820400
18,142000	0,5	0,802450
18,150333	0,5	0,800950
18,158667	0,5	0,799400
18,167000	0,5	0,804000
18,175333	0,5	0,798150
18,183667	0,5	0,799700
18,192000	0,5	0,798250
18,200333	0,5	0,802800
18,208667	0,5	0,800700
18,217000	0,5	0,802350
18,225333	0,5	0,800600
18,233667	0,5	0,809800
18,242000	0,5	0,818250
18,250333	0,5	0,805800
18,258667	0,5	0,815550
18,267000	0,5	0,817850
18,275333	0,5	0,820050
18,283667	0,5	0,816650
18,292000	0,5	0,808550
18,300333	0,5	0,817950
18,308667	0,5	0,820450
18,317000	0,5	0,817200
18,325333	0,5	0,815100
18,333667	0,5	0,809600
18,342000	0,5	0,812850
18,350333	0,5	0,807850
18,358667	0,5	0,810450
18,367000	0,5	0,806700
18,375333	0,5	0,803800
18,383667	0,5	0,808600
18,392000	0,5	0,809600
18,400333	0,5	0,800750
18,408667	0,5	0,811250
18,417000	0,5	0,811000
18,425333	0,5	0,803400
18,433667	0,5	0,799250
18,442000	0,5	0,789050
18,450333	0,5	0,804150
18,458667	0,5	0,797800
18,467000	0,5	0,804600
18,475333	0,5	0,804850
18,483667	0,5	0,810300
18,492000	0,5	0,811650
18,500333	0,5	0,817700
18,508667	0,5	0,814150
18,517000	0,5	0,814550
18,525333	0,5	0,823300
18,533667	0,5	0,828950
18,542000	0,5	0,825150
18,550333	0,5	0,826000
18,558667	0,5	0,827950
18,567000	0,5	0,823900
18,575333	0,5	0,818450
18,583667	0,5	0,807450
18,592000	0,5	0,807550
18,600333	0,5	0,804450
18,608667	0,5	0,813250
18,617000	0,5	0,810100
18,625333	0,5	0,811800
18,633667	0,5	0,810300
18,642000	0,5	0,814750
18,650333	0,5	0,813800
18,658667	0,5	0,816250
18,667000	0,5	0,813800
18,675333	0,5	0,819000
18,683667	0,5	0,815100
18,692000	0,5	0,811950
18,700333	0,5	0,813850
18,708667	0,5	0,816300
18,717000	0,5	0,809600
18,725333	0,5	0,799050
18,733667	0,5	0,792200
18,742000	0,5	0,787850
18,750333	0,5	0,795900
18,758667	0,5	0,794100
18,767000	0,5	0,797100
18,775333	0,5	0,796100
18,783667	0,5	0,800500
18,792000	0,5	0,800150
18,800333	0,5	0,802950
18,808667	0,5	0,799050
18,817000	0,5	0,799100
18,825333	0,5	0,807300
18,833667	0,5	0,799850
18,842000	0,5	0,794800
18,850333	0,5	0,802950
18,858667	0,5	0,801250
18,867000	0,5	0,796850
18,875333	0,5	0,783300
18,883667	0,5	0,780850
18,892000	0,5	0,790950
18,900333	0,5	0,787750
18,908667	0,5	0,788400
18,917000	0,5	0,782550
18,925333	0,5	0,787050
18,933667	0,5	0,783800
18,942000	0,5	0,785750
18,950333	0,5	0,790100
18,958667	0,5	0,791300
18,967000	0,5	0,798300
18,975333	0,5	0,799750
18,983667	0,5	0,787350
18,992000	0,5	0,795100
19,000333	0,5	0,789450
19,008667	0,5	0,787400
19,017000	0,5	0,776900
19,025333	0,5	0,765650
19,033667	0,5	0,773250
19,042000	0,5	0,774150
19,050333	0,5	0,772300
19,058667	0,5	0,773050
19,067000	0,5	0,777000
19,075333	0,5	0,779200
19,083667	0,5	0,784650
19,092000	0,5	0,784100
19,100333	0,5	0,783050
19,108667	0,5	0,777300
19,117000	0,5	0,786900
19,125333	0,5	0,785450
19,133667	0,5	0,780050
19,142000	0,5	0,788050
19,150333	0,5	0,788500
19,158667	0,5	0,784000
19,167000	0,5	0,777500
19,175333	0,5	0,768150
19,183667	0,5	0,778300
19,192000	0,5	0,780450
19,200333	0,5	0,783200
19,208667	0,5	0,785250
19,217000	0,5	0,785900
19,225333	0,5	0,790550
19,233667	0,5	0,786350
19,242000	0,5	0,787250
19,250333	0,5	0,784150
19,258667	0,5	0,792050
19,267000	0,5	0,794500
19,275333	0,5	0,797750
19,283667	0,5	0,797600
19,292000	0,5	0,810550
19,300333	0,5	0,810450
19,308667	0,5	0,812250
19,317000	0,5	0,806200
19,325333	0,5	0,809000
19,333667	0,5	0,821150
19,342000	0,5	0,829250
19,350333	0,5	0,834400
19,358667	0,5	0,842400
19,367000	0,5	0,845700
19,375333	0,5	0,849550
19,383667	0,5	0,862000
19,392000	0,5	0,860150
19,400333	0,5	0,864700
19,408667	0,5	0,865250
19,417000	0,5	0,872000
19,425333	0,5	0,859400
19,433667	0,5	0,865450
19,442000	0,5	0,864900
19,450333	0,5	0,857450
19,458667	0,5	0,844700
19,467000	0,5	0,826350
19,475333	0,5	0,827800
19,483667	0,5	0,826550
19,492000	0,5	0,825000
19,500333	0,5	0,819950
19,508667	0,5	0,820450
19,517000	0,5	0,824700
19,525333	0,5	0,829050
19,533667	0,5	0,830250
19,542000	0,5	0,832850
19,550333	0,5	0,833750
19,558667	0,5	0,848750
19,567000	0,5	0,845900
19,575333	0,5	0,841700
19,583667	0,5	0,850000
19,592000	0,5	0,850900
19,600333	0,5	0,837900
19,608667	0,5	0,834150
19,617000	0,5	0,827200
19,625333	0,5	0,836350
19,633667	0,5	0,833400
19,642000	0,5	0,841450
19,650333	0,5	0,833000
19,658667	0,5	0,838800
19,667000	0,5	0,838950
19,675333	0,5	0,843600
19,683667	0,5	0,848050
19,692000	0,5	0,850900
19,700333	0,5	0,855600
19,708667	0,5	0,863000
19,717000	0,5	0,858600
19,725333	0,5	0,862000
19,733667	0,5	0,866300
19,742000	0,5	0,870250
19,750333	0,5	0,865100
19,758667	0,5	0,852350
19,767000	0,5	0,856900
19,775333	0,5	0,861900
19,783667	0,5	0,869200
19,792000	0,5	0,868850
19,800333	0,5	0,879950
19,808667	0,5	0,887350
19,817000	0,5	0,896750
19,825333	0,5	0,902700
19,833667	0,5	0,905600
19,842000	0,5	0,914150
19,850333	0,5	0,921600
19,858667	0,5	0,925000
19,867000	0,5	0,919950
19,875333	0,5	0,926350
19,883667	0,5	0,928350
19,892000	0,5	0,927400
19,900333	0,5	0,903500
19,908667	0,5	0,899100
19,917000	0,5	0,898500
19,925333	0,5	0,909300
19,933667	0,5	0,907850
19,942000	0,5	0,914650
19,950333	0,5	0,914700
19,958667	0,5	0,917400
19,967000	0,5	0,919500
19,975333	0,5	0,923150
19,983667	0,5	0,926950
19,992000	0,5	0,930400
20,000333	0,5	0,941800
20,008667	0,5	0,934700
20,017000	0,5	0,947250
20,025333	0,5	0,950250
20,033667	0,5	0,953800
20,042000	0,5	0,955400
20,050333	0,5	0,950750
20,058667	0,5	0,953000
20,067000	0,5	0,965950
20,075333	0,5	0,961650
20,083667	0,5	0,963050
20,092000	0,5	0,957950
20,100333	0,5	0,960900
20,108667	0,5	0,955500
20,117000	0,5	0,954800
20,125333	0,5	0,957000
20,133667	0,5	0,951100
20,142000	0,5	0,956800
20,150333	0,5	0,960200
20,158667	0,5	0,947750
20,167000	0,5	0,959150
20,175333	0,5	0,965050
20,183667	0,5	0,964000
20,192000	0,5	0,956950
20,200333	0,5	0,939500
20,208667	0,5	0,955500
20,217000	0,5	0,957500
20,225333	0,5	0,962450
20,233667	0,5	0,958000
20,242000	0,5	0,967850
20,250333	0,5	0,970350
20,258667	0,5	0,979450
20,267000	0,5	0,980350
20,275333	0,5	0,984800
20,283667	0,5	0,990700
20,292000	0,5	0,996650
20,300333	0,5	1,002100
20,308667	0,5	1,000200
20,317000	0,5	1,013400
20,325333	0,5	1,012600
20,333667	0,5	1,012900
20,342000	0,5	1,004850
20,350333	0,5	1,000400
20,358667	0,5	1,003400
20,367000	0,5	1,018050
20,375333	0,5	1,017850
20,383667	0,5	1,025900
20,392000	0,5	1,022100
20,400333	0,5	1,035300
20,408667	0,5	1,042900
20,417000	0,5	1,049150
20,425333	0,5	1,052000
20,433667	0,5	1,065200
20,442000	0,5	1,077850
20,450333	0,5	1,078950
20,458667	0,5	1,078850
20,467000	0,5	1,080650
20,475333	0,5	1,079550
20,483667	0,5	1,072750
20,492000	0,5	1,066350
20,500333	0,5	1,061750
20,508667	0,5	1,077000
20,517000	0,5	1,074000
20,525333	0,5	1,084450
20,533667	0,5	1,088600
20,542000	0,5	1,097450
20,550333	0,5	1,103100
20,558667	0,5	1,109600
20,567000	0,5	1,111900
20,575333	0,5	1,118700
20,583667	0,5	1,138350
20,592000	0,5	1,149150
20,600333	0,5	1,147300
20,608667	0,5	1,155500
20,617000	0,5	1,160200
20,625333	0,5	1,161300
20,633667	0,5	1,151050
20,642000	0,5	1,154650
20,650333	0,5	1,169750
20,658667	0,5	1,171400
20,667000	0,5	1,184450
20,675333	0,5	1,186950
20,683667	0,5	1,195750
20,692000	0,5	1,198500
20,700333	0,5	1,213350
20,708667	0,5	1,225400
20,717000	0,5	1,232350
20,725333	0,5	1,252600
20,733667	0,5	1,271300
20,742000	0,5	1,279550
20,750333	0,5	1,283500
20,758667	0,5	1,291550
20,767000	0,5	1,292500
20,775333	0,5	1,293900
20,783667	0,5	1,276050
20,792000	0,5	1,286700
20,800333	0,5	1,296050
20,808667	0,5	1,307900
20,817000	0,5	1,308100
20,825333	0,5	1,320050
20,833667	0,5	1,326450
20,842000	0,5	1,342800
20,850333	0,5	1,352050
20,858667	0,5	1,370800
20,867000	0,5	1,389200
20,875333	0,5	1,428650
20,883667	0,5	1,452800
20,892000	0,5	1,465150
20,900333	0,5	1,484250
20,908667	0,5	1,492100
20,917000	0,5	1,490100
20,925333	0,5	1,480800
20,933667	0,5	1,468950
20,942000	0,5	1,471150
20,950333	0,5	1,478850
20,958667	0,5	1,482250
20,967000	0,5	1,494950
20,975333	0,5	1,496000
20,983667	0,5	1,508350
20,992000	0,5	1,516600
21,000333	0,5	1,530000
21,008667	0,5	1,536000
21,017000	0,5	1,551350
21,025333	0,5	1,575000
21,033667	0,5	1,589100
21,042000	0,5	1,586150
21,050333	0,5	1,594350
21,058667	0,5	1,599350
21,067000	0,5	1,601150
21,075333	0,5	1,590600
21,083667	0,5	1,592600
21,092000	0,5	1,614050
21,100333	0,5	1,623600
21,108667	0,5	1,642800
21,117000	0,5	1,652300
21,125333	0,5	1,672700
21,133667	0,5	1,686050
21,142000	0,5	1,721100
21,150333	0,5	1,738150
21,158667	0,5	1,767450
21,167000	0,5	1,811850
21,175333	0,5	1,854100
21,183667	0,5	1,876700
21,192000	0,5	1,895150
21,200333	0,5	1,896450
21,208667	0,5	1,889650
21,217000	0,5	1,876100
21,225333	0,5	1,861400
21,233667	0,5	1,864700
21,242000	0,5	1,864650
21,250333	0,5	1,881150
21,258667	0,5	1,892150
21,267000	0,5	1,915450
21,275333	0,5	1,922200
21,283667	0,5	1,937900
21,292000	0,5	1,947100
21,300333	0,5	1,955900
21,308667	0,5	1,969100
21,317000	0,5	1,988000
21,325333	0,5	2,002400
21,333667	0,5	2,000250
21,342000	0,5	2,000900
21,350333	0,5	2,002150
21,358667	0,5	1,996800
21,367000	0,5	1,991150
21,375333	0,5	2,003600
21,383667	0,5	2,012850
21,392000	0,5	2,039600
21,400333	0,5	2,050700
21,408667	0,5	2,074100
21,417000	0,5	2,086100
21,425333	0,5	2,103550
21,433667	0,5	2,117150
21,442000	0,5	2,132650
21,450333	0,5	2,147150
21,458667	0,5	2,173300
21,467000	0,5	2,196850
21,475333	0,5	2,202900
21,483667	0,5	2,219300
21,492000	0,5	2,235850
21,500333	0,5	2,250850
21,508667	0,5	2,263750
21,517000	0,5	2,277150
21,525333	0,5	2,309800
21,533667	0,5	2,331800
21,542000	0,5	2,346100
21,550333	0,5	2,370750
21,558667	0,5	2,387000
21,567000	0,5	2,403400
21,575333	0,5	2,410300
21,583667	0,5	2,425650
21,592000	0,5	2,430500
21,600333	0,5	2,448800
21,608667	0,5	2,486550
21,617000	0,5	2,509000
21,625333	0,5	2,520350
21,633667	0,5	2,543100
21,642000	0,5	2,557800
21,650333	0,5	2,568600
21,658667	0,5	2,584850
21,667000	0,5	2,583700
21,675333	0,5	2,611850
21,683667	0,5	2,629650
21,692000	0,5	2,649050
21,700333	0,5	2,664050
21,708667	0,5	2,686950
21,717000	0,5	2,705700
21,725333	0,5	2,731750
21,733667	0,5	2,758250
21,742000	0,5	2,782700
21,750333	0,5	2,820300
21,758667	0,5	2,857350
21,767000	0,5	2,873600
21,775333	0,5	2,904500
21,783667	0,5	2,929250
21,792000	0,5	2,944150
21,800333	0,5	2,961050
21,808667	0,5	2,975000
21,817000	0,5	3,005150
21,825333	0,5	3,023750
21,833667	0,5	3,048050
21,842000	0,5	3,062850
21,850333	0,5	3,083850
21,858667	0,5	3,098800
21,867000	0,5	3,119500
21,875333	0,5	3,142950
21,883667	0,5	3,166700
21,892000	0,5	3,199400
21,900333	0,5	3,245400
21,908667	0,5	3,266650
21,917000	0,5	3,298750
21,925333	0,5	3,335150
21,933667	0,5	3,367700
21,942000	0,5	3,393600
21,950333	0,5	3,414500
21,958667	0,5	3,452600
21,967000	0,5	3,487000
21,975333	0,5	3,528900
21,983667	0,5	3,562950
21,992000	0,5	3,606400
22,000333	0,5	3,641200
22,008667	0,5	3,682300
22,017000	0,5	3,730550
22,025333	0,5	3,759950
22,033667	0,5	3,778400
22,042000	0,5	3,785950
22,050333	0,5	3,801250
22,058667	0,5	3,790100
22,067000	0,5	3,818700
22,075333	0,5	3,840550
22,083667	0,5	3,864100
22,092000	0,5	3,879500
22,100333	0,5	3,900000
22,108667	0,5	3,933200
22,117000	0,5	3,970750
22,125333	0,5	3,991500
22,133667	0,5	4,028750
22,142000	0,5	4,054050
22,150333	0,5	4,092950
22,158667	0,5	4,123850
22,167000	0,5	4,160750
22,175333	0,5	4,204650
22,183667	0,5	4,243200
22,192000	0,5	4,286800
22,200333	0,5	4,328350
22,208667	0,5	4,369550
22,217000	0,5	4,417000
22,225333	0,5	4,454800
22,233667	0,5	4,485150
22,242000	0,5	4,514550
22,250333	0,5	4,547000
22,258667	0,5	4,601300
22,267000	0,5	4,640350
22,275333	0,5	4,691200
22,283667	0,5	4,732250
22,292000	0,5	4,789400
22,300333	0,5	4,833050
22,308667	0,5	4,891150
22,317000	0,5	4,947750
22,325333	0,5	5,006850
22,333667	0,5	5,071150
22,342000	0,5	5,149200
22,350333	0,5	5,231750
22,358667	0,5	5,343100
22,367000	0,5	5,436650
22,375333	0,5	5,511850
22,383667	0,5	5,572850
22,392000	0,5	5,616900
22,400333	0,5	5,666950
22,408667	0,5	5,710400
22,417000	0,5	5,757000
22,425333	0,5	5,788550
22,433667	0,5	5,832000
22,442000	0,5	5,873200
22,450333	0,5	5,923050
22,458667	0,5	5,971100
22,467000	0,5	6,017950
22,475333	0,5	6,070850
22,483667	0,5	6,093700
22,492000	0,5	6,153200
22,500333	0,5	6,227950
22,508667	0,5	6,291550
22,517000	0,5	6,341350
22,525333	0,5	6,395150
22,533667	0,5	6,430650
22,542000	0,5	6,477500
22,550333	0,5	6,517850
22,558667	0,5	6,564550
22,567000	0,5	6,592600
22,575333	0,5	6,627100
22,583667	0,5	6,639600
22,592000	0,5	6,656650
22,600333	0,5	6,659450
22,608667	0,5	6,662000
22,617000	0,5	6,652650
22,625333	0,5	6,607550
22,633667	0,5	6,582500
22,642000	0,5	6,552000
22,650333	0,5	6,542750
22,658667	0,5	6,497300
22,667000	0,5	6,436650
22,675333	0,5	6,369300
22,683667	0,5	6,280700
22,692000	0,5	6,211650
22,700333	0,5	6,136050
22,708667	0,5	6,039950
22,717000	0,5	5,944000
22,725333	0,5	5,837900
22,733667	0,5	5,734750
22,742000	0,5	5,623650
22,750333	0,5	5,513750
22,758667	0,5	5,393400
22,767000	0,5	5,266350
22,775333	0,5	5,089700
22,783667	0,5	4,973800
22,792000	0,5	4,844550
22,800333	0,5	4,712100
22,808667	0,5	4,557050
22,817000	0,5	4,399750
22,825333	0,5	4,229350
22,833667	0,5	4,070550
22,842000	0,5	3,901250
22,850333	0,5	3,738550
22,858667	0,5	3,576150
22,867000	0,5	3,421350
22,875333	0,5	3,256900
22,883667	0,5	3,107150
22,892000	0,5	2,947100
22,900333	0,5	2,791900
22,908667	0,5	2,646700
22,917000	0,5	2,508250
22,925333	0,5	2,342450
22,933667	0,5	2,212800
22,942000	0,5	2,066100
22,950333	0,5	1,915500
22,958667	0,5	1,776550
22,967000	0,5	1,651950
22,975333	0,5	1,538700
22,983667	0,5	1,407450
22,992000	0,5	1,291800
23,000333	0,5	1,167800
23,008667	0,5	1,067650
23,017000	0,5	0,953450
23,025333	0,5	0,864100
23,033667	0,5	0,758550
23,042000	0,5	0,661800
23,050333	0,5	0,569900
23,058667	0,5	0,475750
23,067000	0,5	0,410900
23,075333	0,5	0,326150
23,083667	0,5	0,238000
23,092000	0,5	0,123950
23,100333	0,5	0,047150
23,108667	0,5	-0,025200
23,117000	0,5	-0,081650
23,125333	0,5	-0,145650
23,133667	0,5	-0,209300
23,142000	0,5	-0,276550
23,150333	0,5	-0,325250
23,158667	0,5	-0,383500
23,167000	0,5	-0,426950
23,175333	0,5	-0,478550
23,183667	0,5	-0,523900
23,192000	0,5	-0,579450
23,200333	0,5	-0,619200
23,208667	0,5	-0,648100
23,217000	0,5	-0,720050
23,225333	0,5	-0,729200
23,233667	0,5	-0,762400
23,242000	0,5	-0,832350
23,250333	0,5	-0,870000
23,258667	0,5	-0,904700
23,267000	0,5	-0,922900
23,275333	0,5	-0,954700
23,283667	0,5	-0,984150
23,292000	0,5	-1,008550
23,300333	0,5	-1,035000
23,308667	0,5	-1,050100
23,317000	0,5	-1,071450
23,325333	0,5	-1,089350
23,333667	0,5	-1,111150
23,342000	0,5	-1,122650
23,350333	0,5	-1,143000
23,358667	0,5	-1,173600
23,367000	0,5	-1,201950
23,375333	0,5	-1,196200
23,383667	0,5	-1,186250
23,392000	0,5	-1,220100
23,400333	0,5	-1,241800
23,408667	0,5	-1,257950
23,417000	0,5	-1,265000
23,425333	0,5	-1,284050
23,433667	0,5	-1,293400
23,442000	0,5	-1,308850
23,450333	0,5	-1,312350
23,458667	0,5	-1,320150
23,467000	0,5	-1,321750
23,475333	0,5	-1,330600
23,483667	0,5	-1,337000
23,492000	0,5	-1,339400
23,500333	0,5	-1,339400
23,508667	0,5	-1,433050
23,517000	0,5	-1,399600
23,525333	0,5	-1,366300
23,533667	0,5	-1,349950
23,542000	0,5	-1,356150
23,550333	0,5	-1,363600
23,558667	0,5	-1,368050
23,567000	0,5	-1,371450
23,575333	0,5	-1,375900
23,583667	0,5	-1,378400
23,592000	0,5	-1,376650
23,600333	0,5	-1,380050
23,608667	0,5	-1,381100
23,617000	0,5	-1,379650
23,625333	0,5	-1,377750
23,633667	0,5	-1,377450
23,642000	0,5	-1,375750
23,650333	0,5	-1,408600
23,658667	0,5	-1,488000
23,667000	0,5	-1,426950
23,675333	0,5	-1,386950
23,683667	0,5	-1,361500
23,692000	0,5	-1,359550
23,700333	0,5	-1,357000
23,708667	0,5	-1,360200
23,717000	0,5	-1,360250
23,725333	0,5	-1,349000
23,733667	0,5	-1,342150
23,742000	0,5	-1,332600
23,750333	0,5	-1,323950
23,758667	0,5	-1,319500
23,767000	0,5	-1,313900
23,775333	0,5	-1,304050
23,783667	0,5	-1,297850
23,792000	0,5	-1,293900
23,800333	0,5	-1,406550
23,808667	0,5	-1,377700
23,817000	0,5	-1,347700
23,825333	0,5	-1,290300
23,833667	0,5	-1,272050
23,842000	0,5	-1,262050
23,850333	0,5	-1,258300
23,858667	0,5	-1,258450
23,867000	0,5	-1,248950
23,875333	0,5	-1,233100
23,883667	0,5	-1,227050
23,892000	0,5	-1,216050
23,900333	0,5	-1,204950
23,908667	0,5	-1,193200
23,917000	0,5	-1,184250
23,925333	0,5	-1,169350
23,933667	0,5	-1,158800
23,942000	0,5	-1,161000
23,950333	0,5	-1,259450
23,958667	0,5	-1,216200
23,967000	0,5	-1,180700
23,975333	0,5	-1,129400
23,983667	0,5	-1,109200
23,992000	0,5	-1,103850
24,000333	0,5	-1,095550
24,008667	0,5	-1,101600
24,017000	0,5	-1,079600
24,025333	0,5	-1,069550
24,033667	0,5	-1,056450
24,042000	0,5	-1,051050
24,050333	0,5	-1,036000
24,058667	0,5	-1,027500
24,067000	0,5	-1,012450
24,075333	0,5	-1,002750
24,083667	0,5	-0,995550
24,092000	0,5	-1,052400
24,100333	0,5	-1,073300
24,108667	0,5	-1,025200
24,117000	0,5	-0,987450
24,125333	0,5	-0,952400
24,133667	0,5	-0,935250
24,142000	0,5	-0,924850
24,150333	0,5	-0,921800
24,158667	0,5	-0,916100
24,167000	0,5	-0,907650
24,175333	0,5	-0,887850
24,183667	0,5	-0,885100
24,192000	0,5	-0,867950
24,200333	0,5	-0,858650
24,208667	0,5	-0,841500
24,217000	0,5	-0,834450
24,225333	0,5	-0,821150
24,233667	0,5	-0,814750
24,242000	0,5	-0,883650
24,250333	0,5	-0,866200
24,258667	0,5	-0,833950
24,267000	0,5	-0,801950
24,275333	0,5	-0,773550
24,283667	0,5	-0,771950
24,292000	0,5	-0,762200
24,300333	0,5	-0,761350
24,308667	0,5	-0,751450
24,317000	0,5	-0,735900
24,325333	0,5	-0,731100
24,333667	0,5	-0,714450
24,342000	0,5	-0,701650
24,350333	0,5	-0,691700
24,358667	0,5	-0,682850
24,367000	0,5	-0,673500
24,375333	0,5	-0,666600
24,383667	0,5	-0,673900
24,392000	0,5	-0,724050
24,400333	0,5	-0,695600
24,408667	0,5	-0,675600
24,417000	0,5	-0,643600
24,425333	0,5	-0,633900
24,433667	0,5	-0,623500
24,442000	0,5	-0,624500
24,450333	0,5	-0,624850
24,458667	0,5	-0,609450
24,467000	0,5	-0,601450
24,475333	0,5	-0,596300
24,483667	0,5	-0,593150
24,492000	0,5	-0,582950
24,500333	0,5	-0,575900
24,508667	0,5	-0,565750
24,517000	0,5	-0,558550
24,525333	0,5	-0,550550
24,533667	0,5	-0,578300
24,542000	0,5	-0,577500
24,550333	0,5	-0,562650
24,558667	0,5	-0,541850
24,567000	0,5	-0,521600
24,575333	0,5	-0,517200
24,583667	0,5	-0,512150
24,592000	0,5	-0,511700
24,600333	0,5	-0,512300
24,608667	0,5	-0,504550
24,617000	0,5	-0,499500
24,625333	0,5	-0,492450
24,633667	0,5	-0,488400
24,642000	0,5	-0,485800
24,650333	0,5	-0,476750
24,658667	0,5	-0,471500
24,667000	0,5	-0,467250
24,675333	0,5	-0,466250
24,683667	0,5	-0,497700
24,692000	0,5	-0,478550
24,700333	0,5	-0,461350
24,708667	0,5	-0,441400
24,717000	0,5	-0,433450
24,725333	0,5	-0,431450
24,733667	0,5	-0,426850
24,742000	0,5	-0,430300
24,750333	0,5	-0,429150
24,758667	0,5	-0,422900
24,767000	0,5	-0,417400
24,775333	0,5	-0,413700
24,783667	0,5	-0,410200
24,792000	0,5	-0,402700
24,800333	0,5	-0,401050
24,808667	0,5	-0,397450
24,817000	0,5	-0,395300
24,825333	0,5	-0,391800
24,833667	0,5	-0,413550
24,842000	0,5	-0,398600
24,850333	0,5	-0,388150
24,858667	0,5	-0,379050
24,867000	0,5	-0,374600
24,875333	0,5	-0,367400
24,883667	0,5	-0,369800
24,892000	0,5	-0,369300
24,900333	0,5	-0,365850
24,908667	0,5	-0,358200
24,917000	0,5	-0,360600
24,925333	0,5	-0,353400
24,933667	0,5	-0,349700
24,942000	0,5	-0,348250
24,950333	0,5	-0,344850
24,958667	0,5	-0,342750
24,967000	0,5	-0,338450
24,975333	0,5	-0,347650
24,983667	0,5	-0,345850
24,992000	0,5	-0,343200
25,000333	0,5	-0,332850
25,008667	0,5	-0,326400
25,017000	0,5	-0,324350
25,025333	0,5	-0,321350
25,033667	0,5	-0,323900
25,042000	0,5	-0,323300
25,050333	0,5	-0,316500
25,058667	0,5	-0,318700
25,067000	0,5	-0,314650
25,075333	0,5	-0,311850
25,083667	0,5	-0,308800
25,092000	0,5	-0,306500
25,100333	0,5	-0,302850
25,108667	0,5	-0,300500
25,117000	0,5	-0,298250
25,125333	0,5	-0,306150
25,133667	0,5	-0,296400
25,142000	0,5	-0,294400
25,150333	0,5	-0,292900
25,158667	0,5	-0,290700
25,167000	0,5	-0,289950
25,175333	0,5	-0,288000
25,183667	0,5	-0,289500
25,192000	0,5	-0,287050
25,200333	0,5	-0,285650
25,208667	0,5	-0,284250
25,217000	0,5	-0,284900
25,225333	0,5	-0,281250
25,233667	0,5	-0,280700
25,242000	0,5	-0,277550
25,250333	0,5	-0,278350
25,258667	0,5	-0,276150
25,267000	0,5	-0,274400
25,275333	0,5	-0,275050
25,283667	0,5	-0,267600
25,292000	0,5	-0,265550
25,300333	0,5	-0,268600
25,308667	0,5	-0,263800
25,317000	0,5	-0,263800
25,325333	0,5	-0,265550
25,333667	0,5	-0,264850
25,342000	0,5	-0,263700
25,350333	0,5	-0,261750
25,358667	0,5	-0,260550
25,367000	0,5	-0,262600
25,375333	0,5	-0,260600
25,383667	0,5	-0,261750
25,392000	0,5	-0,262450
25,400333	0,5	-0,260050
25,408667	0,5	-0,255250
25,417000	0,5	-0,254000
25,425333	0,5	-0,250150
25,433667	0,5	-0,247900
25,442000	0,5	-0,246800
25,450333	0,5	-0,247650
25,458667	0,5	-0,248200
25,467000	0,5	-0,243800
25,475333	0,5	-0,244350
25,483667	0,5	-0,244450
25,492000	0,5	-0,243200
25,500333	0,5	-0,242950
25,508667	0,5	-0,244200
25,517000	0,5	-0,241900
25,525333	0,5	-0,243700
25,533667	0,5	-0,243400
25,542000	0,5	-0,241950
25,550333	0,5	-0,238850
25,558667	0,5	-0,240950
25,567000	0,5	-0,232250
25,575333	0,5	-0,235700
25,583667	0,5	-0,228600
25,592000	0,5	-0,236550
25,600333	0,5	-0,234400
25,608667	0,5	-0,233100
25,617000	0,5	-0,232500
25,625333	0,5	-0,230150
25,633667	0,5	-0,227000
25,642000	0,5	-0,226400
25,650333	0,5	-0,227550
25,658667	0,5	-0,227750
25,667000	0,5	-0,225750
25,675333	0,5	-0,225200
25,683667	0,5	-0,227350
25,692000	0,5	-0,223300
25,700333	0,5	-0,224750
25,708667	0,5	-0,223800
25,717000	0,5	-0,217700
25,725333	0,5	-0,215600
25,733667	0,5	-0,213550
25,742000	0,5	-0,217900
25,750333	0,5	-0,223500
25,758667	0,5	-0,219700
25,767000	0,5	-0,220200
25,775333	0,5	-0,209050
25,783667	0,5	-0,211400
25,792000	0,5	-0,212100
25,800333	0,5	-0,210100
25,808667	0,5	-0,206650
25,817000	0,5	-0,208650
25,825333	0,5	-0,204450
25,833667	0,5	-0,203500
25,842000	0,5	-0,205550
25,850333	0,5	-0,204350
25,858667	0,5	-0,198250
25,867000	0,5	-0,190500
25,875333	0,5	-0,198200
25,883667	0,5	-0,196550
25,892000	0,5	-0,202550
25,900333	0,5	-0,198400
25,908667	0,5	-0,198400
25,917000	0,5	-0,191800
25,925333	0,5	-0,185300
25,933667	0,5	-0,186150
25,942000	0,5	-0,188100
25,950333	0,5	-0,186350
25,958667	0,5	-0,187750
25,967000	0,5	-0,184800
25,975333	0,5	-0,183300
25,983667	0,5	-0,183750
25,992000	0,5	-0,182100
26,000333	0,5	-0,182550
