File Path	chrom://chromeleon01/ikbm_chromeleon/2022/ICS-5000/ED1/Esteban/20220612_Cell_7_4_eg.seq/955.smp/ED_1.channel/ED_1.chm
Channel	ED_1

Injection Information:
Data Vault	ikbm_chromeleon
Injection	7_24h-EGS_3
Injection Number	26
Position	RC4
Comment	
Processing Method	Stop sequence after Cell Death
Instrument Method	ICS5000_PA200_FullNative_Ox_26min_ED1
Type	Unknown
Status	Finished
Injection Date	13.06.2022
Injection Time	03:56:14
Injection Volume (µl)	5,0
Dilution Factor	1,0000
Weight	1,0000

Chromatogram Data Information:
Time Min. (min)	0,000333
Time Max. (min)	26,000333
Data Points	3121
Detector	EDet1
Generating Data System	Chromeleon 7.2.9.11323
Exporting Data System	Chromeleon 7.2.9.0
Operator	Instrument Controller
Signal Quantity	
Signal Unit	nC
Signal Min.	-1,680350
Signal Max.	777,179612
Channel	ED_1
Driver Name	DC-5000
Channel Type	Evaluation
Min. Step (s)	0,5
Max. Step (s)	0,5
Average Step (s)	0,5

Signal Parameter Information:
Signal Info	

Chromatogram Data:
Time (min)	Step (s)	Value (nC)
0,000333	n.a.	-0,049100
0,008667	0,5	-0,052700
0,017000	0,5	-0,044350
0,025333	0,5	-0,034650
0,033667	0,5	-0,036200
0,042000	0,5	-0,031400
0,050333	0,5	-0,021900
0,058667	0,5	-0,034200
0,067000	0,5	-0,038300
0,075333	0,5	-0,033000
0,083667	0,5	-0,019400
0,092000	0,5	0,001400
0,100333	0,5	0,003850
0,108667	0,5	0,008500
0,117000	0,5	-0,000250
0,125333	0,5	0,000150
0,133667	0,5	-0,005800
0,142000	0,5	-0,004500
0,150333	0,5	-0,007850
0,158667	0,5	-0,008500
0,167000	0,5	-0,003250
0,175333	0,5	-0,012700
0,183667	0,5	-0,013000
0,192000	0,5	-0,005750
0,200333	0,5	-0,001050
0,208667	0,5	-0,018000
0,217000	0,5	-0,014350
0,225333	0,5	-0,018600
0,233667	0,5	0,006550
0,242000	0,5	0,011850
0,250333	0,5	0,012450
0,258667	0,5	0,000850
0,267000	0,5	0,006800
0,275333	0,5	0,001500
0,283667	0,5	0,007400
0,292000	0,5	0,016000
0,300333	0,5	0,042100
0,308667	0,5	0,031350
0,317000	0,5	0,005400
0,325333	0,5	-0,010450
0,333667	0,5	-0,019600
0,342000	0,5	-0,006450
0,350333	0,5	-0,010350
0,358667	0,5	-0,015250
0,367000	0,5	-0,017650
0,375333	0,5	-0,014350
0,383667	0,5	0,004600
0,392000	0,5	0,010250
0,400333	0,5	0,006500
0,408667	0,5	0,012400
0,417000	0,5	0,004500
0,425333	0,5	0,010150
0,433667	0,5	0,002200
0,442000	0,5	0,005450
0,450333	0,5	-0,001500
0,458667	0,5	0,000450
0,467000	0,5	-0,000400
0,475333	0,5	-0,004550
0,483667	0,5	-0,006050
0,492000	0,5	0,017000
0,500333	0,5	-0,004650
0,508667	0,5	-0,010000
0,517000	0,5	-0,002550
0,525333	0,5	0,003700
0,533667	0,5	0,025550
0,542000	0,5	0,016350
0,550333	0,5	0,019900
0,558667	0,5	0,016950
0,567000	0,5	0,019000
0,575333	0,5	0,014950
0,583667	0,5	0,022450
0,592000	0,5	0,016800
0,600333	0,5	0,020650
0,608667	0,5	0,018350
0,617000	0,5	0,015550
0,625333	0,5	0,008500
0,633667	0,5	0,014200
0,642000	0,5	0,019100
0,650333	0,5	0,011200
0,658667	0,5	0,011100
0,667000	0,5	0,017650
0,675333	0,5	0,025150
0,683667	0,5	0,043500
0,692000	0,5	0,035400
0,700333	0,5	0,031750
0,708667	0,5	0,035650
0,717000	0,5	0,036850
0,725333	0,5	0,040400
0,733667	0,5	0,035450
0,742000	0,5	0,036750
0,750333	0,5	0,033400
0,758667	0,5	0,039800
0,767000	0,5	0,036800
0,775333	0,5	0,035300
0,783667	0,5	0,045700
0,792000	0,5	0,045200
0,800333	0,5	0,031300
0,808667	0,5	0,032300
0,817000	0,5	0,036250
0,825333	0,5	0,054450
0,833667	0,5	0,068900
0,842000	0,5	0,063050
0,850333	0,5	0,063450
0,858667	0,5	0,063700
0,867000	0,5	0,062050
0,875333	0,5	0,067500
0,883667	0,5	0,066600
0,892000	0,5	0,061850
0,900333	0,5	0,068400
0,908667	0,5	0,064550
0,917000	0,5	0,062300
0,925333	0,5	0,055700
0,933667	0,5	0,070250
0,942000	0,5	0,059800
0,950333	0,5	0,059500
0,958667	0,5	0,059400
0,967000	0,5	0,075000
0,975333	0,5	0,089400
0,983667	0,5	0,098250
0,992000	0,5	0,087400
1,000333	0,5	0,091800
1,008667	0,5	0,091650
1,017000	0,5	0,095800
1,025333	0,5	0,095750
1,033667	0,5	0,092200
1,042000	0,5	0,092900
1,050333	0,5	0,093550
1,058667	0,5	0,091850
1,067000	0,5	0,082000
1,075333	0,5	0,089100
1,083667	0,5	0,095100
1,092000	0,5	0,082200
1,100333	0,5	0,081550
1,108667	0,5	0,085350
1,117000	0,5	0,095200
1,125333	0,5	0,113200
1,133667	0,5	0,112800
1,142000	0,5	0,117500
1,150333	0,5	0,109800
1,158667	0,5	0,118950
1,167000	0,5	0,113600
1,175333	0,5	0,113200
1,183667	0,5	0,106300
1,192000	0,5	0,104800
1,200333	0,5	0,105550
1,208667	0,5	0,095550
1,217000	0,5	0,092900
1,225333	0,5	0,099700
1,233667	0,5	0,095500
1,242000	0,5	0,085650
1,250333	0,5	0,084650
1,258667	0,5	0,087550
1,267000	0,5	0,104150
1,275333	0,5	0,104950
1,283667	0,5	0,109200
1,292000	0,5	0,097750
1,300333	0,5	0,098750
1,308667	0,5	0,094100
1,317000	0,5	0,096100
1,325333	0,5	0,087250
1,333667	0,5	0,084650
1,342000	0,5	0,077550
1,350333	0,5	0,080550
1,358667	0,5	0,069450
1,367000	0,5	0,066350
1,375333	0,5	0,073700
1,383667	0,5	0,062550
1,392000	0,5	0,052850
1,400333	0,5	0,050850
1,408667	0,5	0,050050
1,417000	0,5	0,061700
1,425333	0,5	0,056800
1,433667	0,5	0,050650
1,442000	0,5	0,046150
1,450333	0,5	0,051000
1,458667	0,5	0,051250
1,467000	0,5	0,039950
1,475333	0,5	0,043650
1,483667	0,5	0,031450
1,492000	0,5	0,030250
1,500333	0,5	0,022850
1,508667	0,5	0,019250
1,517000	0,5	0,014650
1,525333	0,5	0,026150
1,533667	0,5	0,002100
1,542000	0,5	0,003600
1,550333	0,5	0,009900
1,558667	0,5	0,033800
1,567000	0,5	0,105050
1,575333	0,5	0,241200
1,583667	0,5	1,168150
1,592000	0,5	6,093850
1,600333	0,5	24,516350
1,608667	0,5	82,390601
1,617000	0,5	226,419753
1,625333	0,5	462,804357
1,633667	0,5	689,605710
1,642000	0,5	777,179612
1,650333	0,5	697,000910
1,658667	0,5	532,960608
1,667000	0,5	377,282306
1,675333	0,5	263,535104
1,683667	0,5	188,320403
1,692000	0,5	140,368352
1,700333	0,5	110,307502
1,708667	0,5	91,290051
1,717000	0,5	78,511851
1,725333	0,5	69,044651
1,733667	0,5	61,373651
1,742000	0,5	54,543151
1,750333	0,5	48,515351
1,758667	0,5	43,750101
1,767000	0,5	40,382801
1,775333	0,5	37,963701
1,783667	0,5	35,869951
1,792000	0,5	33,726401
1,800333	0,5	31,503400
1,808667	0,5	29,464500
1,817000	0,5	27,869350
1,825333	0,5	26,913500
1,833667	0,5	26,773850
1,842000	0,5	27,353000
1,850333	0,5	28,059250
1,858667	0,5	28,011900
1,867000	0,5	26,736300
1,875333	0,5	24,750850
1,883667	0,5	22,881450
1,892000	0,5	21,658500
1,900333	0,5	21,311650
1,908667	0,5	22,115750
1,917000	0,5	24,295850
1,925333	0,5	27,522700
1,933667	0,5	30,458200
1,942000	0,5	31,358900
1,950333	0,5	29,654550
1,958667	0,5	26,588250
1,967000	0,5	23,901000
1,975333	0,5	22,106300
1,983667	0,5	20,854950
1,992000	0,5	20,058200
2,000333	0,5	19,870650
2,008667	0,5	19,784500
2,017000	0,5	19,164750
2,025333	0,5	18,114250
2,033667	0,5	17,047700
2,042000	0,5	16,071350
2,050333	0,5	15,347300
2,058667	0,5	15,049200
2,067000	0,5	15,198250
2,075333	0,5	15,388200
2,083667	0,5	15,202000
2,092000	0,5	14,691000
2,100333	0,5	14,140000
2,108667	0,5	13,712600
2,117000	0,5	13,418150
2,125333	0,5	13,226750
2,133667	0,5	13,110050
2,142000	0,5	12,976050
2,150333	0,5	12,821300
2,158667	0,5	12,685800
2,167000	0,5	12,592650
2,175333	0,5	12,589900
2,183667	0,5	12,755550
2,192000	0,5	13,346350
2,200333	0,5	14,595500
2,208667	0,5	15,238900
2,217000	0,5	14,375650
2,225333	0,5	13,311400
2,233667	0,5	12,805000
2,242000	0,5	12,660900
2,250333	0,5	12,695950
2,258667	0,5	12,899300
2,267000	0,5	13,228750
2,275333	0,5	13,773200
2,283667	0,5	14,728900
2,292000	0,5	16,535600
2,300333	0,5	19,741750
2,308667	0,5	24,231600
2,317000	0,5	28,750900
2,325333	0,5	31,603700
2,333667	0,5	31,989950
2,342000	0,5	30,401650
2,350333	0,5	28,146700
2,358667	0,5	26,541100
2,367000	0,5	26,301500
2,375333	0,5	27,407950
2,383667	0,5	29,880900
2,392000	0,5	34,528951
2,400333	0,5	42,570351
2,408667	0,5	53,259201
2,417000	0,5	62,365351
2,425333	0,5	65,039651
2,433667	0,5	60,312301
2,442000	0,5	51,518151
2,450333	0,5	42,949301
2,458667	0,5	37,272701
2,467000	0,5	35,601651
2,475333	0,5	37,939351
2,483667	0,5	43,231601
2,492000	0,5	49,575651
2,500333	0,5	54,692601
2,508667	0,5	56,323451
2,517000	0,5	53,370251
2,525333	0,5	46,829551
2,533667	0,5	39,019101
2,542000	0,5	31,999400
2,550333	0,5	26,666100
2,558667	0,5	22,996350
2,567000	0,5	20,518700
2,575333	0,5	18,880950
2,583667	0,5	17,811800
2,592000	0,5	17,197500
2,600333	0,5	16,993700
2,608667	0,5	17,128500
2,617000	0,5	17,443350
2,625333	0,5	17,630600
2,633667	0,5	17,404450
2,642000	0,5	16,755500
2,650333	0,5	15,898050
2,658667	0,5	15,105500
2,667000	0,5	14,541700
2,675333	0,5	14,227000
2,683667	0,5	14,135550
2,692000	0,5	14,263850
2,700333	0,5	14,776600
2,708667	0,5	15,945800
2,717000	0,5	18,021800
2,725333	0,5	20,846800
2,733667	0,5	23,466250
2,742000	0,5	24,699050
2,750333	0,5	24,006650
2,758667	0,5	21,771100
2,767000	0,5	18,994000
2,775333	0,5	16,490700
2,783667	0,5	14,635150
2,792000	0,5	13,385050
2,800333	0,5	12,576900
2,808667	0,5	12,050400
2,817000	0,5	11,713300
2,825333	0,5	11,488250
2,833667	0,5	11,299650
2,842000	0,5	11,116200
2,850333	0,5	10,929250
2,858667	0,5	10,715450
2,867000	0,5	10,490050
2,875333	0,5	10,264700
2,883667	0,5	10,043600
2,892000	0,5	9,844250
2,900333	0,5	9,646600
2,908667	0,5	9,459950
2,917000	0,5	9,274750
2,925333	0,5	9,115350
2,933667	0,5	8,954950
2,942000	0,5	8,823100
2,950333	0,5	8,693050
2,958667	0,5	8,574800
2,967000	0,5	8,452000
2,975333	0,5	8,328150
2,983667	0,5	8,199550
2,992000	0,5	8,060300
3,000333	0,5	7,929200
3,008667	0,5	7,783800
3,017000	0,5	7,643600
3,025333	0,5	7,515900
3,033667	0,5	7,406150
3,042000	0,5	7,306850
3,050333	0,5	7,211850
3,058667	0,5	7,101250
3,067000	0,5	6,996000
3,075333	0,5	6,890450
3,083667	0,5	6,787050
3,092000	0,5	6,670950
3,100333	0,5	6,569900
3,108667	0,5	6,463650
3,117000	0,5	6,369550
3,125333	0,5	6,272200
3,133667	0,5	6,181400
3,142000	0,5	6,093600
3,150333	0,5	6,013300
3,158667	0,5	5,918200
3,167000	0,5	5,839000
3,175333	0,5	5,765100
3,183667	0,5	5,701050
3,192000	0,5	5,635350
3,200333	0,5	5,564600
3,208667	0,5	5,497250
3,217000	0,5	5,428900
3,225333	0,5	5,366400
3,233667	0,5	5,303900
3,242000	0,5	5,247350
3,250333	0,5	5,191100
3,258667	0,5	5,141500
3,267000	0,5	5,097550
3,275333	0,5	5,050550
3,283667	0,5	4,997350
3,292000	0,5	4,966900
3,300333	0,5	4,921600
3,308667	0,5	4,876350
3,317000	0,5	4,839150
3,325333	0,5	4,817400
3,333667	0,5	4,806300
3,342000	0,5	4,803700
3,350333	0,5	4,811350
3,358667	0,5	4,864700
3,367000	0,5	4,970100
3,375333	0,5	5,142450
3,383667	0,5	5,378450
3,392000	0,5	5,657500
3,400333	0,5	5,942150
3,408667	0,5	6,168550
3,417000	0,5	6,295350
3,425333	0,5	6,283650
3,433667	0,5	6,162950
3,442000	0,5	5,991850
3,450333	0,5	5,785450
3,458667	0,5	5,599900
3,467000	0,5	5,458050
3,475333	0,5	5,329250
3,483667	0,5	5,212450
3,492000	0,5	5,045200
3,500333	0,5	4,862400
3,508667	0,5	4,662350
3,517000	0,5	4,470700
3,525333	0,5	4,295300
3,533667	0,5	4,161050
3,542000	0,5	4,057000
3,550333	0,5	3,980450
3,558667	0,5	3,931850
3,567000	0,5	3,897600
3,575333	0,5	3,863400
3,583667	0,5	3,830850
3,592000	0,5	3,813200
3,600333	0,5	3,767550
3,608667	0,5	3,741150
3,617000	0,5	3,723050
3,625333	0,5	3,717800
3,633667	0,5	3,725350
3,642000	0,5	3,723800
3,650333	0,5	3,726850
3,658667	0,5	3,741550
3,667000	0,5	3,753100
3,675333	0,5	3,758500
3,683667	0,5	3,762850
3,692000	0,5	3,770650
3,700333	0,5	3,770800
3,708667	0,5	3,769300
3,717000	0,5	3,765900
3,725333	0,5	3,748200
3,733667	0,5	3,735950
3,742000	0,5	3,725550
3,750333	0,5	3,701800
3,758667	0,5	3,687850
3,767000	0,5	3,685150
3,775333	0,5	3,691450
3,783667	0,5	3,713750
3,792000	0,5	3,729550
3,800333	0,5	3,765950
3,808667	0,5	3,804800
3,817000	0,5	3,845650
3,825333	0,5	3,872050
3,833667	0,5	3,891100
3,842000	0,5	3,883200
3,850333	0,5	3,870600
3,858667	0,5	3,837600
3,867000	0,5	3,798850
3,875333	0,5	3,752600
3,883667	0,5	3,723750
3,892000	0,5	3,689800
3,900333	0,5	3,653800
3,908667	0,5	3,617100
3,917000	0,5	3,576850
3,925333	0,5	3,520050
3,933667	0,5	3,435200
3,942000	0,5	3,328500
3,950333	0,5	3,211900
3,958667	0,5	3,113950
3,967000	0,5	3,024700
3,975333	0,5	2,971450
3,983667	0,5	2,921850
3,992000	0,5	2,898150
4,000333	0,5	2,872300
4,008667	0,5	2,859750
4,017000	0,5	2,838700
4,025333	0,5	2,828150
4,033667	0,5	2,816000
4,042000	0,5	2,795350
4,050333	0,5	2,775200
4,058667	0,5	2,759100
4,067000	0,5	2,749250
4,075333	0,5	2,747950
4,083667	0,5	2,741750
4,092000	0,5	2,736200
4,100333	0,5	2,736400
4,108667	0,5	2,739650
4,117000	0,5	2,749450
4,125333	0,5	2,759300
4,133667	0,5	2,780800
4,142000	0,5	2,790000
4,150333	0,5	2,808450
4,158667	0,5	2,817450
4,167000	0,5	2,825600
4,175333	0,5	2,829050
4,183667	0,5	2,825850
4,192000	0,5	2,806200
4,200333	0,5	2,789950
4,208667	0,5	2,772650
4,217000	0,5	2,766200
4,225333	0,5	2,763900
4,233667	0,5	2,754450
4,242000	0,5	2,750150
4,250333	0,5	2,753050
4,258667	0,5	2,750650
4,267000	0,5	2,748900
4,275333	0,5	2,749650
4,283667	0,5	2,743300
4,292000	0,5	2,740650
4,300333	0,5	2,730200
4,308667	0,5	2,723950
4,317000	0,5	2,704750
4,325333	0,5	2,704800
4,333667	0,5	2,687450
4,342000	0,5	2,674500
4,350333	0,5	2,659700
4,358667	0,5	2,651550
4,367000	0,5	2,651150
4,375333	0,5	2,643000
4,383667	0,5	2,626800
4,392000	0,5	2,620200
4,400333	0,5	2,606350
4,408667	0,5	2,595800
4,417000	0,5	2,577950
4,425333	0,5	2,560200
4,433667	0,5	2,539900
4,442000	0,5	2,522050
4,450333	0,5	2,504450
4,458667	0,5	2,473450
4,467000	0,5	2,453700
4,475333	0,5	2,451250
4,483667	0,5	2,432000
4,492000	0,5	2,416000
4,500333	0,5	2,413450
4,508667	0,5	2,400700
4,517000	0,5	2,406350
4,525333	0,5	2,394950
4,533667	0,5	2,392900
4,542000	0,5	2,384950
4,550333	0,5	2,381350
4,558667	0,5	2,374100
4,567000	0,5	2,376450
4,575333	0,5	2,369900
4,583667	0,5	2,369250
4,592000	0,5	2,363850
4,600333	0,5	2,362550
4,608667	0,5	2,351150
4,617000	0,5	2,344800
4,625333	0,5	2,343450
4,633667	0,5	2,326200
4,642000	0,5	2,311100
4,650333	0,5	2,302600
4,658667	0,5	2,292400
4,667000	0,5	2,292750
4,675333	0,5	2,285050
4,683667	0,5	2,266850
4,692000	0,5	2,261150
4,700333	0,5	2,250600
4,708667	0,5	2,248500
4,717000	0,5	2,245400
4,725333	0,5	2,252800
4,733667	0,5	2,265050
4,742000	0,5	2,290450
4,750333	0,5	2,321250
4,758667	0,5	2,362200
4,767000	0,5	2,403800
4,775333	0,5	2,456900
4,783667	0,5	2,492000
4,792000	0,5	2,531700
4,800333	0,5	2,556950
4,808667	0,5	2,573350
4,817000	0,5	2,577150
4,825333	0,5	2,558100
4,833667	0,5	2,534750
4,842000	0,5	2,506250
4,850333	0,5	2,482250
4,858667	0,5	2,468200
4,867000	0,5	2,466800
4,875333	0,5	2,478550
4,883667	0,5	2,525050
4,892000	0,5	2,596250
4,900333	0,5	2,713100
4,908667	0,5	2,878850
4,917000	0,5	3,127700
4,925333	0,5	3,440850
4,933667	0,5	3,833600
4,942000	0,5	4,294850
4,950333	0,5	4,792150
4,958667	0,5	5,287000
4,967000	0,5	5,720900
4,975333	0,5	6,034650
4,983667	0,5	6,199350
4,992000	0,5	6,195050
5,000333	0,5	6,028950
5,008667	0,5	5,731450
5,017000	0,5	5,338000
5,025333	0,5	4,900300
5,033667	0,5	4,447150
5,042000	0,5	4,021600
5,050333	0,5	3,629850
5,058667	0,5	3,304650
5,067000	0,5	3,034950
5,075333	0,5	2,811850
5,083667	0,5	2,631300
5,092000	0,5	2,499600
5,100333	0,5	2,398150
5,108667	0,5	2,323650
5,117000	0,5	2,260200
5,125333	0,5	2,211650
5,133667	0,5	2,164250
5,142000	0,5	2,132850
5,150333	0,5	2,106100
5,158667	0,5	2,084000
5,167000	0,5	2,065350
5,175333	0,5	2,051400
5,183667	0,5	2,039050
5,192000	0,5	2,024250
5,200333	0,5	2,015400
5,208667	0,5	2,011750
5,217000	0,5	2,009300
5,225333	0,5	1,997800
5,233667	0,5	1,992200
5,242000	0,5	1,984500
5,250333	0,5	1,989750
5,258667	0,5	1,984300
5,267000	0,5	1,979650
5,275333	0,5	1,967750
5,283667	0,5	1,962750
5,292000	0,5	1,951000
5,300333	0,5	1,946100
5,308667	0,5	1,939500
5,317000	0,5	1,937850
5,325333	0,5	1,935050
5,333667	0,5	1,940700
5,342000	0,5	1,954000
5,350333	0,5	1,963550
5,358667	0,5	1,992650
5,367000	0,5	2,010700
5,375333	0,5	2,028100
5,383667	0,5	2,055200
5,392000	0,5	2,089300
5,400333	0,5	2,130900
5,408667	0,5	2,174400
5,417000	0,5	2,208300
5,425333	0,5	2,249850
5,433667	0,5	2,280150
5,442000	0,5	2,312900
5,450333	0,5	2,333150
5,458667	0,5	2,349100
5,467000	0,5	2,350500
5,475333	0,5	2,343000
5,483667	0,5	2,323300
5,492000	0,5	2,283900
5,500333	0,5	2,236150
5,508667	0,5	2,197600
5,517000	0,5	2,129950
5,525333	0,5	2,070000
5,533667	0,5	2,004200
5,542000	0,5	1,946000
5,550333	0,5	1,903100
5,558667	0,5	1,849150
5,567000	0,5	1,806600
5,575333	0,5	1,766700
5,583667	0,5	1,745200
5,592000	0,5	1,720750
5,600333	0,5	1,707650
5,608667	0,5	1,694400
5,617000	0,5	1,685000
5,625333	0,5	1,675750
5,633667	0,5	1,672450
5,642000	0,5	1,662600
5,650333	0,5	1,663900
5,658667	0,5	1,666900
5,667000	0,5	1,667050
5,675333	0,5	1,666450
5,683667	0,5	1,676850
5,692000	0,5	1,688250
5,700333	0,5	1,705750
5,708667	0,5	1,714000
5,717000	0,5	1,720300
5,725333	0,5	1,726300
5,733667	0,5	1,726550
5,742000	0,5	1,725800
5,750333	0,5	1,716250
5,758667	0,5	1,711550
5,767000	0,5	1,695800
5,775333	0,5	1,683650
5,783667	0,5	1,667250
5,792000	0,5	1,646350
5,800333	0,5	1,629700
5,808667	0,5	1,618650
5,817000	0,5	1,598100
5,825333	0,5	1,584250
5,833667	0,5	1,571850
5,842000	0,5	1,565400
5,850333	0,5	1,556500
5,858667	0,5	1,539750
5,867000	0,5	1,524400
5,875333	0,5	1,512350
5,883667	0,5	1,496200
5,892000	0,5	1,483600
5,900333	0,5	1,471300
5,908667	0,5	1,459300
5,917000	0,5	1,449600
5,925333	0,5	1,441600
5,933667	0,5	1,432100
5,942000	0,5	1,421900
5,950333	0,5	1,422400
5,958667	0,5	1,417600
5,967000	0,5	1,411200
5,975333	0,5	1,407850
5,983667	0,5	1,408700
5,992000	0,5	1,412300
6,000333	0,5	1,415650
6,008667	0,5	1,411050
6,017000	0,5	1,409700
6,025333	0,5	1,404150
6,033667	0,5	1,398550
6,042000	0,5	1,390500
6,050333	0,5	1,381000
6,058667	0,5	1,372800
6,067000	0,5	1,362300
6,075333	0,5	1,355500
6,083667	0,5	1,340850
6,092000	0,5	1,335350
6,100333	0,5	1,337250
6,108667	0,5	1,329900
6,117000	0,5	1,323650
6,125333	0,5	1,325350
6,133667	0,5	1,331700
6,142000	0,5	1,338100
6,150333	0,5	1,339000
6,158667	0,5	1,346150
6,167000	0,5	1,343500
6,175333	0,5	1,348000
6,183667	0,5	1,347800
6,192000	0,5	1,359100
6,200333	0,5	1,371400
6,208667	0,5	1,384800
6,217000	0,5	1,411150
6,225333	0,5	1,430500
6,233667	0,5	1,458300
6,242000	0,5	1,489000
6,250333	0,5	1,510650
6,258667	0,5	1,517350
6,267000	0,5	1,515500
6,275333	0,5	1,504550
6,283667	0,5	1,491350
6,292000	0,5	1,470350
6,300333	0,5	1,447250
6,308667	0,5	1,419300
6,317000	0,5	1,406250
6,325333	0,5	1,394750
6,333667	0,5	1,395600
6,342000	0,5	1,393650
6,350333	0,5	1,401200
6,358667	0,5	1,408250
6,367000	0,5	1,416500
6,375333	0,5	1,418700
6,383667	0,5	1,421000
6,392000	0,5	1,429350
6,400333	0,5	1,434500
6,408667	0,5	1,439450
6,417000	0,5	1,450450
6,425333	0,5	1,468450
6,433667	0,5	1,505700
6,442000	0,5	1,545100
6,450333	0,5	1,589850
6,458667	0,5	1,652750
6,467000	0,5	1,728450
6,475333	0,5	1,825100
6,483667	0,5	1,936400
6,492000	0,5	2,061200
6,500333	0,5	2,187950
6,508667	0,5	2,303500
6,517000	0,5	2,393500
6,525333	0,5	2,445750
6,533667	0,5	2,445250
6,542000	0,5	2,409100
6,550333	0,5	2,313350
6,558667	0,5	2,191000
6,567000	0,5	2,049700
6,575333	0,5	1,907200
6,583667	0,5	1,776000
6,592000	0,5	1,659150
6,600333	0,5	1,560400
6,608667	0,5	1,483300
6,617000	0,5	1,430500
6,625333	0,5	1,390600
6,633667	0,5	1,368150
6,642000	0,5	1,350650
6,650333	0,5	1,339450
6,658667	0,5	1,331650
6,667000	0,5	1,326650
6,675333	0,5	1,316050
6,683667	0,5	1,318000
6,692000	0,5	1,319100
6,700333	0,5	1,315350
6,708667	0,5	1,315600
6,717000	0,5	1,317350
6,725333	0,5	1,323200
6,733667	0,5	1,330750
6,742000	0,5	1,332000
6,750333	0,5	1,332050
6,758667	0,5	1,327050
6,767000	0,5	1,326200
6,775333	0,5	1,318150
6,783667	0,5	1,312800
6,792000	0,5	1,304950
6,800333	0,5	1,301500
6,808667	0,5	1,295850
6,817000	0,5	1,286450
6,825333	0,5	1,281450
6,833667	0,5	1,279600
6,842000	0,5	1,277200
6,850333	0,5	1,270450
6,858667	0,5	1,270100
6,867000	0,5	1,267500
6,875333	0,5	1,276350
6,883667	0,5	1,281050
6,892000	0,5	1,280950
6,900333	0,5	1,282750
6,908667	0,5	1,284950
6,917000	0,5	1,282400
6,925333	0,5	1,285250
6,933667	0,5	1,285150
6,942000	0,5	1,285950
6,950333	0,5	1,285750
6,958667	0,5	1,285650
6,967000	0,5	1,282450
6,975333	0,5	1,283750
6,983667	0,5	1,288250
6,992000	0,5	1,288750
7,000333	0,5	1,285500
7,008667	0,5	1,285900
7,017000	0,5	1,290850
7,025333	0,5	1,295150
7,033667	0,5	1,297550
7,042000	0,5	1,292350
7,050333	0,5	1,290450
7,058667	0,5	1,283150
7,067000	0,5	1,286500
7,075333	0,5	1,285800
7,083667	0,5	1,292050
7,092000	0,5	1,295500
7,100333	0,5	1,306000
7,108667	0,5	1,313350
7,117000	0,5	1,322300
7,125333	0,5	1,325300
7,133667	0,5	1,325950
7,142000	0,5	1,317050
7,150333	0,5	1,310750
7,158667	0,5	1,309150
7,167000	0,5	1,313450
7,175333	0,5	1,323350
7,183667	0,5	1,328900
7,192000	0,5	1,337050
7,200333	0,5	1,341200
7,208667	0,5	1,344250
7,217000	0,5	1,343350
7,225333	0,5	1,346950
7,233667	0,5	1,343050
7,242000	0,5	1,341650
7,250333	0,5	1,334500
7,258667	0,5	1,330650
7,267000	0,5	1,322350
7,275333	0,5	1,326600
7,283667	0,5	1,329500
7,292000	0,5	1,337450
7,300333	0,5	1,346750
7,308667	0,5	1,363250
7,317000	0,5	1,392950
7,325333	0,5	1,425950
7,333667	0,5	1,464200
7,342000	0,5	1,506750
7,350333	0,5	1,545400
7,358667	0,5	1,573350
7,367000	0,5	1,587450
7,375333	0,5	1,581350
7,383667	0,5	1,558200
7,392000	0,5	1,518750
7,400333	0,5	1,481500
7,408667	0,5	1,445400
7,417000	0,5	1,412150
7,425333	0,5	1,387400
7,433667	0,5	1,368500
7,442000	0,5	1,348700
7,450333	0,5	1,338600
7,458667	0,5	1,332950
7,467000	0,5	1,331300
7,475333	0,5	1,327500
7,483667	0,5	1,335850
7,492000	0,5	1,336850
7,500333	0,5	1,344200
7,508667	0,5	1,352100
7,517000	0,5	1,357700
7,525333	0,5	1,361750
7,533667	0,5	1,374150
7,542000	0,5	1,383150
7,550333	0,5	1,398600
7,558667	0,5	1,414150
7,567000	0,5	1,430900
7,575333	0,5	1,458900
7,583667	0,5	1,488200
7,592000	0,5	1,529750
7,600333	0,5	1,579350
7,608667	0,5	1,652500
7,617000	0,5	1,745950
7,625333	0,5	1,860900
7,633667	0,5	2,003550
7,642000	0,5	2,182550
7,650333	0,5	2,392700
7,658667	0,5	2,631400
7,667000	0,5	2,882300
7,675333	0,5	3,135500
7,683667	0,5	3,360050
7,692000	0,5	3,541600
7,700333	0,5	3,653400
7,708667	0,5	3,678050
7,717000	0,5	3,612200
7,725333	0,5	3,473700
7,733667	0,5	3,263700
7,742000	0,5	3,012900
7,750333	0,5	2,749800
7,758667	0,5	2,498550
7,767000	0,5	2,274850
7,775333	0,5	2,082750
7,783667	0,5	1,929300
7,792000	0,5	1,815200
7,800333	0,5	1,739850
7,808667	0,5	1,689500
7,817000	0,5	1,675050
7,825333	0,5	1,682750
7,833667	0,5	1,717550
7,842000	0,5	1,780950
7,850333	0,5	1,860300
7,858667	0,5	1,959800
7,867000	0,5	2,061950
7,875333	0,5	2,158350
7,883667	0,5	2,228100
7,892000	0,5	2,262300
7,900333	0,5	2,260050
7,908667	0,5	2,229300
7,917000	0,5	2,167600
7,925333	0,5	2,098450
7,933667	0,5	2,025200
7,942000	0,5	1,961050
7,950333	0,5	1,914600
7,958667	0,5	1,883150
7,967000	0,5	1,863900
7,975333	0,5	1,861950
7,983667	0,5	1,872900
7,992000	0,5	1,891000
8,000333	0,5	1,917750
8,008667	0,5	1,944100
8,017000	0,5	1,962200
8,025333	0,5	1,966000
8,033667	0,5	1,948100
8,042000	0,5	1,918350
8,050333	0,5	1,882600
8,058667	0,5	1,849250
8,067000	0,5	1,816850
8,075333	0,5	1,794100
8,083667	0,5	1,774950
8,092000	0,5	1,772850
8,100333	0,5	1,783550
8,108667	0,5	1,801050
8,117000	0,5	1,829550
8,125333	0,5	1,858150
8,133667	0,5	1,865750
8,142000	0,5	1,845250
8,150333	0,5	1,798000
8,158667	0,5	1,731650
8,167000	0,5	1,663900
8,175333	0,5	1,601300
8,183667	0,5	1,555550
8,192000	0,5	1,525850
8,200333	0,5	1,514150
8,208667	0,5	1,515500
8,217000	0,5	1,523600
8,225333	0,5	1,538950
8,233667	0,5	1,565350
8,242000	0,5	1,593700
8,250333	0,5	1,632050
8,258667	0,5	1,687100
8,267000	0,5	1,749200
8,275333	0,5	1,824950
8,283667	0,5	1,907550
8,292000	0,5	2,000450
8,300333	0,5	2,108400
8,308667	0,5	2,238150
8,317000	0,5	2,392500
8,325333	0,5	2,588500
8,333667	0,5	2,834050
8,342000	0,5	3,154350
8,350333	0,5	3,557650
8,358667	0,5	4,051500
8,367000	0,5	4,621950
8,375333	0,5	5,246950
8,383667	0,5	5,877650
8,392000	0,5	6,453850
8,400333	0,5	6,925350
8,408667	0,5	7,257050
8,417000	0,5	7,425550
8,425333	0,5	7,430650
8,433667	0,5	7,270650
8,442000	0,5	6,940750
8,450333	0,5	6,434850
8,458667	0,5	5,777750
8,467000	0,5	5,015600
8,475333	0,5	4,232750
8,483667	0,5	3,513100
8,492000	0,5	2,911950
8,500333	0,5	2,452850
8,508667	0,5	2,124950
8,517000	0,5	1,898850
8,525333	0,5	1,751400
8,533667	0,5	1,656250
8,542000	0,5	1,598500
8,550333	0,5	1,565450
8,558667	0,5	1,547750
8,567000	0,5	1,540500
8,575333	0,5	1,540450
8,583667	0,5	1,530250
8,592000	0,5	1,520100
8,600333	0,5	1,513400
8,608667	0,5	1,516300
8,617000	0,5	1,537450
8,625333	0,5	1,571650
8,633667	0,5	1,616200
8,642000	0,5	1,655850
8,650333	0,5	1,669400
8,658667	0,5	1,641200
8,667000	0,5	1,581750
8,675333	0,5	1,506950
8,683667	0,5	1,435300
8,692000	0,5	1,380150
8,700333	0,5	1,338600
8,708667	0,5	1,310100
8,717000	0,5	1,296350
8,725333	0,5	1,284200
8,733667	0,5	1,282000
8,742000	0,5	1,279600
8,750333	0,5	1,277450
8,758667	0,5	1,275650
8,767000	0,5	1,273750
8,775333	0,5	1,275300
8,783667	0,5	1,274100
8,792000	0,5	1,278350
8,800333	0,5	1,282500
8,808667	0,5	1,293950
8,817000	0,5	1,309900
8,825333	0,5	1,336300
8,833667	0,5	1,373350
8,842000	0,5	1,427100
8,850333	0,5	1,495300
8,858667	0,5	1,565800
8,867000	0,5	1,638050
8,875333	0,5	1,691200
8,883667	0,5	1,723250
8,892000	0,5	1,730950
8,900333	0,5	1,720300
8,908667	0,5	1,702550
8,917000	0,5	1,671900
8,925333	0,5	1,639300
8,933667	0,5	1,609550
8,942000	0,5	1,570650
8,950333	0,5	1,530350
8,958667	0,5	1,489450
8,967000	0,5	1,447600
8,975333	0,5	1,406300
8,983667	0,5	1,372550
8,992000	0,5	1,349100
9,000333	0,5	1,345000
9,008667	0,5	1,356300
9,017000	0,5	1,393400
9,025333	0,5	1,454950
9,033667	0,5	1,527350
9,042000	0,5	1,587900
9,050333	0,5	1,626950
9,058667	0,5	1,633950
9,067000	0,5	1,614500
9,075333	0,5	1,583600
9,083667	0,5	1,546550
9,092000	0,5	1,522700
9,100333	0,5	1,495150
9,108667	0,5	1,473000
9,117000	0,5	1,456000
9,125333	0,5	1,438650
9,133667	0,5	1,428100
9,142000	0,5	1,422650
9,150333	0,5	1,418600
9,158667	0,5	1,424200
9,167000	0,5	1,431150
9,175333	0,5	1,433150
9,183667	0,5	1,432950
9,192000	0,5	1,412400
9,200333	0,5	1,393500
9,208667	0,5	1,360950
9,217000	0,5	1,325850
9,225333	0,5	1,293300
9,233667	0,5	1,266600
9,242000	0,5	1,247900
9,250333	0,5	1,236900
9,258667	0,5	1,230600
9,267000	0,5	1,220300
9,275333	0,5	1,219250
9,283667	0,5	1,211650
9,292000	0,5	1,206100
9,300333	0,5	1,203550
9,308667	0,5	1,196800
9,317000	0,5	1,191700
9,325333	0,5	1,192550
9,333667	0,5	1,198100
9,342000	0,5	1,211300
9,350333	0,5	1,245700
9,358667	0,5	1,293750
9,367000	0,5	1,362050
9,375333	0,5	1,441100
9,383667	0,5	1,517950
9,392000	0,5	1,579550
9,400333	0,5	1,608500
9,408667	0,5	1,613800
9,417000	0,5	1,590150
9,425333	0,5	1,550500
9,433667	0,5	1,499200
9,442000	0,5	1,442050
9,450333	0,5	1,384750
9,458667	0,5	1,332300
9,467000	0,5	1,285350
9,475333	0,5	1,246300
9,483667	0,5	1,216100
9,492000	0,5	1,191700
9,500333	0,5	1,177650
9,508667	0,5	1,162650
9,517000	0,5	1,156450
9,525333	0,5	1,153600
9,533667	0,5	1,157450
9,542000	0,5	1,166650
9,550333	0,5	1,169900
9,558667	0,5	1,181150
9,567000	0,5	1,190450
9,575333	0,5	1,201700
9,583667	0,5	1,216050
9,592000	0,5	1,232850
9,600333	0,5	1,252350
9,608667	0,5	1,271450
9,617000	0,5	1,291150
9,625333	0,5	1,300950
9,633667	0,5	1,297100
9,642000	0,5	1,285900
9,650333	0,5	1,270700
9,658667	0,5	1,259100
9,667000	0,5	1,261500
9,675333	0,5	1,269450
9,683667	0,5	1,287650
9,692000	0,5	1,297850
9,700333	0,5	1,297550
9,708667	0,5	1,280150
9,717000	0,5	1,261450
9,725333	0,5	1,244900
9,733667	0,5	1,240900
9,742000	0,5	1,243750
9,750333	0,5	1,265800
9,758667	0,5	1,307800
9,767000	0,5	1,368350
9,775333	0,5	1,448500
9,783667	0,5	1,542000
9,792000	0,5	1,641850
9,800333	0,5	1,742000
9,808667	0,5	1,843950
9,817000	0,5	1,965450
9,825333	0,5	2,129300
9,833667	0,5	2,354100
9,842000	0,5	2,634650
9,850333	0,5	2,940600
9,858667	0,5	3,234850
9,867000	0,5	3,462800
9,875333	0,5	3,602350
9,883667	0,5	3,634350
9,892000	0,5	3,574200
9,900333	0,5	3,443200
9,908667	0,5	3,253650
9,917000	0,5	3,048400
9,925333	0,5	2,825300
9,933667	0,5	2,602000
9,942000	0,5	2,393650
9,950333	0,5	2,187600
9,958667	0,5	2,007400
9,967000	0,5	1,850600
9,975333	0,5	1,717800
9,983667	0,5	1,615850
9,992000	0,5	1,531000
10,000333	0,5	1,460100
10,008667	0,5	1,392000
10,017000	0,5	1,331300
10,025333	0,5	1,279250
10,033667	0,5	1,232150
10,042000	0,5	1,195650
10,050333	0,5	1,184200
10,058667	0,5	1,184800
10,067000	0,5	1,209650
10,075333	0,5	1,250000
10,083667	0,5	1,312350
10,092000	0,5	1,377450
10,100333	0,5	1,431000
10,108667	0,5	1,464000
10,117000	0,5	1,469550
10,125333	0,5	1,459900
10,133667	0,5	1,433000
10,142000	0,5	1,406100
10,150333	0,5	1,382000
10,158667	0,5	1,360350
10,167000	0,5	1,330850
10,175333	0,5	1,307850
10,183667	0,5	1,286400
10,192000	0,5	1,267300
10,200333	0,5	1,254900
10,208667	0,5	1,256200
10,217000	0,5	1,264650
10,225333	0,5	1,286700
10,233667	0,5	1,328600
10,242000	0,5	1,376000
10,250333	0,5	1,427150
10,258667	0,5	1,480500
10,267000	0,5	1,525500
10,275333	0,5	1,572500
10,283667	0,5	1,616650
10,292000	0,5	1,660650
10,300333	0,5	1,710800
10,308667	0,5	1,764150
10,317000	0,5	1,798750
10,325333	0,5	1,804700
10,333667	0,5	1,780750
10,342000	0,5	1,726150
10,350333	0,5	1,640550
10,358667	0,5	1,550600
10,367000	0,5	1,485300
10,375333	0,5	1,447000
10,383667	0,5	1,462100
10,392000	0,5	1,510800
10,400333	0,5	1,613850
10,408667	0,5	1,789000
10,417000	0,5	2,086350
10,425333	0,5	2,621800
10,433667	0,5	3,283450
10,442000	0,5	3,530900
10,450333	0,5	3,362850
10,458667	0,5	3,030050
10,467000	0,5	2,432800
10,475333	0,5	1,667650
10,483667	0,5	1,052850
10,492000	0,5	0,697550
10,500333	0,5	0,493700
10,508667	0,5	0,383850
10,517000	0,5	0,306500
10,525333	0,5	0,254200
10,533667	0,5	0,221750
10,542000	0,5	0,192450
10,550333	0,5	0,168450
10,558667	0,5	0,144700
10,567000	0,5	0,119800
10,575333	0,5	0,102400
10,583667	0,5	0,080550
10,592000	0,5	0,059000
10,600333	0,5	0,036350
10,608667	0,5	0,021200
10,617000	0,5	0,005150
10,625333	0,5	-0,007750
10,633667	0,5	-0,024650
10,642000	0,5	-0,037850
10,650333	0,5	-0,047500
10,658667	0,5	-0,060600
10,667000	0,5	-0,073450
10,675333	0,5	-0,078350
10,683667	0,5	-0,085350
10,692000	0,5	-0,090100
10,700333	0,5	-0,088850
10,708667	0,5	-0,090100
10,717000	0,5	-0,088450
10,725333	0,5	-0,079550
10,733667	0,5	-0,075900
10,742000	0,5	-0,079400
10,750333	0,5	-0,082850
10,758667	0,5	-0,090850
10,767000	0,5	-0,103100
10,775333	0,5	-0,117200
10,783667	0,5	-0,135550
10,792000	0,5	-0,153600
10,800333	0,5	-0,169000
10,808667	0,5	-0,185750
10,817000	0,5	-0,199150
10,825333	0,5	-0,210550
10,833667	0,5	-0,222950
10,842000	0,5	-0,235550
10,850333	0,5	-0,245200
10,858667	0,5	-0,253800
10,867000	0,5	-0,257100
10,875333	0,5	-0,256000
10,883667	0,5	-0,260700
10,892000	0,5	-0,256750
10,900333	0,5	-0,259950
10,908667	0,5	-0,261000
10,917000	0,5	-0,261600
10,925333	0,5	-0,264100
10,933667	0,5	-0,269250
10,942000	0,5	-0,271900
10,950333	0,5	-0,271800
10,958667	0,5	-0,274200
10,967000	0,5	-0,279100
10,975333	0,5	-0,279550
10,983667	0,5	-0,283550
10,992000	0,5	-0,287450
11,000333	0,5	-0,296500
11,008667	0,5	-0,303550
11,017000	0,5	-0,303350
11,025333	0,5	-0,304900
11,033667	0,5	-0,306500
11,042000	0,5	-0,305900
11,050333	0,5	-0,307800
11,058667	0,5	-0,308550
11,067000	0,5	-0,305550
11,075333	0,5	-0,308300
11,083667	0,5	-0,311200
11,092000	0,5	-0,308900
11,100333	0,5	-0,310300
11,108667	0,5	-0,317450
11,117000	0,5	-0,318600
11,125333	0,5	-0,319550
11,133667	0,5	-0,323650
11,142000	0,5	-0,329050
11,150333	0,5	-0,336700
11,158667	0,5	-0,335900
11,167000	0,5	-0,337600
11,175333	0,5	-0,336800
11,183667	0,5	-0,341650
11,192000	0,5	-0,343400
11,200333	0,5	-0,340200
11,208667	0,5	-0,341800
11,217000	0,5	-0,343700
11,225333	0,5	-0,347950
11,233667	0,5	-0,346500
11,242000	0,5	-0,343350
11,250333	0,5	-0,342750
11,258667	0,5	-0,343650
11,267000	0,5	-0,341000
11,275333	0,5	-0,338900
11,283667	0,5	-0,338900
11,292000	0,5	-0,335900
11,300333	0,5	-0,341600
11,308667	0,5	-0,336500
11,317000	0,5	-0,333300
11,325333	0,5	-0,333100
11,333667	0,5	-0,330350
11,342000	0,5	-0,326700
11,350333	0,5	-0,323500
11,358667	0,5	-0,320000
11,367000	0,5	-0,315200
11,375333	0,5	-0,312250
11,383667	0,5	-0,308350
11,392000	0,5	-0,306000
11,400333	0,5	-0,296700
11,408667	0,5	-0,299950
11,417000	0,5	-0,285100
11,425333	0,5	-0,283750
11,433667	0,5	-0,282050
11,442000	0,5	-0,274900
11,450333	0,5	-0,270150
11,458667	0,5	-0,259650
11,467000	0,5	-0,250200
11,475333	0,5	-0,246750
11,483667	0,5	-0,232500
11,492000	0,5	-0,226300
11,500333	0,5	-0,217800
11,508667	0,5	-0,211650
11,517000	0,5	-0,200400
11,525333	0,5	-0,197400
11,533667	0,5	-0,191450
11,542000	0,5	-0,184050
11,550333	0,5	-0,182850
11,558667	0,5	-0,180550
11,567000	0,5	-0,175750
11,575333	0,5	-0,181800
11,583667	0,5	-0,179050
11,592000	0,5	-0,181550
11,600333	0,5	-0,185700
11,608667	0,5	-0,184050
11,617000	0,5	-0,187450
11,625333	0,5	-0,188450
11,633667	0,5	-0,196150
11,642000	0,5	-0,193750
11,650333	0,5	-0,199450
11,658667	0,5	-0,202050
11,667000	0,5	-0,205050
11,675333	0,5	-0,212650
11,683667	0,5	-0,213100
11,692000	0,5	-0,213650
11,700333	0,5	-0,221500
11,708667	0,5	-0,222800
11,717000	0,5	-0,223650
11,725333	0,5	-0,230650
11,733667	0,5	-0,234150
11,742000	0,5	-0,237800
11,750333	0,5	-0,237950
11,758667	0,5	-0,236450
11,767000	0,5	-0,237100
11,775333	0,5	-0,241950
11,783667	0,5	-0,239700
11,792000	0,5	-0,239100
11,800333	0,5	-0,236700
11,808667	0,5	-0,239350
11,817000	0,5	-0,237800
11,825333	0,5	-0,233350
11,833667	0,5	-0,232300
11,842000	0,5	-0,231100
11,850333	0,5	-0,231100
11,858667	0,5	-0,223700
11,867000	0,5	-0,217800
11,875333	0,5	-0,213550
11,883667	0,5	-0,210400
11,892000	0,5	-0,209450
11,900333	0,5	-0,202450
11,908667	0,5	-0,191850
11,917000	0,5	-0,187100
11,925333	0,5	-0,177750
11,933667	0,5	-0,167400
11,942000	0,5	-0,156750
11,950333	0,5	-0,149250
11,958667	0,5	-0,139150
11,967000	0,5	-0,130800
11,975333	0,5	-0,122150
11,983667	0,5	-0,116700
11,992000	0,5	-0,110200
12,000333	0,5	-0,102550
12,008667	0,5	-0,092850
12,017000	0,5	-0,093500
12,025333	0,5	-0,086550
12,033667	0,5	-0,084750
12,042000	0,5	-0,083100
12,050333	0,5	-0,076750
12,058667	0,5	-0,072400
12,067000	0,5	-0,066400
12,075333	0,5	-0,062650
12,083667	0,5	-0,056850
12,092000	0,5	-0,054500
12,100333	0,5	-0,046850
12,108667	0,5	-0,036800
12,117000	0,5	-0,029200
12,125333	0,5	-0,018600
12,133667	0,5	-0,006450
12,142000	0,5	0,004000
12,150333	0,5	0,023700
12,158667	0,5	0,043000
12,167000	0,5	0,060800
12,175333	0,5	0,084500
12,183667	0,5	0,104350
12,192000	0,5	0,137950
12,200333	0,5	0,171950
12,208667	0,5	0,206950
12,217000	0,5	0,244800
12,225333	0,5	0,279200
12,233667	0,5	0,309850
12,242000	0,5	0,340100
12,250333	0,5	0,364900
12,258667	0,5	0,377000
12,267000	0,5	0,386350
12,275333	0,5	0,385400
12,283667	0,5	0,384250
12,292000	0,5	0,376450
12,300333	0,5	0,377650
12,308667	0,5	0,371300
12,317000	0,5	0,363950
12,325333	0,5	0,362050
12,333667	0,5	0,354650
12,342000	0,5	0,359300
12,350333	0,5	0,360750
12,358667	0,5	0,363000
12,367000	0,5	0,364100
12,375333	0,5	0,372750
12,383667	0,5	0,374900
12,392000	0,5	0,381900
12,400333	0,5	0,387300
12,408667	0,5	0,386050
12,417000	0,5	0,397000
12,425333	0,5	0,406100
12,433667	0,5	0,419600
12,442000	0,5	0,427350
12,450333	0,5	0,442400
12,458667	0,5	0,453500
12,467000	0,5	0,462050
12,475333	0,5	0,467400
12,483667	0,5	0,473450
12,492000	0,5	0,485150
12,500333	0,5	0,494400
12,508667	0,5	0,498500
12,517000	0,5	0,508750
12,525333	0,5	0,522300
12,533667	0,5	0,536150
12,542000	0,5	0,554500
12,550333	0,5	0,576200
12,558667	0,5	0,602400
12,567000	0,5	0,625100
12,575333	0,5	0,654200
12,583667	0,5	0,673750
12,592000	0,5	0,694900
12,600333	0,5	0,710250
12,608667	0,5	0,712100
12,617000	0,5	0,712500
12,625333	0,5	0,710600
12,633667	0,5	0,708750
12,642000	0,5	0,712800
12,650333	0,5	0,711950
12,658667	0,5	0,717950
12,667000	0,5	0,722200
12,675333	0,5	0,731650
12,683667	0,5	0,739100
12,692000	0,5	0,750150
12,700333	0,5	0,757950
12,708667	0,5	0,771700
12,717000	0,5	0,786000
12,725333	0,5	0,804100
12,733667	0,5	0,819950
12,742000	0,5	0,841250
12,750333	0,5	0,859450
12,758667	0,5	0,876600
12,767000	0,5	0,886400
12,775333	0,5	0,891800
12,783667	0,5	0,903700
12,792000	0,5	0,917000
12,800333	0,5	0,930000
12,808667	0,5	0,936800
12,817000	0,5	0,958200
12,825333	0,5	0,973600
12,833667	0,5	0,991600
12,842000	0,5	1,006350
12,850333	0,5	1,015900
12,858667	0,5	1,016950
12,867000	0,5	1,018300
12,875333	0,5	1,012450
12,883667	0,5	1,009000
12,892000	0,5	1,010800
12,900333	0,5	1,009900
12,908667	0,5	1,002750
12,917000	0,5	0,999900
12,925333	0,5	1,004350
12,933667	0,5	1,004850
12,942000	0,5	1,012600
12,950333	0,5	1,018050
12,958667	0,5	1,026850
12,967000	0,5	1,034050
12,975333	0,5	1,041350
12,983667	0,5	1,047800
12,992000	0,5	1,054650
13,000333	0,5	1,052800
13,008667	0,5	1,053600
13,017000	0,5	1,056800
13,025333	0,5	1,059400
13,033667	0,5	1,066150
13,042000	0,5	1,079450
13,050333	0,5	1,083650
13,058667	0,5	1,086700
13,067000	0,5	1,082600
13,075333	0,5	1,084250
13,083667	0,5	1,080150
13,092000	0,5	1,077450
13,100333	0,5	1,070600
13,108667	0,5	1,067300
13,117000	0,5	1,065550
13,125333	0,5	1,064400
13,133667	0,5	1,065700
13,142000	0,5	1,060550
13,150333	0,5	1,063800
13,158667	0,5	1,068900
13,167000	0,5	1,061950
13,175333	0,5	1,056300
13,183667	0,5	1,065250
13,192000	0,5	1,068700
13,200333	0,5	1,066500
13,208667	0,5	1,062850
13,217000	0,5	1,062250
13,225333	0,5	1,066350
13,233667	0,5	1,068650
13,242000	0,5	1,067450
13,250333	0,5	1,066200
13,258667	0,5	1,067550
13,267000	0,5	1,065900
13,275333	0,5	1,071350
13,283667	0,5	1,071350
13,292000	0,5	1,075200
13,300333	0,5	1,075450
13,308667	0,5	1,077900
13,317000	0,5	1,072750
13,325333	0,5	1,071500
13,333667	0,5	1,074950
13,342000	0,5	1,073950
13,350333	0,5	1,069500
13,358667	0,5	1,066700
13,367000	0,5	1,056200
13,375333	0,5	1,062100
13,383667	0,5	1,056400
13,392000	0,5	1,060350
13,400333	0,5	1,054800
13,408667	0,5	1,061150
13,417000	0,5	1,065350
13,425333	0,5	1,069850
13,433667	0,5	1,071750
13,442000	0,5	1,073050
13,450333	0,5	1,077850
13,458667	0,5	1,076850
13,467000	0,5	1,071150
13,475333	0,5	1,069600
13,483667	0,5	1,069500
13,492000	0,5	1,062500
13,500333	0,5	1,051700
13,508667	0,5	1,039600
13,517000	0,5	1,040500
13,525333	0,5	1,043650
13,533667	0,5	1,046650
13,542000	0,5	1,049250
13,550333	0,5	1,061200
13,558667	0,5	1,064450
13,567000	0,5	1,070800
13,575333	0,5	1,071050
13,583667	0,5	1,063500
13,592000	0,5	1,063450
13,600333	0,5	1,048650
13,608667	0,5	1,045300
13,617000	0,5	1,034200
13,625333	0,5	1,042400
13,633667	0,5	1,041650
13,642000	0,5	1,042950
13,650333	0,5	1,038150
13,658667	0,5	1,029150
13,667000	0,5	1,023100
13,675333	0,5	1,020900
13,683667	0,5	1,012350
13,692000	0,5	1,006500
13,700333	0,5	1,006650
13,708667	0,5	1,014500
13,717000	0,5	1,031800
13,725333	0,5	1,053750
13,733667	0,5	1,069900
13,742000	0,5	1,083550
13,750333	0,5	1,086150
13,758667	0,5	1,072550
13,767000	0,5	1,044000
13,775333	0,5	1,030450
13,783667	0,5	1,006200
13,792000	0,5	0,988050
13,800333	0,5	0,978200
13,808667	0,5	0,976550
13,817000	0,5	0,992400
13,825333	0,5	1,008600
13,833667	0,5	1,029850
13,842000	0,5	1,040550
13,850333	0,5	1,050750
13,858667	0,5	1,056200
13,867000	0,5	1,075900
13,875333	0,5	1,104800
13,883667	0,5	1,135950
13,892000	0,5	1,171600
13,900333	0,5	1,200700
13,908667	0,5	1,199800
13,917000	0,5	1,178100
13,925333	0,5	1,146200
13,933667	0,5	1,095100
13,942000	0,5	1,047500
13,950333	0,5	0,999250
13,958667	0,5	0,975200
13,967000	0,5	0,965200
13,975333	0,5	0,970850
13,983667	0,5	0,986150
13,992000	0,5	1,008250
14,000333	0,5	1,032300
14,008667	0,5	1,071450
14,017000	0,5	1,100800
14,025333	0,5	1,141100
14,033667	0,5	1,173150
14,042000	0,5	1,197850
14,050333	0,5	1,192950
14,058667	0,5	1,167850
14,067000	0,5	1,127100
14,075333	0,5	1,078650
14,083667	0,5	1,024000
14,092000	0,5	0,972350
14,100333	0,5	0,938150
14,108667	0,5	0,925300
14,117000	0,5	0,934700
14,125333	0,5	0,955450
14,133667	0,5	0,989500
14,142000	0,5	1,029450
14,150333	0,5	1,069050
14,158667	0,5	1,100950
14,167000	0,5	1,126450
14,175333	0,5	1,124250
14,183667	0,5	1,112750
14,192000	0,5	1,082000
14,200333	0,5	1,040450
14,208667	0,5	0,989600
14,217000	0,5	0,953850
14,225333	0,5	0,920350
14,233667	0,5	0,894000
14,242000	0,5	0,874450
14,250333	0,5	0,876200
14,258667	0,5	0,898150
14,267000	0,5	0,918750
14,275333	0,5	0,937500
14,283667	0,5	0,955450
14,292000	0,5	0,961450
14,300333	0,5	0,960650
14,308667	0,5	0,948950
14,317000	0,5	0,923300
14,325333	0,5	0,895000
14,333667	0,5	0,867350
14,342000	0,5	0,850250
14,350333	0,5	0,830050
14,358667	0,5	0,834150
14,367000	0,5	0,848700
14,375333	0,5	0,870000
14,383667	0,5	0,883250
14,392000	0,5	0,893050
14,400333	0,5	0,902500
14,408667	0,5	0,909650
14,417000	0,5	0,895900
14,425333	0,5	0,878250
14,433667	0,5	0,849350
14,442000	0,5	0,825150
14,450333	0,5	0,793350
14,458667	0,5	0,777800
14,467000	0,5	0,765050
14,475333	0,5	0,756550
14,483667	0,5	0,761100
14,492000	0,5	0,764200
14,500333	0,5	0,754900
14,508667	0,5	0,761700
14,517000	0,5	0,757350
14,525333	0,5	0,747900
14,533667	0,5	0,731350
14,542000	0,5	0,707700
14,550333	0,5	0,705000
14,558667	0,5	0,701550
14,567000	0,5	0,699950
14,575333	0,5	0,691000
14,583667	0,5	0,691650
14,592000	0,5	0,686700
14,600333	0,5	0,691900
14,608667	0,5	0,689300
14,617000	0,5	0,688400
14,625333	0,5	0,685350
14,633667	0,5	0,682200
14,642000	0,5	0,677100
14,650333	0,5	0,661000
14,658667	0,5	0,663750
14,667000	0,5	0,658450
14,675333	0,5	0,648800
14,683667	0,5	0,631500
14,692000	0,5	0,622150
14,700333	0,5	0,622700
14,708667	0,5	0,631400
14,717000	0,5	0,623650
14,725333	0,5	0,629850
14,733667	0,5	0,632400
14,742000	0,5	0,629550
14,750333	0,5	0,624850
14,758667	0,5	0,622250
14,767000	0,5	0,612500
14,775333	0,5	0,603300
14,783667	0,5	0,596150
14,792000	0,5	0,589300
14,800333	0,5	0,585850
14,808667	0,5	0,593800
14,817000	0,5	0,593050
14,825333	0,5	0,594500
14,833667	0,5	0,594600
14,842000	0,5	0,591200
14,850333	0,5	0,597400
14,858667	0,5	0,595850
14,867000	0,5	0,594650
14,875333	0,5	0,590650
14,883667	0,5	0,582300
14,892000	0,5	0,573100
14,900333	0,5	0,573550
14,908667	0,5	0,567650
14,917000	0,5	0,567650
14,925333	0,5	0,569900
14,933667	0,5	0,568750
14,942000	0,5	0,557650
14,950333	0,5	0,561650
14,958667	0,5	0,562500
14,967000	0,5	0,551150
14,975333	0,5	0,539300
14,983667	0,5	0,527100
14,992000	0,5	0,531850
15,000333	0,5	0,537500
15,008667	0,5	0,544500
15,017000	0,5	0,548250
15,025333	0,5	0,554050
15,033667	0,5	0,553650
15,042000	0,5	0,556100
15,050333	0,5	0,550450
15,058667	0,5	0,548500
15,067000	0,5	0,541700
15,075333	0,5	0,540450
15,083667	0,5	0,524850
15,092000	0,5	0,513850
15,100333	0,5	0,511150
15,108667	0,5	0,508600
15,117000	0,5	0,499350
15,125333	0,5	0,491250
15,133667	0,5	0,481200
15,142000	0,5	0,480050
15,150333	0,5	0,480950
15,158667	0,5	0,479900
15,167000	0,5	0,481350
15,175333	0,5	0,476300
15,183667	0,5	0,480500
15,192000	0,5	0,480750
15,200333	0,5	0,482800
15,208667	0,5	0,477850
15,217000	0,5	0,478900
15,225333	0,5	0,477600
15,233667	0,5	0,468750
15,242000	0,5	0,466450
15,250333	0,5	0,468350
15,258667	0,5	0,466000
15,267000	0,5	0,460500
15,275333	0,5	0,442700
15,283667	0,5	0,441000
15,292000	0,5	0,444750
15,300333	0,5	0,443800
15,308667	0,5	0,436400
15,317000	0,5	0,431900
15,325333	0,5	0,434450
15,333667	0,5	0,432000
15,342000	0,5	0,437250
15,350333	0,5	0,436100
15,358667	0,5	0,442200
15,367000	0,5	0,439350
15,375333	0,5	0,444650
15,383667	0,5	0,429700
15,392000	0,5	0,445300
15,400333	0,5	0,443850
15,408667	0,5	0,452800
15,417000	0,5	0,448400
15,425333	0,5	0,444450
15,433667	0,5	0,449200
15,442000	0,5	0,457200
15,450333	0,5	0,458250
15,458667	0,5	0,460300
15,467000	0,5	0,460050
15,475333	0,5	0,458700
15,483667	0,5	0,462000
15,492000	0,5	0,463550
15,500333	0,5	0,462250
15,508667	0,5	0,458650
15,517000	0,5	0,464200
15,525333	0,5	0,460900
15,533667	0,5	0,454950
15,542000	0,5	0,467100
15,550333	0,5	0,474250
15,558667	0,5	0,473850
15,567000	0,5	0,477450
15,575333	0,5	0,468350
15,583667	0,5	0,480750
15,592000	0,5	0,482050
15,600333	0,5	0,489200
15,608667	0,5	0,490900
15,617000	0,5	0,501500
15,625333	0,5	0,504300
15,633667	0,5	0,517900
15,642000	0,5	0,526150
15,650333	0,5	0,530550
15,658667	0,5	0,524700
15,667000	0,5	0,511600
15,675333	0,5	0,491100
15,683667	0,5	0,474300
15,692000	0,5	0,467250
15,700333	0,5	0,445000
15,708667	0,5	0,437450
15,717000	0,5	0,420200
15,725333	0,5	0,412950
15,733667	0,5	0,412500
15,742000	0,5	0,416450
15,750333	0,5	0,413150
15,758667	0,5	0,413650
15,767000	0,5	0,409850
15,775333	0,5	0,414300
15,783667	0,5	0,417650
15,792000	0,5	0,416350
15,800333	0,5	0,415350
15,808667	0,5	0,411950
15,817000	0,5	0,413850
15,825333	0,5	0,409150
15,833667	0,5	0,416650
15,842000	0,5	0,423550
15,850333	0,5	0,425300
15,858667	0,5	0,417700
15,867000	0,5	0,407100
15,875333	0,5	0,399150
15,883667	0,5	0,408600
15,892000	0,5	0,397000
15,900333	0,5	0,393900
15,908667	0,5	0,388300
15,917000	0,5	0,378900
15,925333	0,5	0,374350
15,933667	0,5	0,371700
15,942000	0,5	0,365100
15,950333	0,5	0,364500
15,958667	0,5	0,366600
15,967000	0,5	0,360300
15,975333	0,5	0,354500
15,983667	0,5	0,362950
15,992000	0,5	0,362950
16,000333	0,5	0,359250
16,008667	0,5	0,352600
16,017000	0,5	0,343400
16,025333	0,5	0,346400
16,033667	0,5	0,346750
16,042000	0,5	0,344450
16,050333	0,5	0,339000
16,058667	0,5	0,338750
16,067000	0,5	0,330100
16,075333	0,5	0,331000
16,083667	0,5	0,328500
16,092000	0,5	0,328500
16,100333	0,5	0,330250
16,108667	0,5	0,333800
16,117000	0,5	0,321450
16,125333	0,5	0,328900
16,133667	0,5	0,329000
16,142000	0,5	0,330150
16,150333	0,5	0,327550
16,158667	0,5	0,315250
16,167000	0,5	0,309800
16,175333	0,5	0,318050
16,183667	0,5	0,322250
16,192000	0,5	0,330800
16,200333	0,5	0,341900
16,208667	0,5	0,346750
16,217000	0,5	0,361700
16,225333	0,5	0,370250
16,233667	0,5	0,379650
16,242000	0,5	0,384300
16,250333	0,5	0,393650
16,258667	0,5	0,395100
16,267000	0,5	0,386650
16,275333	0,5	0,399450
16,283667	0,5	0,406750
16,292000	0,5	0,404900
16,300333	0,5	0,413300
16,308667	0,5	0,401650
16,317000	0,5	0,412200
16,325333	0,5	0,415050
16,333667	0,5	0,411700
16,342000	0,5	0,407900
16,350333	0,5	0,401750
16,358667	0,5	0,394800
16,367000	0,5	0,392350
16,375333	0,5	0,393900
16,383667	0,5	0,391350
16,392000	0,5	0,392950
16,400333	0,5	0,390300
16,408667	0,5	0,392750
16,417000	0,5	0,383300
16,425333	0,5	0,396300
16,433667	0,5	0,394700
16,442000	0,5	0,392050
16,450333	0,5	0,385450
16,458667	0,5	0,371700
16,467000	0,5	0,377800
16,475333	0,5	0,382000
16,483667	0,5	0,381300
16,492000	0,5	0,379850
16,500333	0,5	0,381950
16,508667	0,5	0,383050
16,517000	0,5	0,384150
16,525333	0,5	0,384000
16,533667	0,5	0,385150
16,542000	0,5	0,380550
16,550333	0,5	0,388200
16,558667	0,5	0,377850
16,567000	0,5	0,382350
16,575333	0,5	0,390950
16,583667	0,5	0,388350
16,592000	0,5	0,380850
16,600333	0,5	0,372850
16,608667	0,5	0,366550
16,617000	0,5	0,371350
16,625333	0,5	0,369750
16,633667	0,5	0,374700
16,642000	0,5	0,378700
16,650333	0,5	0,381100
16,658667	0,5	0,381300
16,667000	0,5	0,386150
16,675333	0,5	0,390750
16,683667	0,5	0,396550
16,692000	0,5	0,411900
16,700333	0,5	0,418350
16,708667	0,5	0,413400
16,717000	0,5	0,426150
16,725333	0,5	0,431150
16,733667	0,5	0,429300
16,742000	0,5	0,427350
16,750333	0,5	0,407150
16,758667	0,5	0,409250
16,767000	0,5	0,408800
16,775333	0,5	0,415650
16,783667	0,5	0,408300
16,792000	0,5	0,415800
16,800333	0,5	0,415950
16,808667	0,5	0,422500
16,817000	0,5	0,425800
16,825333	0,5	0,426550
16,833667	0,5	0,429500
16,842000	0,5	0,431850
16,850333	0,5	0,422700
16,858667	0,5	0,407600
16,867000	0,5	0,409900
16,875333	0,5	0,398300
16,883667	0,5	0,383800
16,892000	0,5	0,364700
16,900333	0,5	0,347100
16,908667	0,5	0,336800
16,917000	0,5	0,335400
16,925333	0,5	0,326200
16,933667	0,5	0,326300
16,942000	0,5	0,320250
16,950333	0,5	0,315400
16,958667	0,5	0,309200
16,967000	0,5	0,311450
16,975333	0,5	0,306100
16,983667	0,5	0,304400
16,992000	0,5	0,304050
17,000333	0,5	0,294450
17,008667	0,5	0,296300
17,017000	0,5	0,302400
17,025333	0,5	0,296700
17,033667	0,5	0,287450
17,042000	0,5	0,273150
17,050333	0,5	0,263650
17,058667	0,5	0,264600
17,067000	0,5	0,257750
17,075333	0,5	0,256950
17,083667	0,5	0,249500
17,092000	0,5	0,250150
17,100333	0,5	0,244750
17,108667	0,5	0,247200
17,117000	0,5	0,244050
17,125333	0,5	0,240350
17,133667	0,5	0,244950
17,142000	0,5	0,246350
17,150333	0,5	0,222100
17,158667	0,5	0,230000
17,167000	0,5	0,228450
17,175333	0,5	0,221650
17,183667	0,5	0,216300
17,192000	0,5	0,199750
17,200333	0,5	0,205300
17,208667	0,5	0,196400
17,217000	0,5	0,199900
17,225333	0,5	0,194100
17,233667	0,5	0,195800
17,242000	0,5	0,189800
17,250333	0,5	0,190150
17,258667	0,5	0,184050
17,267000	0,5	0,188500
17,275333	0,5	0,184100
17,283667	0,5	0,192700
17,292000	0,5	0,183900
17,300333	0,5	0,180850
17,308667	0,5	0,184400
17,317000	0,5	0,182950
17,325333	0,5	0,176700
17,333667	0,5	0,168600
17,342000	0,5	0,161800
17,350333	0,5	0,159050
17,358667	0,5	0,161500
17,367000	0,5	0,157450
17,375333	0,5	0,157850
17,383667	0,5	0,153850
17,392000	0,5	0,155850
17,400333	0,5	0,150100
17,408667	0,5	0,151650
17,417000	0,5	0,146700
17,425333	0,5	0,143850
17,433667	0,5	0,143900
17,442000	0,5	0,130550
17,450333	0,5	0,129100
17,458667	0,5	0,130750
17,467000	0,5	0,129150
17,475333	0,5	0,119800
17,483667	0,5	0,107050
17,492000	0,5	0,100250
17,500333	0,5	0,106600
17,508667	0,5	0,098200
17,517000	0,5	0,094500
17,525333	0,5	0,091750
17,533667	0,5	0,089400
17,542000	0,5	0,087650
17,550333	0,5	0,087050
17,558667	0,5	0,080600
17,567000	0,5	0,082450
17,575333	0,5	0,079650
17,583667	0,5	0,084300
17,592000	0,5	0,070350
17,600333	0,5	0,077800
17,608667	0,5	0,076550
17,617000	0,5	0,074300
17,625333	0,5	0,065350
17,633667	0,5	0,053000
17,642000	0,5	0,052500
17,650333	0,5	0,054350
17,658667	0,5	0,055850
17,667000	0,5	0,056950
17,675333	0,5	0,058800
17,683667	0,5	0,064850
17,692000	0,5	0,070550
17,700333	0,5	0,069550
17,708667	0,5	0,075200
17,717000	0,5	0,077450
17,725333	0,5	0,092400
17,733667	0,5	0,091100
17,742000	0,5	0,089300
17,750333	0,5	0,104550
17,758667	0,5	0,105450
17,767000	0,5	0,110050
17,775333	0,5	0,110500
17,783667	0,5	0,104750
17,792000	0,5	0,115800
17,800333	0,5	0,124650
17,808667	0,5	0,131850
17,817000	0,5	0,136850
17,825333	0,5	0,146900
17,833667	0,5	0,148500
17,842000	0,5	0,150800
17,850333	0,5	0,156800
17,858667	0,5	0,159500
17,867000	0,5	0,164300
17,875333	0,5	0,164450
17,883667	0,5	0,159650
17,892000	0,5	0,162400
17,900333	0,5	0,173150
17,908667	0,5	0,170800
17,917000	0,5	0,175350
17,925333	0,5	0,161550
17,933667	0,5	0,163000
17,942000	0,5	0,159900
17,950333	0,5	0,162350
17,958667	0,5	0,158600
17,967000	0,5	0,160250
17,975333	0,5	0,152650
17,983667	0,5	0,147600
17,992000	0,5	0,135450
18,000333	0,5	0,128600
18,008667	0,5	0,120650
18,017000	0,5	0,115900
18,025333	0,5	0,104850
18,033667	0,5	0,087750
18,042000	0,5	0,087200
18,050333	0,5	0,080000
18,058667	0,5	0,070750
18,067000	0,5	0,053050
18,075333	0,5	0,040750
18,083667	0,5	0,030700
18,092000	0,5	0,030750
18,100333	0,5	0,021600
18,108667	0,5	0,021050
18,117000	0,5	0,013150
18,125333	0,5	0,013250
18,133667	0,5	0,006400
18,142000	0,5	0,003000
18,150333	0,5	-0,001300
18,158667	0,5	-0,004600
18,167000	0,5	-0,001700
18,175333	0,5	-0,017600
18,183667	0,5	-0,014300
18,192000	0,5	-0,015550
18,200333	0,5	-0,018400
18,208667	0,5	-0,024900
18,217000	0,5	-0,036500
18,225333	0,5	-0,043800
18,233667	0,5	-0,040200
18,242000	0,5	-0,049650
18,250333	0,5	-0,045600
18,258667	0,5	-0,044800
18,267000	0,5	-0,046050
18,275333	0,5	-0,052400
18,283667	0,5	-0,048600
18,292000	0,5	-0,057450
18,300333	0,5	-0,057750
18,308667	0,5	-0,054500
18,317000	0,5	-0,046800
18,325333	0,5	-0,062400
18,333667	0,5	-0,055700
18,342000	0,5	-0,050950
18,350333	0,5	-0,051250
18,358667	0,5	-0,057800
18,367000	0,5	-0,075450
18,375333	0,5	-0,064200
18,383667	0,5	-0,069150
18,392000	0,5	-0,065300
18,400333	0,5	-0,068550
18,408667	0,5	-0,064650
18,417000	0,5	-0,064100
18,425333	0,5	-0,062850
18,433667	0,5	-0,072550
18,442000	0,5	-0,068250
18,450333	0,5	-0,066850
18,458667	0,5	-0,064150
18,467000	0,5	-0,062950
18,475333	0,5	-0,075100
18,483667	0,5	-0,066550
18,492000	0,5	-0,068800
18,500333	0,5	-0,074550
18,508667	0,5	-0,076450
18,517000	0,5	-0,090450
18,525333	0,5	-0,085050
18,533667	0,5	-0,086900
18,542000	0,5	-0,086600
18,550333	0,5	-0,082050
18,558667	0,5	-0,086050
18,567000	0,5	-0,082350
18,575333	0,5	-0,081200
18,583667	0,5	-0,077200
18,592000	0,5	-0,078750
18,600333	0,5	-0,078750
18,608667	0,5	-0,074650
18,617000	0,5	-0,074600
18,625333	0,5	-0,074850
18,633667	0,5	-0,067800
18,642000	0,5	-0,072250
18,650333	0,5	-0,075050
18,658667	0,5	-0,083150
18,667000	0,5	-0,090200
18,675333	0,5	-0,086550
18,683667	0,5	-0,087400
18,692000	0,5	-0,082200
18,700333	0,5	-0,085000
18,708667	0,5	-0,085650
18,717000	0,5	-0,090250
18,725333	0,5	-0,096850
18,733667	0,5	-0,102500
18,742000	0,5	-0,101250
18,750333	0,5	-0,103450
18,758667	0,5	-0,099850
18,767000	0,5	-0,114100
18,775333	0,5	-0,111200
18,783667	0,5	-0,111600
18,792000	0,5	-0,116650
18,800333	0,5	-0,131200
18,808667	0,5	-0,142300
18,817000	0,5	-0,146200
18,825333	0,5	-0,151250
18,833667	0,5	-0,151450
18,842000	0,5	-0,152850
18,850333	0,5	-0,150600
18,858667	0,5	-0,154050
18,867000	0,5	-0,148300
18,875333	0,5	-0,152550
18,883667	0,5	-0,151000
18,892000	0,5	-0,155500
18,900333	0,5	-0,148950
18,908667	0,5	-0,157350
18,917000	0,5	-0,160750
18,925333	0,5	-0,162950
18,933667	0,5	-0,163400
18,942000	0,5	-0,168750
18,950333	0,5	-0,180700
18,958667	0,5	-0,189800
18,967000	0,5	-0,193400
18,975333	0,5	-0,189150
18,983667	0,5	-0,190500
18,992000	0,5	-0,190500
19,000333	0,5	-0,192300
19,008667	0,5	-0,189150
19,017000	0,5	-0,186000
19,025333	0,5	-0,190700
19,033667	0,5	-0,193000
19,042000	0,5	-0,189650
19,050333	0,5	-0,186450
19,058667	0,5	-0,196700
19,067000	0,5	-0,190200
19,075333	0,5	-0,184550
19,083667	0,5	-0,189450
19,092000	0,5	-0,194850
19,100333	0,5	-0,209450
19,108667	0,5	-0,203250
19,117000	0,5	-0,200200
19,125333	0,5	-0,202500
19,133667	0,5	-0,201750
19,142000	0,5	-0,204350
19,150333	0,5	-0,198100
19,158667	0,5	-0,197450
19,167000	0,5	-0,190900
19,175333	0,5	-0,192050
19,183667	0,5	-0,186400
19,192000	0,5	-0,188450
19,200333	0,5	-0,184150
19,208667	0,5	-0,195900
19,217000	0,5	-0,183950
19,225333	0,5	-0,181950
19,233667	0,5	-0,180700
19,242000	0,5	-0,183050
19,250333	0,5	-0,193550
19,258667	0,5	-0,185900
19,267000	0,5	-0,181550
19,275333	0,5	-0,182700
19,283667	0,5	-0,179950
19,292000	0,5	-0,178700
19,300333	0,5	-0,174350
19,308667	0,5	-0,170100
19,317000	0,5	-0,173300
19,325333	0,5	-0,171400
19,333667	0,5	-0,165400
19,342000	0,5	-0,152950
19,350333	0,5	-0,150900
19,358667	0,5	-0,150550
19,367000	0,5	-0,141900
19,375333	0,5	-0,140000
19,383667	0,5	-0,149900
19,392000	0,5	-0,159950
19,400333	0,5	-0,166500
19,408667	0,5	-0,159300
19,417000	0,5	-0,166650
19,425333	0,5	-0,162300
19,433667	0,5	-0,162500
19,442000	0,5	-0,159450
19,450333	0,5	-0,159800
19,458667	0,5	-0,158700
19,467000	0,5	-0,158250
19,475333	0,5	-0,162850
19,483667	0,5	-0,161900
19,492000	0,5	-0,154450
19,500333	0,5	-0,164500
19,508667	0,5	-0,155150
19,517000	0,5	-0,153750
19,525333	0,5	-0,156400
19,533667	0,5	-0,154450
19,542000	0,5	-0,172900
19,550333	0,5	-0,164650
19,558667	0,5	-0,166650
19,567000	0,5	-0,163450
19,575333	0,5	-0,166300
19,583667	0,5	-0,163950
19,592000	0,5	-0,163400
19,600333	0,5	-0,161100
19,608667	0,5	-0,161750
19,617000	0,5	-0,162750
19,625333	0,5	-0,163400
19,633667	0,5	-0,165800
19,642000	0,5	-0,162350
19,650333	0,5	-0,167400
19,658667	0,5	-0,156100
19,667000	0,5	-0,155850
19,675333	0,5	-0,158000
19,683667	0,5	-0,166450
19,692000	0,5	-0,174850
19,700333	0,5	-0,179150
19,708667	0,5	-0,170050
19,717000	0,5	-0,176350
19,725333	0,5	-0,170650
19,733667	0,5	-0,172300
19,742000	0,5	-0,164050
19,750333	0,5	-0,165150
19,758667	0,5	-0,161900
19,767000	0,5	-0,162350
19,775333	0,5	-0,158750
19,783667	0,5	-0,149500
19,792000	0,5	-0,155000
19,800333	0,5	-0,154350
19,808667	0,5	-0,144250
19,817000	0,5	-0,148150
19,825333	0,5	-0,147450
19,833667	0,5	-0,159450
19,842000	0,5	-0,163600
19,850333	0,5	-0,153550
19,858667	0,5	-0,150750
19,867000	0,5	-0,147900
19,875333	0,5	-0,148400
19,883667	0,5	-0,138250
19,892000	0,5	-0,137800
19,900333	0,5	-0,131500
19,908667	0,5	-0,130800
19,917000	0,5	-0,130850
19,925333	0,5	-0,114650
19,933667	0,5	-0,108050
19,942000	0,5	-0,111600
19,950333	0,5	-0,102350
19,958667	0,5	-0,088250
19,967000	0,5	-0,084400
19,975333	0,5	-0,086000
19,983667	0,5	-0,092600
19,992000	0,5	-0,087700
20,000333	0,5	-0,094100
20,008667	0,5	-0,094250
20,017000	0,5	-0,101850
20,025333	0,5	-0,094750
20,033667	0,5	-0,103150
20,042000	0,5	-0,100450
20,050333	0,5	-0,104150
20,058667	0,5	-0,106650
20,067000	0,5	-0,102900
20,075333	0,5	-0,092600
20,083667	0,5	-0,102250
20,092000	0,5	-0,100800
20,100333	0,5	-0,096900
20,108667	0,5	-0,101100
20,117000	0,5	-0,105900
20,125333	0,5	-0,118250
20,133667	0,5	-0,119150
20,142000	0,5	-0,113800
20,150333	0,5	-0,102100
20,158667	0,5	-0,103900
20,167000	0,5	-0,098450
20,175333	0,5	-0,099050
20,183667	0,5	-0,096550
20,192000	0,5	-0,098550
20,200333	0,5	-0,100400
20,208667	0,5	-0,108400
20,217000	0,5	-0,103450
20,225333	0,5	-0,097550
20,233667	0,5	-0,114200
20,242000	0,5	-0,106950
20,250333	0,5	-0,104300
20,258667	0,5	-0,105650
20,267000	0,5	-0,106150
20,275333	0,5	-0,121400
20,283667	0,5	-0,123400
20,292000	0,5	-0,113900
20,300333	0,5	-0,116400
20,308667	0,5	-0,122650
20,317000	0,5	-0,122200
20,325333	0,5	-0,114450
20,333667	0,5	-0,118500
20,342000	0,5	-0,111850
20,350333	0,5	-0,115600
20,358667	0,5	-0,110550
20,367000	0,5	-0,102950
20,375333	0,5	-0,098100
20,383667	0,5	-0,107600
20,392000	0,5	-0,094100
20,400333	0,5	-0,094550
20,408667	0,5	-0,101400
20,417000	0,5	-0,105800
20,425333	0,5	-0,118100
20,433667	0,5	-0,100700
20,442000	0,5	-0,104250
20,450333	0,5	-0,100200
20,458667	0,5	-0,102000
20,467000	0,5	-0,094650
20,475333	0,5	-0,096050
20,483667	0,5	-0,086050
20,492000	0,5	-0,090000
20,500333	0,5	-0,086150
20,508667	0,5	-0,076850
20,517000	0,5	-0,059900
20,525333	0,5	-0,058850
20,533667	0,5	-0,057500
20,542000	0,5	-0,051150
20,550333	0,5	-0,050850
20,558667	0,5	-0,063150
20,567000	0,5	-0,070900
20,575333	0,5	-0,071450
20,583667	0,5	-0,067800
20,592000	0,5	-0,060750
20,600333	0,5	-0,062200
20,608667	0,5	-0,058600
20,617000	0,5	-0,060000
20,625333	0,5	-0,048700
20,633667	0,5	-0,045550
20,642000	0,5	-0,040700
20,650333	0,5	-0,039600
20,658667	0,5	-0,022650
20,667000	0,5	-0,012950
20,675333	0,5	-0,011200
20,683667	0,5	-0,007900
20,692000	0,5	-0,003400
20,700333	0,5	-0,010650
20,708667	0,5	-0,015550
20,717000	0,5	-0,021600
20,725333	0,5	-0,016850
20,733667	0,5	-0,009200
20,742000	0,5	-0,003950
20,750333	0,5	0,005400
20,758667	0,5	0,006600
20,767000	0,5	0,017600
20,775333	0,5	0,020900
20,783667	0,5	0,031250
20,792000	0,5	0,035950
20,800333	0,5	0,044550
20,808667	0,5	0,067250
20,817000	0,5	0,076600
20,825333	0,5	0,075950
20,833667	0,5	0,084450
20,842000	0,5	0,082450
20,850333	0,5	0,081500
20,858667	0,5	0,073200
20,867000	0,5	0,071300
20,875333	0,5	0,080400
20,883667	0,5	0,079200
20,892000	0,5	0,082450
20,900333	0,5	0,083500
20,908667	0,5	0,095950
20,917000	0,5	0,099900
20,925333	0,5	0,110600
20,933667	0,5	0,115500
20,942000	0,5	0,124700
20,950333	0,5	0,143800
20,958667	0,5	0,166300
20,967000	0,5	0,169950
20,975333	0,5	0,178950
20,983667	0,5	0,186750
20,992000	0,5	0,191800
21,000333	0,5	0,184300
21,008667	0,5	0,184950
21,017000	0,5	0,191350
21,025333	0,5	0,199400
21,033667	0,5	0,207850
21,042000	0,5	0,211750
21,050333	0,5	0,221150
21,058667	0,5	0,223050
21,067000	0,5	0,234550
21,075333	0,5	0,239150
21,083667	0,5	0,249950
21,092000	0,5	0,256200
21,100333	0,5	0,280200
21,108667	0,5	0,297700
21,117000	0,5	0,299950
21,125333	0,5	0,308050
21,133667	0,5	0,308200
21,142000	0,5	0,308400
21,150333	0,5	0,306550
21,158667	0,5	0,312150
21,167000	0,5	0,326300
21,175333	0,5	0,335600
21,183667	0,5	0,343050
21,192000	0,5	0,351500
21,200333	0,5	0,360850
21,208667	0,5	0,374550
21,217000	0,5	0,385700
21,225333	0,5	0,403050
21,233667	0,5	0,412650
21,242000	0,5	0,447650
21,250333	0,5	0,482750
21,258667	0,5	0,509350
21,267000	0,5	0,529050
21,275333	0,5	0,551150
21,283667	0,5	0,565050
21,292000	0,5	0,564000
21,300333	0,5	0,545400
21,308667	0,5	0,549550
21,317000	0,5	0,545150
21,325333	0,5	0,543150
21,333667	0,5	0,536750
21,342000	0,5	0,537550
21,350333	0,5	0,543300
21,358667	0,5	0,548000
21,367000	0,5	0,562000
21,375333	0,5	0,571300
21,383667	0,5	0,590700
21,392000	0,5	0,618300
21,400333	0,5	0,635700
21,408667	0,5	0,635150
21,417000	0,5	0,645500
21,425333	0,5	0,641800
21,433667	0,5	0,648450
21,442000	0,5	0,639050
21,450333	0,5	0,643750
21,458667	0,5	0,667900
21,467000	0,5	0,677300
21,475333	0,5	0,693200
21,483667	0,5	0,705250
21,492000	0,5	0,720200
21,500333	0,5	0,735750
21,508667	0,5	0,756650
21,517000	0,5	0,766600
21,525333	0,5	0,777900
21,533667	0,5	0,803600
21,542000	0,5	0,829800
21,550333	0,5	0,845950
21,558667	0,5	0,850450
21,567000	0,5	0,855600
21,575333	0,5	0,862300
21,583667	0,5	0,858550
21,592000	0,5	0,857950
21,600333	0,5	0,871800
21,608667	0,5	0,891700
21,617000	0,5	0,912400
21,625333	0,5	0,931650
21,633667	0,5	0,950950
21,642000	0,5	0,969900
21,650333	0,5	0,986700
21,658667	0,5	0,996300
21,667000	0,5	1,012900
21,675333	0,5	1,019600
21,683667	0,5	1,054000
21,692000	0,5	1,080000
21,700333	0,5	1,089700
21,708667	0,5	1,100450
21,717000	0,5	1,112500
21,725333	0,5	1,122250
21,733667	0,5	1,127550
21,742000	0,5	1,135100
21,750333	0,5	1,156000
21,758667	0,5	1,183050
21,767000	0,5	1,207700
21,775333	0,5	1,235150
21,783667	0,5	1,261250
21,792000	0,5	1,283400
21,800333	0,5	1,310050
21,808667	0,5	1,342300
21,817000	0,5	1,367650
21,825333	0,5	1,410050
21,833667	0,5	1,445450
21,842000	0,5	1,473500
21,850333	0,5	1,491450
21,858667	0,5	1,517400
21,867000	0,5	1,527600
21,875333	0,5	1,540650
21,883667	0,5	1,540800
21,892000	0,5	1,557800
21,900333	0,5	1,585400
21,908667	0,5	1,602350
21,917000	0,5	1,620800
21,925333	0,5	1,636450
21,933667	0,5	1,655900
21,942000	0,5	1,669450
21,950333	0,5	1,698250
21,958667	0,5	1,714600
21,967000	0,5	1,740250
21,975333	0,5	1,776800
21,983667	0,5	1,800500
21,992000	0,5	1,809850
22,000333	0,5	1,841500
22,008667	0,5	1,864900
22,017000	0,5	1,885700
22,025333	0,5	1,905050
22,033667	0,5	1,927850
22,042000	0,5	1,965750
22,050333	0,5	1,997350
22,058667	0,5	2,036350
22,067000	0,5	2,071850
22,075333	0,5	2,111600
22,083667	0,5	2,138000
22,092000	0,5	2,177750
22,100333	0,5	2,203700
22,108667	0,5	2,233600
22,117000	0,5	2,253600
22,125333	0,5	2,296850
22,133667	0,5	2,308250
22,142000	0,5	2,352400
22,150333	0,5	2,383000
22,158667	0,5	2,416350
22,167000	0,5	2,439400
22,175333	0,5	2,460050
22,183667	0,5	2,499550
22,192000	0,5	2,533100
22,200333	0,5	2,567100
22,208667	0,5	2,599900
22,217000	0,5	2,640250
22,225333	0,5	2,677050
22,233667	0,5	2,721700
22,242000	0,5	2,763450
22,250333	0,5	2,806900
22,258667	0,5	2,847700
22,267000	0,5	2,891650
22,275333	0,5	2,932150
22,283667	0,5	2,974850
22,292000	0,5	3,038750
22,300333	0,5	3,093850
22,308667	0,5	3,146150
22,317000	0,5	3,191150
22,325333	0,5	3,230550
22,333667	0,5	3,281500
22,342000	0,5	3,333300
22,350333	0,5	3,372350
22,358667	0,5	3,417200
22,367000	0,5	3,457950
22,375333	0,5	3,500350
22,383667	0,5	3,543650
22,392000	0,5	3,598650
22,400333	0,5	3,642450
22,408667	0,5	3,688750
22,417000	0,5	3,729550
22,425333	0,5	3,785550
22,433667	0,5	3,859050
22,442000	0,5	3,925300
22,450333	0,5	3,985650
22,458667	0,5	4,044050
22,467000	0,5	4,094100
22,475333	0,5	4,147600
22,483667	0,5	4,225500
22,492000	0,5	4,294600
22,500333	0,5	4,367900
22,508667	0,5	4,438000
22,517000	0,5	4,503500
22,525333	0,5	4,564050
22,533667	0,5	4,628600
22,542000	0,5	4,683550
22,550333	0,5	4,746250
22,558667	0,5	4,778300
22,567000	0,5	4,851200
22,575333	0,5	4,915250
22,583667	0,5	5,000450
22,592000	0,5	5,050550
22,600333	0,5	5,101900
22,608667	0,5	5,140000
22,617000	0,5	5,178300
22,625333	0,5	5,226250
22,633667	0,5	5,270450
22,642000	0,5	5,305850
22,650333	0,5	5,335850
22,658667	0,5	5,365400
22,667000	0,5	5,383150
22,675333	0,5	5,405000
22,683667	0,5	5,413750
22,692000	0,5	5,421350
22,700333	0,5	5,407250
22,708667	0,5	5,376200
22,717000	0,5	5,366450
22,725333	0,5	5,357550
22,733667	0,5	5,318900
22,742000	0,5	5,255250
22,750333	0,5	5,178000
22,758667	0,5	5,086300
22,767000	0,5	4,986550
22,775333	0,5	4,893200
22,783667	0,5	4,800850
22,792000	0,5	4,691550
22,800333	0,5	4,585100
22,808667	0,5	4,469650
22,817000	0,5	4,356850
22,825333	0,5	4,236150
22,833667	0,5	4,108000
22,842000	0,5	3,971900
22,850333	0,5	3,806400
22,858667	0,5	3,642400
22,867000	0,5	3,511650
22,875333	0,5	3,363100
22,883667	0,5	3,192800
22,892000	0,5	3,021650
22,900333	0,5	2,847550
22,908667	0,5	2,675450
22,917000	0,5	2,499450
22,925333	0,5	2,319950
22,933667	0,5	2,154100
22,942000	0,5	1,981850
22,950333	0,5	1,827000
22,958667	0,5	1,665400
22,967000	0,5	1,512700
22,975333	0,5	1,354100
22,983667	0,5	1,213550
22,992000	0,5	1,071800
23,000333	0,5	0,934450
23,008667	0,5	0,803000
23,017000	0,5	0,652500
23,025333	0,5	0,498150
23,033667	0,5	0,371350
23,042000	0,5	0,257400
23,050333	0,5	0,153750
23,058667	0,5	0,034300
23,067000	0,5	-0,082650
23,075333	0,5	-0,174650
23,083667	0,5	-0,273500
23,092000	0,5	-0,358400
23,100333	0,5	-0,448150
23,108667	0,5	-0,525300
23,117000	0,5	-0,612250
23,125333	0,5	-0,677750
23,133667	0,5	-0,758050
23,142000	0,5	-0,787050
23,150333	0,5	-0,858600
23,158667	0,5	-0,920700
23,167000	0,5	-1,017200
23,175333	0,5	-1,081900
23,183667	0,5	-1,136200
23,192000	0,5	-1,179250
23,200333	0,5	-1,212450
23,208667	0,5	-1,266650
23,217000	0,5	-1,307900
23,225333	0,5	-1,342300
23,233667	0,5	-1,369350
23,242000	0,5	-1,399800
23,250333	0,5	-1,424100
23,258667	0,5	-1,449550
23,267000	0,5	-1,470850
23,275333	0,5	-1,495550
23,283667	0,5	-1,510600
23,292000	0,5	-1,533450
23,300333	0,5	-1,532700
23,308667	0,5	-1,539750
23,317000	0,5	-1,587800
23,325333	0,5	-1,618650
23,333667	0,5	-1,625250
23,342000	0,5	-1,631800
23,350333	0,5	-1,632200
23,358667	0,5	-1,647500
23,367000	0,5	-1,649150
23,375333	0,5	-1,655500
23,383667	0,5	-1,654600
23,392000	0,5	-1,653100
23,400333	0,5	-1,649850
23,408667	0,5	-1,651500
23,417000	0,5	-1,648850
23,425333	0,5	-1,641700
23,433667	0,5	-1,630950
23,442000	0,5	-1,680350
23,450333	0,5	-1,633450
23,458667	0,5	-1,611750
23,467000	0,5	-1,623150
23,475333	0,5	-1,628700
23,483667	0,5	-1,626450
23,492000	0,5	-1,613850
23,500333	0,5	-1,609800
23,508667	0,5	-1,604150
23,517000	0,5	-1,603700
23,525333	0,5	-1,590650
23,533667	0,5	-1,584900
23,542000	0,5	-1,573250
23,550333	0,5	-1,565300
23,558667	0,5	-1,554500
23,567000	0,5	-1,543850
23,575333	0,5	-1,533700
23,583667	0,5	-1,587050
23,592000	0,5	-1,569750
23,600333	0,5	-1,527200
23,608667	0,5	-1,485550
23,617000	0,5	-1,473200
23,625333	0,5	-1,474200
23,633667	0,5	-1,462500
23,642000	0,5	-1,453950
23,650333	0,5	-1,444000
23,658667	0,5	-1,432700
23,667000	0,5	-1,423000
23,675333	0,5	-1,411350
23,683667	0,5	-1,400500
23,692000	0,5	-1,391400
23,700333	0,5	-1,378900
23,708667	0,5	-1,367000
23,717000	0,5	-1,355250
23,725333	0,5	-1,346800
23,733667	0,5	-1,447450
23,742000	0,5	-1,408350
23,750333	0,5	-1,356750
23,758667	0,5	-1,309850
23,767000	0,5	-1,291450
23,775333	0,5	-1,277800
23,783667	0,5	-1,268850
23,792000	0,5	-1,260500
23,800333	0,5	-1,245700
23,808667	0,5	-1,231600
23,817000	0,5	-1,215150
23,825333	0,5	-1,202150
23,833667	0,5	-1,185350
23,842000	0,5	-1,173100
23,850333	0,5	-1,156500
23,858667	0,5	-1,145050
23,867000	0,5	-1,129500
23,875333	0,5	-1,167250
23,883667	0,5	-1,220200
23,892000	0,5	-1,189950
23,900333	0,5	-1,124750
23,908667	0,5	-1,088450
23,917000	0,5	-1,069350
23,925333	0,5	-1,061650
23,933667	0,5	-1,063450
23,942000	0,5	-1,047900
23,950333	0,5	-1,037100
23,958667	0,5	-1,014850
23,967000	0,5	-1,003150
23,975333	0,5	-0,986050
23,983667	0,5	-0,973300
23,992000	0,5	-0,953700
24,000333	0,5	-0,939200
24,008667	0,5	-0,923000
24,017000	0,5	-0,911250
24,025333	0,5	-1,015200
24,033667	0,5	-0,989200
24,042000	0,5	-0,956200
24,050333	0,5	-0,898300
24,058667	0,5	-0,862350
24,067000	0,5	-0,850550
24,075333	0,5	-0,838650
24,083667	0,5	-0,839900
24,092000	0,5	-0,824300
24,100333	0,5	-0,805050
24,108667	0,5	-0,793700
24,117000	0,5	-0,784200
24,125333	0,5	-0,775450
24,133667	0,5	-0,759400
24,142000	0,5	-0,744450
24,150333	0,5	-0,732250
24,158667	0,5	-0,722100
24,167000	0,5	-0,722050
24,175333	0,5	-0,816000
24,183667	0,5	-0,765900
24,192000	0,5	-0,738100
24,200333	0,5	-0,683600
24,208667	0,5	-0,670650
24,217000	0,5	-0,651250
24,225333	0,5	-0,650350
24,233667	0,5	-0,646000
24,242000	0,5	-0,622800
24,250333	0,5	-0,608000
24,258667	0,5	-0,599650
24,267000	0,5	-0,585150
24,275333	0,5	-0,574700
24,283667	0,5	-0,564450
24,292000	0,5	-0,550350
24,300333	0,5	-0,539950
24,308667	0,5	-0,528000
24,317000	0,5	-0,587200
24,325333	0,5	-0,597000
24,333667	0,5	-0,572500
24,342000	0,5	-0,537600
24,350333	0,5	-0,507100
24,358667	0,5	-0,492150
24,367000	0,5	-0,487000
24,375333	0,5	-0,481500
24,383667	0,5	-0,482750
24,392000	0,5	-0,463400
24,400333	0,5	-0,456050
24,408667	0,5	-0,442700
24,417000	0,5	-0,441900
24,425333	0,5	-0,427000
24,433667	0,5	-0,415050
24,442000	0,5	-0,405700
24,450333	0,5	-0,395750
24,458667	0,5	-0,391250
24,467000	0,5	-0,445750
24,475333	0,5	-0,430200
24,483667	0,5	-0,413900
24,492000	0,5	-0,382350
24,500333	0,5	-0,363650
24,508667	0,5	-0,354150
24,517000	0,5	-0,354200
24,525333	0,5	-0,365900
24,533667	0,5	-0,356750
24,542000	0,5	-0,349650
24,550333	0,5	-0,339650
24,558667	0,5	-0,333400
24,567000	0,5	-0,325100
24,575333	0,5	-0,316700
24,583667	0,5	-0,306700
24,592000	0,5	-0,298500
24,600333	0,5	-0,291750
24,608667	0,5	-0,291850
24,617000	0,5	-0,339750
24,625333	0,5	-0,313650
24,633667	0,5	-0,299250
24,642000	0,5	-0,273150
24,650333	0,5	-0,262200
24,658667	0,5	-0,259250
24,667000	0,5	-0,258950
24,675333	0,5	-0,259350
24,683667	0,5	-0,258000
24,692000	0,5	-0,247300
24,700333	0,5	-0,243300
24,708667	0,5	-0,242000
24,717000	0,5	-0,241050
24,725333	0,5	-0,231300
24,733667	0,5	-0,229650
24,742000	0,5	-0,219400
24,750333	0,5	-0,215500
24,758667	0,5	-0,232700
24,767000	0,5	-0,242200
24,775333	0,5	-0,230000
24,783667	0,5	-0,212500
24,792000	0,5	-0,198200
24,800333	0,5	-0,191500
24,808667	0,5	-0,188800
24,817000	0,5	-0,193450
24,825333	0,5	-0,194000
24,833667	0,5	-0,184250
24,842000	0,5	-0,184800
24,850333	0,5	-0,177000
24,858667	0,5	-0,174550
24,867000	0,5	-0,169850
24,875333	0,5	-0,169400
24,883667	0,5	-0,159450
24,892000	0,5	-0,159500
24,900333	0,5	-0,158350
24,908667	0,5	-0,181750
24,917000	0,5	-0,172500
24,925333	0,5	-0,170550
24,933667	0,5	-0,155350
24,942000	0,5	-0,147350
24,950333	0,5	-0,143550
24,958667	0,5	-0,141400
24,967000	0,5	-0,149150
24,975333	0,5	-0,143950
24,983667	0,5	-0,137550
24,992000	0,5	-0,134800
25,000333	0,5	-0,133000
25,008667	0,5	-0,129950
25,017000	0,5	-0,130700
25,025333	0,5	-0,125900
25,033667	0,5	-0,123000
25,042000	0,5	-0,121500
25,050333	0,5	-0,120250
25,058667	0,5	-0,129200
25,067000	0,5	-0,124050
25,075333	0,5	-0,121500
25,083667	0,5	-0,115000
25,092000	0,5	-0,108250
25,100333	0,5	-0,109350
25,108667	0,5	-0,110400
25,117000	0,5	-0,114250
25,125333	0,5	-0,107750
25,133667	0,5	-0,104050
25,142000	0,5	-0,103700
25,150333	0,5	-0,100850
25,158667	0,5	-0,100900
25,167000	0,5	-0,098100
25,175333	0,5	-0,097250
25,183667	0,5	-0,093600
25,192000	0,5	-0,092950
25,200333	0,5	-0,102850
25,208667	0,5	-0,099300
25,217000	0,5	-0,093950
25,225333	0,5	-0,093950
25,233667	0,5	-0,089900
25,242000	0,5	-0,082950
25,250333	0,5	-0,087350
25,258667	0,5	-0,088800
25,267000	0,5	-0,088450
25,275333	0,5	-0,085100
25,283667	0,5	-0,084550
25,292000	0,5	-0,084450
25,300333	0,5	-0,086500
25,308667	0,5	-0,084950
25,317000	0,5	-0,085300
25,325333	0,5	-0,082250
25,333667	0,5	-0,081650
25,342000	0,5	-0,080550
25,350333	0,5	-0,087450
25,358667	0,5	-0,079950
25,367000	0,5	-0,077600
25,375333	0,5	-0,078250
25,383667	0,5	-0,076400
25,392000	0,5	-0,074900
25,400333	0,5	-0,078150
25,408667	0,5	-0,077900
25,417000	0,5	-0,078250
25,425333	0,5	-0,073500
25,433667	0,5	-0,073350
25,442000	0,5	-0,072700
25,450333	0,5	-0,078250
25,458667	0,5	-0,079900
25,467000	0,5	-0,075150
25,475333	0,5	-0,075050
25,483667	0,5	-0,075150
25,492000	0,5	-0,075400
25,500333	0,5	-0,075500
25,508667	0,5	-0,071450
25,517000	0,5	-0,071550
25,525333	0,5	-0,069800
25,533667	0,5	-0,071100
25,542000	0,5	-0,072850
25,550333	0,5	-0,070350
25,558667	0,5	-0,071150
25,567000	0,5	-0,070600
25,575333	0,5	-0,067350
25,583667	0,5	-0,067550
25,592000	0,5	-0,068700
25,600333	0,5	-0,072250
25,608667	0,5	-0,069700
25,617000	0,5	-0,069550
25,625333	0,5	-0,071350
25,633667	0,5	-0,069750
25,642000	0,5	-0,067900
25,650333	0,5	-0,066300
25,658667	0,5	-0,065650
25,667000	0,5	-0,064050
25,675333	0,5	-0,068550
25,683667	0,5	-0,064950
25,692000	0,5	-0,066600
25,700333	0,5	-0,065200
25,708667	0,5	-0,063600
25,717000	0,5	-0,061300
25,725333	0,5	-0,063350
25,733667	0,5	-0,061200
25,742000	0,5	-0,061850
25,750333	0,5	-0,062200
25,758667	0,5	-0,061400
25,767000	0,5	-0,059750
25,775333	0,5	-0,061750
25,783667	0,5	-0,062750
25,792000	0,5	-0,058800
25,800333	0,5	-0,058450
25,808667	0,5	-0,055450
25,817000	0,5	-0,058900
25,825333	0,5	-0,061850
25,833667	0,5	-0,058750
25,842000	0,5	-0,058650
25,850333	0,5	-0,057300
25,858667	0,5	-0,054250
25,867000	0,5	-0,055150
25,875333	0,5	-0,053200
25,883667	0,5	-0,053250
25,892000	0,5	-0,049500
25,900333	0,5	-0,056450
25,908667	0,5	-0,054050
25,917000	0,5	-0,053400
25,925333	0,5	-0,053550
25,933667	0,5	-0,050350
25,942000	0,5	-0,050350
25,950333	0,5	-0,051600
25,958667	0,5	-0,044100
25,967000	0,5	-0,051450
25,975333	0,5	-0,050650
25,983667	0,5	-0,050600
25,992000	0,5	-0,049050
26,000333	0,5	-0,040500
