File Path	chrom://chromeleon01/ikbm_chromeleon/2022/ICS-5000/ED1/Esteban/20220612_Cell_7_4_eg.seq/794.smp/ED_1.channel/ED_1.chm
Channel	ED_1

Injection Information:
Data Vault	ikbm_chromeleon
Injection	7_24h-EGI-pH6_3
Injection Number	21
Position	RB8
Comment	
Processing Method	Stop sequence after Cell Death
Instrument Method	ICS5000_PA200_FullNative_Ox_26min_ED1
Type	Unknown
Status	Finished
Injection Date	13.06.2022
Injection Time	01:34:14
Injection Volume (µl)	5,0
Dilution Factor	1,0000
Weight	1,0000

Chromatogram Data Information:
Time Min. (min)	0,000167
Time Max. (min)	26,000167
Data Points	3121
Detector	EDet1
Generating Data System	Chromeleon 7.2.9.11323
Exporting Data System	Chromeleon 7.2.9.0
Operator	Instrument Controller
Signal Quantity	
Signal Unit	nC
Signal Min.	-1,563950
Signal Max.	2 563,282538
Channel	ED_1
Driver Name	DC-5000
Channel Type	Evaluation
Min. Step (s)	0,5
Max. Step (s)	0,5
Average Step (s)	0,5

Signal Parameter Information:
Signal Info	

Chromatogram Data:
Time (min)	Step (s)	Value (nC)
0,000167	n.a.	-0,031200
0,008500	0,5	-0,023350
0,016833	0,5	-0,018600
0,025167	0,5	-0,009400
0,033500	0,5	-0,004100
0,041833	0,5	0,006800
0,050167	0,5	-0,003100
0,058500	0,5	0,008300
0,066833	0,5	-0,000250
0,075167	0,5	0,004200
0,083500	0,5	0,002900
0,091833	0,5	0,000750
0,100167	0,5	-0,008650
0,108500	0,5	0,026100
0,116833	0,5	0,008350
0,125167	0,5	-0,004550
0,133500	0,5	-0,003550
0,141833	0,5	0,000950
0,150167	0,5	0,021850
0,158500	0,5	0,015500
0,166833	0,5	0,016650
0,175167	0,5	0,015650
0,183500	0,5	0,021250
0,191833	0,5	0,015200
0,200167	0,5	0,018300
0,208500	0,5	0,014400
0,216833	0,5	0,011800
0,225167	0,5	0,006100
0,233500	0,5	0,013800
0,241833	0,5	0,012550
0,250167	0,5	0,009900
0,258500	0,5	0,026450
0,266833	0,5	0,006600
0,275167	0,5	0,002200
0,283500	0,5	0,005900
0,291833	0,5	0,033300
0,300167	0,5	0,073900
0,308500	0,5	0,056800
0,316833	0,5	0,031400
0,325167	0,5	0,013650
0,333500	0,5	0,009950
0,341833	0,5	0,010650
0,350167	0,5	0,005850
0,358500	0,5	0,012950
0,366833	0,5	0,007150
0,375167	0,5	0,012350
0,383500	0,5	0,014350
0,391833	0,5	0,014400
0,400167	0,5	0,011150
0,408500	0,5	0,027850
0,416833	0,5	0,003400
0,425167	0,5	0,004750
0,433500	0,5	0,002250
0,441833	0,5	0,017800
0,450167	0,5	0,033800
0,458500	0,5	0,026150
0,466833	0,5	0,018750
0,475167	0,5	0,019450
0,483500	0,5	0,019850
0,491833	0,5	0,026400
0,500167	0,5	0,024600
0,508500	0,5	0,018350
0,516833	0,5	0,020250
0,525167	0,5	0,016700
0,533500	0,5	0,019050
0,541833	0,5	0,008550
0,550167	0,5	0,022250
0,558500	0,5	0,020150
0,566833	0,5	0,011200
0,575167	0,5	0,011550
0,583500	0,5	0,017700
0,591833	0,5	0,032150
0,600167	0,5	0,047750
0,608500	0,5	0,037900
0,616833	0,5	0,045750
0,625167	0,5	0,039250
0,633500	0,5	0,044850
0,641833	0,5	0,040200
0,650167	0,5	0,040950
0,658500	0,5	0,038650
0,666833	0,5	0,037300
0,675167	0,5	0,042300
0,683500	0,5	0,030150
0,691833	0,5	0,030950
0,700167	0,5	0,041200
0,708500	0,5	0,034650
0,716833	0,5	0,027150
0,725167	0,5	0,027350
0,733500	0,5	0,042850
0,741833	0,5	0,060700
0,750167	0,5	0,064400
0,758500	0,5	0,064800
0,766833	0,5	0,056100
0,775167	0,5	0,064650
0,783500	0,5	0,061700
0,791833	0,5	0,064550
0,800167	0,5	0,062000
0,808500	0,5	0,063350
0,816833	0,5	0,062200
0,825167	0,5	0,057600
0,833500	0,5	0,053650
0,841833	0,5	0,060500
0,850167	0,5	0,064700
0,858500	0,5	0,056700
0,866833	0,5	0,054800
0,875167	0,5	0,062550
0,883500	0,5	0,078000
0,891833	0,5	0,085850
0,900167	0,5	0,093950
0,908500	0,5	0,084350
0,916833	0,5	0,090100
0,925167	0,5	0,089100
0,933500	0,5	0,090900
0,941833	0,5	0,086600
0,950167	0,5	0,089550
0,958500	0,5	0,084850
0,966833	0,5	0,092500
0,975167	0,5	0,093250
0,983500	0,5	0,085250
0,991833	0,5	0,098950
1,000167	0,5	0,100500
1,008500	0,5	0,087750
1,016833	0,5	0,089450
1,025167	0,5	0,091650
1,033500	0,5	0,109000
1,041833	0,5	0,117450
1,050167	0,5	0,109100
1,058500	0,5	0,111900
1,066833	0,5	0,115550
1,075167	0,5	0,124950
1,083500	0,5	0,115700
1,091833	0,5	0,120900
1,100167	0,5	0,113150
1,108500	0,5	0,118150
1,116833	0,5	0,117400
1,125167	0,5	0,115300
1,133500	0,5	0,103500
1,141833	0,5	0,128000
1,150167	0,5	0,112600
1,158500	0,5	0,113300
1,166833	0,5	0,113600
1,175167	0,5	0,118950
1,183500	0,5	0,136100
1,191833	0,5	0,133850
1,200167	0,5	0,128000
1,208500	0,5	0,132250
1,216833	0,5	0,134350
1,225167	0,5	0,133600
1,233500	0,5	0,134400
1,241833	0,5	0,126850
1,250167	0,5	0,127350
1,258500	0,5	0,127950
1,266833	0,5	0,130750
1,275167	0,5	0,110900
1,283500	0,5	0,113150
1,291833	0,5	0,126100
1,300167	0,5	0,111650
1,308500	0,5	0,107300
1,316833	0,5	0,112000
1,325167	0,5	0,112450
1,333500	0,5	0,131450
1,341833	0,5	0,123550
1,350167	0,5	0,126450
1,358500	0,5	0,124200
1,366833	0,5	0,121950
1,375167	0,5	0,116750
1,383500	0,5	0,111350
1,391833	0,5	0,106700
1,400167	0,5	0,105450
1,408500	0,5	0,106300
1,416833	0,5	0,100400
1,425167	0,5	0,089200
1,433500	0,5	0,089550
1,441833	0,5	0,090550
1,450167	0,5	0,079450
1,458500	0,5	0,079900
1,466833	0,5	0,081100
1,475167	0,5	0,090250
1,483500	0,5	0,099400
1,491833	0,5	0,092100
1,500167	0,5	0,079650
1,508500	0,5	0,080950
1,516833	0,5	0,072750
1,525167	0,5	0,072000
1,533500	0,5	0,066250
1,541833	0,5	0,065250
1,550167	0,5	0,068850
1,558500	0,5	0,088950
1,566833	0,5	0,147850
1,575167	0,5	0,394800
1,583500	0,5	2,481350
1,591833	0,5	13,273150
1,600167	0,5	54,200801
1,608500	0,5	183,232553
1,616833	0,5	487,664007
1,625167	0,5	945,600514
1,633500	0,5	1 343,193370
1,641833	0,5	1 463,292272
1,650167	0,5	1 290,270269
1,658500	0,5	967,468314
1,666833	0,5	671,310410
1,675167	0,5	463,718307
1,683500	0,5	333,273555
1,691833	0,5	253,280804
1,700167	0,5	209,619753
1,708500	0,5	184,108803
1,716833	0,5	161,651052
1,725167	0,5	137,455302
1,733500	0,5	115,521452
1,741833	0,5	100,703952
1,750167	0,5	94,568651
1,758500	0,5	94,876701
1,766833	0,5	97,648401
1,775167	0,5	99,218101
1,783500	0,5	97,223101
1,791833	0,5	91,611651
1,800167	0,5	84,104301
1,808500	0,5	76,652501
1,816833	0,5	70,317751
1,825167	0,5	65,780251
1,833500	0,5	63,888951
1,841833	0,5	65,517151
1,850167	0,5	69,302301
1,858500	0,5	71,877401
1,866833	0,5	74,745001
1,875167	0,5	88,833451
1,883500	0,5	134,973602
1,891833	0,5	259,099404
1,900167	0,5	524,227758
1,908500	0,5	866,805913
1,916833	0,5	1 043,271666
1,925167	0,5	945,859514
1,933500	0,5	699,665910
1,941833	0,5	467,361057
1,950167	0,5	311,949755
1,958500	0,5	223,037303
1,966833	0,5	176,863703
1,975167	0,5	151,017102
1,983500	0,5	130,612502
1,991833	0,5	113,116252
2,000167	0,5	99,826601
2,008500	0,5	88,695351
2,016833	0,5	78,509101
2,025167	0,5	70,875701
2,033500	0,5	66,687901
2,041833	0,5	64,801201
2,050167	0,5	63,875101
2,058500	0,5	64,178251
2,066833	0,5	64,940851
2,075167	0,5	62,642151
2,083500	0,5	56,556051
2,091833	0,5	49,818051
2,100167	0,5	44,669551
2,108500	0,5	41,167451
2,116833	0,5	38,819101
2,125167	0,5	37,268251
2,133500	0,5	36,169551
2,141833	0,5	35,331001
2,150167	0,5	34,695501
2,158500	0,5	34,168251
2,166833	0,5	33,651351
2,175167	0,5	33,794301
2,183500	0,5	36,691251
2,191833	0,5	40,726051
2,200167	0,5	39,085551
2,208500	0,5	33,809851
2,216833	0,5	30,339950
2,225167	0,5	28,750300
2,233500	0,5	28,111300
2,241833	0,5	27,941350
2,250167	0,5	27,996000
2,258500	0,5	28,198700
2,266833	0,5	28,669650
2,275167	0,5	29,880750
2,283500	0,5	32,528000
2,291833	0,5	37,050201
2,300167	0,5	44,017951
2,308500	0,5	57,943301
2,316833	0,5	87,942051
2,325167	0,5	137,189602
2,333500	0,5	208,558553
2,341833	0,5	347,791255
2,350167	0,5	784,008862
2,358500	0,5	1 555,910223
2,366833	0,5	2 310,992734
2,375167	0,5	2 563,282538
2,383500	0,5	2 556,953938
2,391833	0,5	2 406,944536
2,400167	0,5	2 162,001682
2,408500	0,5	1 863,466678
2,416833	0,5	1 561,406723
2,425167	0,5	1 294,395419
2,433500	0,5	1 062,686616
2,441833	0,5	861,430113
2,450167	0,5	693,589860
2,458500	0,5	562,712058
2,466833	0,5	470,670107
2,475167	0,5	409,003506
2,483500	0,5	368,912505
2,491833	0,5	337,143705
2,500167	0,5	302,887505
2,508500	0,5	262,944354
2,516833	0,5	221,166303
2,525167	0,5	183,279603
2,533500	0,5	152,705852
2,541833	0,5	129,843802
2,550167	0,5	113,319702
2,558500	0,5	101,455302
2,566833	0,5	92,831551
2,575167	0,5	86,577951
2,583500	0,5	82,074401
2,591833	0,5	78,786001
2,600167	0,5	75,970701
2,608500	0,5	72,860901
2,616833	0,5	69,061051
2,625167	0,5	64,685351
2,633500	0,5	60,209201
2,641833	0,5	56,165701
2,650167	0,5	52,847901
2,658500	0,5	50,347501
2,666833	0,5	48,561501
2,675167	0,5	47,364101
2,683500	0,5	46,927601
2,691833	0,5	47,874551
2,700167	0,5	51,212901
2,708500	0,5	57,252301
2,716833	0,5	64,168851
2,725167	0,5	68,393901
2,733500	0,5	67,615001
2,741833	0,5	62,391751
2,750167	0,5	54,953301
2,758500	0,5	47,461051
2,766833	0,5	41,269551
2,775167	0,5	36,712901
2,783500	0,5	33,525600
2,791833	0,5	31,225550
2,800167	0,5	29,453800
2,808500	0,5	27,989500
2,816833	0,5	26,704900
2,825167	0,5	25,564250
2,833500	0,5	24,560150
2,841833	0,5	23,679700
2,850167	0,5	22,885400
2,858500	0,5	22,157300
2,866833	0,5	21,472700
2,875167	0,5	20,876600
2,883500	0,5	20,384100
2,891833	0,5	19,972150
2,900167	0,5	19,571200
2,908500	0,5	19,164450
2,916833	0,5	18,725650
2,925167	0,5	18,303100
2,933500	0,5	17,946250
2,941833	0,5	17,662300
2,950167	0,5	17,397600
2,958500	0,5	17,113350
2,966833	0,5	16,793400
2,975167	0,5	16,484800
2,983500	0,5	16,187850
2,991833	0,5	15,922500
3,000167	0,5	15,712100
3,008500	0,5	15,563550
3,016833	0,5	15,460250
3,025167	0,5	15,359200
3,033500	0,5	15,266100
3,041833	0,5	15,211250
3,050167	0,5	15,306000
3,058500	0,5	15,641150
3,066833	0,5	16,097150
3,075167	0,5	16,442200
3,083500	0,5	16,451800
3,091833	0,5	16,057300
3,100167	0,5	15,387150
3,108500	0,5	14,604600
3,116833	0,5	13,878850
3,125167	0,5	13,282950
3,133500	0,5	12,833250
3,141833	0,5	12,489600
3,150167	0,5	12,225500
3,158500	0,5	12,005050
3,166833	0,5	11,815450
3,175167	0,5	11,648650
3,183500	0,5	11,480550
3,191833	0,5	11,313700
3,200167	0,5	11,114800
3,208500	0,5	10,937700
3,216833	0,5	10,742000
3,225167	0,5	10,591900
3,233500	0,5	10,489300
3,241833	0,5	10,448850
3,250167	0,5	10,462800
3,258500	0,5	10,496500
3,266833	0,5	10,541000
3,275167	0,5	10,594100
3,283500	0,5	10,642600
3,291833	0,5	10,701500
3,300167	0,5	10,784350
3,308500	0,5	10,913150
3,316833	0,5	11,125200
3,325167	0,5	11,500900
3,333500	0,5	12,119950
3,341833	0,5	13,067150
3,350167	0,5	14,433350
3,358500	0,5	16,243200
3,366833	0,5	18,386350
3,375167	0,5	20,810000
3,383500	0,5	23,448900
3,391833	0,5	26,495000
3,400167	0,5	30,490950
3,408500	0,5	36,199351
3,416833	0,5	44,387001
3,425167	0,5	55,045201
3,433500	0,5	66,976351
3,441833	0,5	77,792801
3,450167	0,5	84,874401
3,458500	0,5	86,421751
3,466833	0,5	82,248351
3,475167	0,5	73,550551
3,483500	0,5	62,346551
3,491833	0,5	50,692451
3,500167	0,5	40,197051
3,508500	0,5	31,722250
3,516833	0,5	25,485000
3,525167	0,5	21,282250
3,533500	0,5	18,645450
3,541833	0,5	17,064300
3,550167	0,5	16,074400
3,558500	0,5	15,349550
3,566833	0,5	14,706750
3,575167	0,5	14,119050
3,583500	0,5	13,589550
3,591833	0,5	13,181700
3,600167	0,5	12,904350
3,608500	0,5	12,762450
3,616833	0,5	12,699400
3,625167	0,5	12,655750
3,633500	0,5	12,554350
3,641833	0,5	12,374050
3,650167	0,5	12,103750
3,658500	0,5	11,746850
3,666833	0,5	11,341550
3,675167	0,5	10,942750
3,683500	0,5	10,563800
3,691833	0,5	10,219800
3,700167	0,5	9,913200
3,708500	0,5	9,623050
3,716833	0,5	9,351350
3,725167	0,5	9,096650
3,733500	0,5	8,868800
3,741833	0,5	8,677250
3,750167	0,5	8,550600
3,758500	0,5	8,495250
3,766833	0,5	8,557750
3,775167	0,5	8,728550
3,783500	0,5	8,996200
3,791833	0,5	9,302850
3,800167	0,5	9,581350
3,808500	0,5	9,707050
3,816833	0,5	9,658100
3,825167	0,5	9,418150
3,833500	0,5	9,033950
3,841833	0,5	8,565150
3,850167	0,5	8,087850
3,858500	0,5	7,645200
3,866833	0,5	7,279650
3,875167	0,5	6,993250
3,883500	0,5	6,778850
3,891833	0,5	6,618600
3,900167	0,5	6,498200
3,908500	0,5	6,407850
3,916833	0,5	6,343350
3,925167	0,5	6,290150
3,933500	0,5	6,239700
3,941833	0,5	6,226350
3,950167	0,5	6,203500
3,958500	0,5	6,188050
3,966833	0,5	6,184000
3,975167	0,5	6,193450
3,983500	0,5	6,210100
3,991833	0,5	6,222500
4,000167	0,5	6,218300
4,008500	0,5	6,215250
4,016833	0,5	6,194650
4,025167	0,5	6,172000
4,033500	0,5	6,141400
4,041833	0,5	6,105000
4,050167	0,5	6,068350
4,058500	0,5	6,038800
4,066833	0,5	6,023200
4,075167	0,5	6,018300
4,083500	0,5	6,031350
4,091833	0,5	6,089400
4,100167	0,5	6,148200
4,108500	0,5	6,224250
4,116833	0,5	6,318850
4,125167	0,5	6,412750
4,133500	0,5	6,510500
4,141833	0,5	6,580400
4,150167	0,5	6,636800
4,158500	0,5	6,675950
4,166833	0,5	6,722200
4,175167	0,5	6,773950
4,183500	0,5	6,864700
4,191833	0,5	7,010050
4,200167	0,5	7,225150
4,208500	0,5	7,514050
4,216833	0,5	7,852300
4,225167	0,5	8,197500
4,233500	0,5	8,480450
4,241833	0,5	8,662000
4,250167	0,5	8,662550
4,258500	0,5	8,508600
4,266833	0,5	8,211450
4,275167	0,5	7,829800
4,283500	0,5	7,414950
4,291833	0,5	7,013150
4,300167	0,5	6,655450
4,308500	0,5	6,379350
4,316833	0,5	6,178500
4,325167	0,5	6,052300
4,333500	0,5	5,981750
4,341833	0,5	5,958650
4,350167	0,5	5,955150
4,358500	0,5	5,970650
4,366833	0,5	5,980550
4,375167	0,5	5,967150
4,383500	0,5	5,939300
4,391833	0,5	5,909700
4,400167	0,5	5,848250
4,408500	0,5	5,787800
4,416833	0,5	5,731200
4,425167	0,5	5,680350
4,433500	0,5	5,640900
4,441833	0,5	5,586550
4,450167	0,5	5,542300
4,458500	0,5	5,492200
4,466833	0,5	5,441250
4,475167	0,5	5,382650
4,483500	0,5	5,322050
4,491833	0,5	5,245550
4,500167	0,5	5,175400
4,508500	0,5	5,101650
4,516833	0,5	5,032500
4,525167	0,5	4,964650
4,533500	0,5	4,913250
4,541833	0,5	4,860950
4,550167	0,5	4,810900
4,558500	0,5	4,774850
4,566833	0,5	4,739950
4,575167	0,5	4,712250
4,583500	0,5	4,684400
4,591833	0,5	4,645100
4,600167	0,5	4,604200
4,608500	0,5	4,570850
4,616833	0,5	4,535950
4,625167	0,5	4,513400
4,633500	0,5	4,487750
4,641833	0,5	4,468800
4,650167	0,5	4,455900
4,658500	0,5	4,446400
4,666833	0,5	4,434750
4,675167	0,5	4,437250
4,683500	0,5	4,454700
4,691833	0,5	4,477950
4,700167	0,5	4,514150
4,708500	0,5	4,587650
4,716833	0,5	4,684450
4,725167	0,5	4,816300
4,733500	0,5	4,956200
4,741833	0,5	5,101550
4,750167	0,5	5,232650
4,758500	0,5	5,340150
4,766833	0,5	5,406650
4,775167	0,5	5,425200
4,783500	0,5	5,394200
4,791833	0,5	5,327850
4,800167	0,5	5,239550
4,808500	0,5	5,139900
4,816833	0,5	5,045150
4,825167	0,5	4,968400
4,833500	0,5	4,932300
4,841833	0,5	4,921650
4,850167	0,5	4,966000
4,858500	0,5	5,057350
4,866833	0,5	5,206900
4,875167	0,5	5,384300
4,883500	0,5	5,577550
4,891833	0,5	5,759050
4,900167	0,5	5,912600
4,908500	0,5	6,012550
4,916833	0,5	6,049150
4,925167	0,5	6,003100
4,933500	0,5	5,889800
4,941833	0,5	5,717050
4,950167	0,5	5,496950
4,958500	0,5	5,257800
4,966833	0,5	5,000750
4,975167	0,5	4,774750
4,983500	0,5	4,560150
4,991833	0,5	4,372400
5,000167	0,5	4,221300
5,008500	0,5	4,107950
5,016833	0,5	4,031050
5,025167	0,5	3,973750
5,033500	0,5	3,921550
5,041833	0,5	3,891600
5,050167	0,5	3,868750
5,058500	0,5	3,862150
5,066833	0,5	3,851250
5,075167	0,5	3,853200
5,083500	0,5	3,845400
5,091833	0,5	3,840850
5,100167	0,5	3,839500
5,108500	0,5	3,831500
5,116833	0,5	3,829450
5,125167	0,5	3,844600
5,133500	0,5	3,852950
5,141833	0,5	3,880350
5,150167	0,5	3,927000
5,158500	0,5	3,987050
5,166833	0,5	4,065450
5,175167	0,5	4,140800
5,183500	0,5	4,206100
5,191833	0,5	4,258350
5,200167	0,5	4,294000
5,208500	0,5	4,305350
5,216833	0,5	4,303000
5,225167	0,5	4,274650
5,233500	0,5	4,245550
5,241833	0,5	4,215100
5,250167	0,5	4,195400
5,258500	0,5	4,181700
5,266833	0,5	4,195700
5,275167	0,5	4,245850
5,283500	0,5	4,306750
5,291833	0,5	4,389850
5,300167	0,5	4,489300
5,308500	0,5	4,596200
5,316833	0,5	4,700650
5,325167	0,5	4,771550
5,333500	0,5	4,817750
5,341833	0,5	4,846400
5,350167	0,5	4,855900
5,358500	0,5	4,862950
5,366833	0,5	4,864350
5,375167	0,5	4,879400
5,383500	0,5	4,889800
5,391833	0,5	4,909950
5,400167	0,5	4,919350
5,408500	0,5	4,922650
5,416833	0,5	4,903000
5,425167	0,5	4,872450
5,433500	0,5	4,802500
5,441833	0,5	4,718300
5,450167	0,5	4,617150
5,458500	0,5	4,507450
5,466833	0,5	4,390100
5,475167	0,5	4,265750
5,483500	0,5	4,149250
5,491833	0,5	4,050550
5,500167	0,5	3,972450
5,508500	0,5	3,914000
5,516833	0,5	3,877750
5,525167	0,5	3,857900
5,533500	0,5	3,862000
5,541833	0,5	3,875800
5,550167	0,5	3,907350
5,558500	0,5	3,932600
5,566833	0,5	3,967300
5,575167	0,5	4,002000
5,583500	0,5	4,025500
5,591833	0,5	4,050250
5,600167	0,5	4,075850
5,608500	0,5	4,103700
5,616833	0,5	4,130250
5,625167	0,5	4,147900
5,633500	0,5	4,162600
5,641833	0,5	4,179350
5,650167	0,5	4,197300
5,658500	0,5	4,212500
5,666833	0,5	4,223250
5,675167	0,5	4,221700
5,683500	0,5	4,206350
5,691833	0,5	4,178200
5,700167	0,5	4,115300
5,708500	0,5	4,049150
5,716833	0,5	3,974450
5,725167	0,5	3,896050
5,733500	0,5	3,826500
5,741833	0,5	3,779400
5,750167	0,5	3,756550
5,758500	0,5	3,775150
5,766833	0,5	3,818600
5,775167	0,5	3,884300
5,783500	0,5	3,963250
5,791833	0,5	4,048800
5,800167	0,5	4,118850
5,808500	0,5	4,161850
5,816833	0,5	4,166900
5,825167	0,5	4,130700
5,833500	0,5	4,057600
5,841833	0,5	3,958500
5,850167	0,5	3,844650
5,858500	0,5	3,736150
5,866833	0,5	3,640700
5,875167	0,5	3,557400
5,883500	0,5	3,501250
5,891833	0,5	3,478650
5,900167	0,5	3,490450
5,908500	0,5	3,534350
5,916833	0,5	3,616550
5,925167	0,5	3,731400
5,933500	0,5	3,894150
5,941833	0,5	4,093700
5,950167	0,5	4,329700
5,958500	0,5	4,570650
5,966833	0,5	4,802750
5,975167	0,5	4,993450
5,983500	0,5	5,118100
5,991833	0,5	5,165100
6,000167	0,5	5,127050
6,008500	0,5	5,027800
6,016833	0,5	4,871050
6,025167	0,5	4,694250
6,033500	0,5	4,529000
6,041833	0,5	4,397550
6,050167	0,5	4,331700
6,058500	0,5	4,332300
6,066833	0,5	4,399000
6,075167	0,5	4,529800
6,083500	0,5	4,699250
6,091833	0,5	4,883450
6,100167	0,5	5,042350
6,108500	0,5	5,173900
6,116833	0,5	5,292600
6,125167	0,5	5,450600
6,133500	0,5	5,694600
6,141833	0,5	6,085250
6,150167	0,5	6,662500
6,158500	0,5	7,467300
6,166833	0,5	8,448500
6,175167	0,5	9,566400
6,183500	0,5	10,700350
6,191833	0,5	11,732550
6,200167	0,5	12,550350
6,208500	0,5	13,076650
6,216833	0,5	13,307050
6,225167	0,5	13,274650
6,233500	0,5	13,066250
6,241833	0,5	12,813950
6,250167	0,5	12,743850
6,258500	0,5	13,089650
6,266833	0,5	14,067350
6,275167	0,5	15,695250
6,283500	0,5	17,774850
6,291833	0,5	19,808300
6,300167	0,5	21,230000
6,308500	0,5	21,602300
6,316833	0,5	20,767100
6,325167	0,5	18,950000
6,333500	0,5	16,576000
6,341833	0,5	14,065850
6,350167	0,5	11,773100
6,358500	0,5	9,884750
6,366833	0,5	8,503400
6,375167	0,5	7,619050
6,383500	0,5	7,189100
6,391833	0,5	7,163900
6,400167	0,5	7,219400
6,408500	0,5	6,986450
6,416833	0,5	6,535150
6,425167	0,5	5,885200
6,433500	0,5	5,217800
6,441833	0,5	4,664050
6,450167	0,5	4,258200
6,458500	0,5	3,934600
6,466833	0,5	3,682800
6,475167	0,5	3,512150
6,483500	0,5	3,388850
6,491833	0,5	3,295150
6,500167	0,5	3,209650
6,508500	0,5	3,136150
6,516833	0,5	3,069350
6,525167	0,5	3,014900
6,533500	0,5	2,964650
6,541833	0,5	2,923300
6,550167	0,5	2,887950
6,558500	0,5	2,854100
6,566833	0,5	2,834000
6,575167	0,5	2,814700
6,583500	0,5	2,799450
6,591833	0,5	2,783450
6,600167	0,5	2,777950
6,608500	0,5	2,768600
6,616833	0,5	2,758950
6,625167	0,5	2,756050
6,633500	0,5	2,755800
6,641833	0,5	2,757450
6,650167	0,5	2,768100
6,658500	0,5	2,769850
6,666833	0,5	2,776050
6,675167	0,5	2,776950
6,683500	0,5	2,787650
6,691833	0,5	2,794550
6,700167	0,5	2,800350
6,708500	0,5	2,807500
6,716833	0,5	2,815650
6,725167	0,5	2,823750
6,733500	0,5	2,829050
6,741833	0,5	2,838850
6,750167	0,5	2,850600
6,758500	0,5	2,860700
6,766833	0,5	2,867300
6,775167	0,5	2,881800
6,783500	0,5	2,897050
6,791833	0,5	2,917850
6,800167	0,5	2,928800
6,808500	0,5	2,949850
6,816833	0,5	2,962450
6,825167	0,5	2,978450
6,833500	0,5	2,995450
6,841833	0,5	3,008900
6,850167	0,5	3,020300
6,858500	0,5	3,036750
6,866833	0,5	3,051150
6,875167	0,5	3,063950
6,883500	0,5	3,073550
6,891833	0,5	3,088600
6,900167	0,5	3,099800
6,908500	0,5	3,106900
6,916833	0,5	3,110850
6,925167	0,5	3,117850
6,933500	0,5	3,123000
6,941833	0,5	3,132350
6,950167	0,5	3,131550
6,958500	0,5	3,124850
6,966833	0,5	3,121350
6,975167	0,5	3,115900
6,983500	0,5	3,104300
6,991833	0,5	3,089050
7,000167	0,5	3,077950
7,008500	0,5	3,059950
7,016833	0,5	3,046900
7,025167	0,5	3,028800
7,033500	0,5	3,013200
7,041833	0,5	2,999250
7,050167	0,5	2,980500
7,058500	0,5	2,962150
7,066833	0,5	2,946600
7,075167	0,5	2,938750
7,083500	0,5	2,934750
7,091833	0,5	2,929350
7,100167	0,5	2,921850
7,108500	0,5	2,924600
7,116833	0,5	2,928000
7,125167	0,5	2,933700
7,133500	0,5	2,941700
7,141833	0,5	2,954950
7,150167	0,5	2,974500
7,158500	0,5	3,000850
7,166833	0,5	3,033300
7,175167	0,5	3,075500
7,183500	0,5	3,118850
7,191833	0,5	3,185850
7,200167	0,5	3,252350
7,208500	0,5	3,336850
7,216833	0,5	3,431550
7,225167	0,5	3,549150
7,233500	0,5	3,692950
7,241833	0,5	3,852250
7,250167	0,5	4,045250
7,258500	0,5	4,279450
7,266833	0,5	4,559850
7,275167	0,5	4,898750
7,283500	0,5	5,310150
7,291833	0,5	5,806350
7,300167	0,5	6,397600
7,308500	0,5	7,092950
7,316833	0,5	7,886750
7,325167	0,5	8,762600
7,333500	0,5	9,697300
7,341833	0,5	10,658650
7,350167	0,5	11,566200
7,358500	0,5	12,366400
7,366833	0,5	12,998400
7,375167	0,5	13,399650
7,383500	0,5	13,534200
7,391833	0,5	13,363950
7,400167	0,5	12,909600
7,408500	0,5	12,210150
7,416833	0,5	11,314500
7,425167	0,5	10,287650
7,433500	0,5	9,208900
7,441833	0,5	8,139050
7,450167	0,5	7,141500
7,458500	0,5	6,246200
7,466833	0,5	5,483400
7,475167	0,5	4,856200
7,483500	0,5	4,360000
7,491833	0,5	3,983150
7,500167	0,5	3,699900
7,508500	0,5	3,498500
7,516833	0,5	3,363300
7,525167	0,5	3,276950
7,533500	0,5	3,230300
7,541833	0,5	3,203150
7,550167	0,5	3,201200
7,558500	0,5	3,216500
7,566833	0,5	3,253600
7,575167	0,5	3,310050
7,583500	0,5	3,390500
7,591833	0,5	3,490850
7,600167	0,5	3,611950
7,608500	0,5	3,746650
7,616833	0,5	3,893250
7,625167	0,5	4,044050
7,633500	0,5	4,183800
7,641833	0,5	4,318500
7,650167	0,5	4,442600
7,658500	0,5	4,572550
7,666833	0,5	4,719750
7,675167	0,5	4,885550
7,683500	0,5	5,067550
7,691833	0,5	5,241100
7,700167	0,5	5,387350
7,708500	0,5	5,456750
7,716833	0,5	5,427750
7,725167	0,5	5,285700
7,733500	0,5	5,048000
7,741833	0,5	4,742500
7,750167	0,5	4,415650
7,758500	0,5	4,118150
7,766833	0,5	3,867600
7,775167	0,5	3,686200
7,783500	0,5	3,572200
7,791833	0,5	3,503250
7,800167	0,5	3,462250
7,808500	0,5	3,442350
7,816833	0,5	3,425250
7,825167	0,5	3,396550
7,833500	0,5	3,359900
7,841833	0,5	3,312500
7,850167	0,5	3,256750
7,858500	0,5	3,205050
7,866833	0,5	3,159600
7,875167	0,5	3,123000
7,883500	0,5	3,096200
7,891833	0,5	3,077150
7,900167	0,5	3,066000
7,908500	0,5	3,057350
7,916833	0,5	3,043800
7,925167	0,5	3,032700
7,933500	0,5	3,015600
7,941833	0,5	2,986150
7,950167	0,5	2,948750
7,958500	0,5	2,902000
7,966833	0,5	2,854550
7,975167	0,5	2,810400
7,983500	0,5	2,767350
7,991833	0,5	2,733950
8,000167	0,5	2,718850
8,008500	0,5	2,723300
8,016833	0,5	2,751200
8,025167	0,5	2,806900
8,033500	0,5	2,892350
8,041833	0,5	2,994450
8,050167	0,5	3,107050
8,058500	0,5	3,211700
8,066833	0,5	3,305700
8,075167	0,5	3,395350
8,083500	0,5	3,490100
8,091833	0,5	3,604800
8,100167	0,5	3,764900
8,108500	0,5	3,971500
8,116833	0,5	4,239100
8,125167	0,5	4,565350
8,133500	0,5	4,938750
8,141833	0,5	5,357150
8,150167	0,5	5,806550
8,158500	0,5	6,283550
8,166833	0,5	6,787700
8,175167	0,5	7,347050
8,183500	0,5	8,019050
8,191833	0,5	8,894200
8,200167	0,5	10,099500
8,208500	0,5	11,731100
8,216833	0,5	13,786800
8,225167	0,5	16,119850
8,233500	0,5	18,389150
8,241833	0,5	20,195950
8,250167	0,5	21,166100
8,258500	0,5	21,100200
8,266833	0,5	20,008850
8,275167	0,5	18,103450
8,283500	0,5	15,722500
8,291833	0,5	13,216350
8,300167	0,5	10,856500
8,308500	0,5	8,813150
8,316833	0,5	7,153050
8,325167	0,5	5,876100
8,333500	0,5	4,924650
8,341833	0,5	4,239150
8,350167	0,5	3,761650
8,358500	0,5	3,436500
8,366833	0,5	3,217300
8,375167	0,5	3,077800
8,383500	0,5	2,987800
8,391833	0,5	2,927300
8,400167	0,5	2,888500
8,408500	0,5	2,862950
8,416833	0,5	2,858400
8,425167	0,5	2,852950
8,433500	0,5	2,854500
8,441833	0,5	2,864750
8,450167	0,5	2,891250
8,458500	0,5	2,923050
8,466833	0,5	2,959400
8,475167	0,5	2,987400
8,483500	0,5	2,991700
8,491833	0,5	2,971400
8,500167	0,5	2,935450
8,508500	0,5	2,888350
8,516833	0,5	2,847150
8,525167	0,5	2,820300
8,533500	0,5	2,796800
8,541833	0,5	2,769000
8,550167	0,5	2,732050
8,558500	0,5	2,685250
8,566833	0,5	2,636700
8,575167	0,5	2,592150
8,583500	0,5	2,569050
8,591833	0,5	2,571850
8,600167	0,5	2,599250
8,608500	0,5	2,638350
8,616833	0,5	2,676950
8,625167	0,5	2,708950
8,633500	0,5	2,726350
8,641833	0,5	2,730950
8,650167	0,5	2,725100
8,658500	0,5	2,703500
8,666833	0,5	2,672350
8,675167	0,5	2,625550
8,683500	0,5	2,571600
8,691833	0,5	2,517250
8,700167	0,5	2,471200
8,708500	0,5	2,457050
8,716833	0,5	2,483000
8,725167	0,5	2,558200
8,733500	0,5	2,684650
8,741833	0,5	2,827250
8,750167	0,5	2,958450
8,758500	0,5	3,030450
8,766833	0,5	3,025700
8,775167	0,5	2,953250
8,783500	0,5	2,841600
8,791833	0,5	2,730400
8,800167	0,5	2,634900
8,808500	0,5	2,571250
8,816833	0,5	2,542900
8,825167	0,5	2,538000
8,833500	0,5	2,552250
8,841833	0,5	2,581800
8,850167	0,5	2,626950
8,858500	0,5	2,675050
8,866833	0,5	2,716850
8,875167	0,5	2,736600
8,883500	0,5	2,732100
8,891833	0,5	2,700900
8,900167	0,5	2,639150
8,908500	0,5	2,560350
8,916833	0,5	2,474550
8,925167	0,5	2,390850
8,933500	0,5	2,324050
8,941833	0,5	2,273150
8,950167	0,5	2,241750
8,958500	0,5	2,232400
8,966833	0,5	2,244850
8,975167	0,5	2,273600
8,983500	0,5	2,324700
8,991833	0,5	2,397250
9,000167	0,5	2,487100
9,008500	0,5	2,581650
9,016833	0,5	2,649950
9,025167	0,5	2,687050
9,033500	0,5	2,676100
9,041833	0,5	2,631450
9,050167	0,5	2,568650
9,058500	0,5	2,499450
9,066833	0,5	2,444000
9,075167	0,5	2,405800
9,083500	0,5	2,390950
9,091833	0,5	2,406650
9,100167	0,5	2,443950
9,108500	0,5	2,503650
9,116833	0,5	2,571350
9,125167	0,5	2,626250
9,133500	0,5	2,654100
9,141833	0,5	2,655100
9,150167	0,5	2,633550
9,158500	0,5	2,600150
9,166833	0,5	2,559650
9,175167	0,5	2,523050
9,183500	0,5	2,486700
9,191833	0,5	2,449950
9,200167	0,5	2,414200
9,208500	0,5	2,375450
9,216833	0,5	2,335800
9,225167	0,5	2,293250
9,233500	0,5	2,254400
9,241833	0,5	2,221100
9,250167	0,5	2,193400
9,258500	0,5	2,170950
9,266833	0,5	2,158950
9,275167	0,5	2,148500
9,283500	0,5	2,145900
9,291833	0,5	2,150150
9,300167	0,5	2,171300
9,308500	0,5	2,209850
9,316833	0,5	2,260650
9,325167	0,5	2,327950
9,333500	0,5	2,421200
9,341833	0,5	2,529400
9,350167	0,5	2,655400
9,358500	0,5	2,778200
9,366833	0,5	2,870250
9,375167	0,5	2,916250
9,383500	0,5	2,902350
9,391833	0,5	2,838200
9,400167	0,5	2,735750
9,408500	0,5	2,613300
9,416833	0,5	2,483750
9,425167	0,5	2,363300
9,433500	0,5	2,257250
9,441833	0,5	2,169550
9,450167	0,5	2,107250
9,458500	0,5	2,059800
9,466833	0,5	2,026650
9,475167	0,5	2,011000
9,483500	0,5	2,006850
9,491833	0,5	2,012850
9,500167	0,5	2,028900
9,508500	0,5	2,059600
9,516833	0,5	2,092150
9,525167	0,5	2,128500
9,533500	0,5	2,169450
9,541833	0,5	2,212300
9,550167	0,5	2,273100
9,558500	0,5	2,350950
9,566833	0,5	2,433650
9,575167	0,5	2,510000
9,583500	0,5	2,568350
9,591833	0,5	2,585900
9,600167	0,5	2,565500
9,608500	0,5	2,510250
9,616833	0,5	2,433200
9,625167	0,5	2,350350
9,633500	0,5	2,284350
9,641833	0,5	2,240150
9,650167	0,5	2,222100
9,658500	0,5	2,212700
9,666833	0,5	2,215150
9,675167	0,5	2,223300
9,683500	0,5	2,236100
9,691833	0,5	2,256900
9,700167	0,5	2,294900
9,708500	0,5	2,368600
9,716833	0,5	2,489200
9,725167	0,5	2,663100
9,733500	0,5	2,878650
9,741833	0,5	3,125400
9,750167	0,5	3,354000
9,758500	0,5	3,525500
9,766833	0,5	3,611650
9,775167	0,5	3,607600
9,783500	0,5	3,519200
9,791833	0,5	3,379800
9,800167	0,5	3,200800
9,808500	0,5	3,016550
9,816833	0,5	2,830800
9,825167	0,5	2,654350
9,833500	0,5	2,502750
9,841833	0,5	2,376050
9,850167	0,5	2,284150
9,858500	0,5	2,214200
9,866833	0,5	2,174450
9,875167	0,5	2,154100
9,883500	0,5	2,145050
9,891833	0,5	2,151450
9,900167	0,5	2,161200
9,908500	0,5	2,182750
9,916833	0,5	2,211550
9,925167	0,5	2,250100
9,933500	0,5	2,297350
9,941833	0,5	2,334400
9,950167	0,5	2,360200
9,958500	0,5	2,360650
9,966833	0,5	2,337000
9,975167	0,5	2,295600
9,983500	0,5	2,254100
9,991833	0,5	2,222900
10,000167	0,5	2,221250
10,008500	0,5	2,250750
10,016833	0,5	2,319200
10,025167	0,5	2,427550
10,033500	0,5	2,570300
10,041833	0,5	2,729800
10,050167	0,5	2,871650
10,058500	0,5	2,973950
10,066833	0,5	3,017250
10,075167	0,5	3,001600
10,083500	0,5	2,941350
10,091833	0,5	2,851750
10,100167	0,5	2,751100
10,108500	0,5	2,648450
10,116833	0,5	2,550850
10,125167	0,5	2,463650
10,133500	0,5	2,391050
10,141833	0,5	2,339200
10,150167	0,5	2,321050
10,158500	0,5	2,327900
10,166833	0,5	2,358150
10,175167	0,5	2,406100
10,183500	0,5	2,465650
10,191833	0,5	2,534200
10,200167	0,5	2,591450
10,208500	0,5	2,641050
10,216833	0,5	2,685750
10,225167	0,5	2,746100
10,233500	0,5	2,844850
10,241833	0,5	3,014850
10,250167	0,5	3,262000
10,258500	0,5	3,514600
10,266833	0,5	3,683050
10,275167	0,5	3,736950
10,283500	0,5	3,678850
10,291833	0,5	3,546250
10,300167	0,5	3,385150
10,308500	0,5	3,244050
10,316833	0,5	3,181500
10,325167	0,5	3,251050
10,333500	0,5	3,543650
10,341833	0,5	4,354750
10,350167	0,5	6,215150
10,358500	0,5	8,169600
10,366833	0,5	8,739850
10,375167	0,5	8,394650
10,383500	0,5	7,680000
10,391833	0,5	6,258700
10,400167	0,5	4,433050
10,408500	0,5	2,972050
10,416833	0,5	2,098400
10,425167	0,5	1,618750
10,433500	0,5	1,340600
10,441833	0,5	1,167300
10,450167	0,5	1,056850
10,458500	0,5	0,974350
10,466833	0,5	0,916550
10,475167	0,5	0,877750
10,483500	0,5	0,847150
10,491833	0,5	0,825850
10,500167	0,5	0,808150
10,508500	0,5	0,788800
10,516833	0,5	0,773800
10,525167	0,5	0,761200
10,533500	0,5	0,747350
10,541833	0,5	0,734900
10,550167	0,5	0,719150
10,558500	0,5	0,702350
10,566833	0,5	0,684450
10,575167	0,5	0,672700
10,583500	0,5	0,652950
10,591833	0,5	0,642800
10,600167	0,5	0,633050
10,608500	0,5	0,623950
10,616833	0,5	0,618600
10,625167	0,5	0,617200
10,633500	0,5	0,626750
10,641833	0,5	0,638900
10,650167	0,5	0,660250
10,658500	0,5	0,684300
10,666833	0,5	0,712250
10,675167	0,5	0,736550
10,683500	0,5	0,761000
10,691833	0,5	0,777150
10,700167	0,5	0,789600
10,708500	0,5	0,790200
10,716833	0,5	0,782300
10,725167	0,5	0,765300
10,733500	0,5	0,746750
10,741833	0,5	0,713350
10,750167	0,5	0,682300
10,758500	0,5	0,646000
10,766833	0,5	0,609100
10,775167	0,5	0,577850
10,783500	0,5	0,550150
10,791833	0,5	0,528150
10,800167	0,5	0,507250
10,808500	0,5	0,484750
10,816833	0,5	0,467400
10,825167	0,5	0,455150
10,833500	0,5	0,442900
10,841833	0,5	0,433050
10,850167	0,5	0,421800
10,858500	0,5	0,413800
10,866833	0,5	0,410500
10,875167	0,5	0,399450
10,883500	0,5	0,396650
10,891833	0,5	0,390550
10,900167	0,5	0,387350
10,908500	0,5	0,384950
10,916833	0,5	0,378000
10,925167	0,5	0,380650
10,933500	0,5	0,383750
10,941833	0,5	0,384150
10,950167	0,5	0,391350
10,958500	0,5	0,393600
10,966833	0,5	0,398800
10,975167	0,5	0,399500
10,983500	0,5	0,406100
10,991833	0,5	0,404750
11,000167	0,5	0,409000
11,008500	0,5	0,404150
11,016833	0,5	0,406550
11,025167	0,5	0,396500
11,033500	0,5	0,399300
11,041833	0,5	0,393600
11,050167	0,5	0,383900
11,058500	0,5	0,373950
11,066833	0,5	0,361850
11,075167	0,5	0,355750
11,083500	0,5	0,346950
11,091833	0,5	0,337050
11,100167	0,5	0,329800
11,108500	0,5	0,317800
11,116833	0,5	0,313200
11,125167	0,5	0,308700
11,133500	0,5	0,301350
11,141833	0,5	0,294000
11,150167	0,5	0,291300
11,158500	0,5	0,288100
11,166833	0,5	0,284350
11,175167	0,5	0,277200
11,183500	0,5	0,276300
11,191833	0,5	0,271200
11,200167	0,5	0,268400
11,208500	0,5	0,264350
11,216833	0,5	0,258650
11,225167	0,5	0,264200
11,233500	0,5	0,261850
11,241833	0,5	0,263700
11,250167	0,5	0,262500
11,258500	0,5	0,265150
11,266833	0,5	0,265600
11,275167	0,5	0,267700
11,283500	0,5	0,265600
11,291833	0,5	0,269950
11,300167	0,5	0,272450
11,308500	0,5	0,276000
11,316833	0,5	0,272250
11,325167	0,5	0,275250
11,333500	0,5	0,280300
11,341833	0,5	0,283400
11,350167	0,5	0,281350
11,358500	0,5	0,283900
11,366833	0,5	0,288150
11,375167	0,5	0,293450
11,383500	0,5	0,299950
11,391833	0,5	0,304700
11,400167	0,5	0,306650
11,408500	0,5	0,314150
11,416833	0,5	0,321600
11,425167	0,5	0,324200
11,433500	0,5	0,328600
11,441833	0,5	0,329800
11,450167	0,5	0,332850
11,458500	0,5	0,336750
11,466833	0,5	0,338750
11,475167	0,5	0,342550
11,483500	0,5	0,341600
11,491833	0,5	0,342250
11,500167	0,5	0,336800
11,508500	0,5	0,335750
11,516833	0,5	0,341400
11,525167	0,5	0,341850
11,533500	0,5	0,343400
11,541833	0,5	0,346750
11,550167	0,5	0,345600
11,558500	0,5	0,351800
11,566833	0,5	0,352650
11,575167	0,5	0,360100
11,583500	0,5	0,357150
11,591833	0,5	0,360400
11,600167	0,5	0,363650
11,608500	0,5	0,367650
11,616833	0,5	0,373850
11,625167	0,5	0,385550
11,633500	0,5	0,388450
11,641833	0,5	0,393950
11,650167	0,5	0,397950
11,658500	0,5	0,404950
11,666833	0,5	0,413850
11,675167	0,5	0,422200
11,683500	0,5	0,426950
11,691833	0,5	0,427200
11,700167	0,5	0,429950
11,708500	0,5	0,433000
11,716833	0,5	0,433950
11,725167	0,5	0,426400
11,733500	0,5	0,425750
11,741833	0,5	0,423250
11,750167	0,5	0,416700
11,758500	0,5	0,404800
11,766833	0,5	0,400100
11,775167	0,5	0,396250
11,783500	0,5	0,386800
11,791833	0,5	0,381400
11,800167	0,5	0,367850
11,808500	0,5	0,367400
11,816833	0,5	0,365700
11,825167	0,5	0,366950
11,833500	0,5	0,368250
11,841833	0,5	0,371200
11,850167	0,5	0,370900
11,858500	0,5	0,376750
11,866833	0,5	0,379450
11,875167	0,5	0,386650
11,883500	0,5	0,391000
11,891833	0,5	0,397650
11,900167	0,5	0,401000
11,908500	0,5	0,405250
11,916833	0,5	0,420100
11,925167	0,5	0,429400
11,933500	0,5	0,432400
11,941833	0,5	0,441700
11,950167	0,5	0,445200
11,958500	0,5	0,458950
11,966833	0,5	0,469300
11,975167	0,5	0,477000
11,983500	0,5	0,492600
11,991833	0,5	0,501950
12,000167	0,5	0,517400
12,008500	0,5	0,531800
12,016833	0,5	0,547450
12,025167	0,5	0,568400
12,033500	0,5	0,589700
12,041833	0,5	0,611850
12,050167	0,5	0,640000
12,058500	0,5	0,663250
12,066833	0,5	0,700350
12,075167	0,5	0,732350
12,083500	0,5	0,766500
12,091833	0,5	0,799200
12,100167	0,5	0,841700
12,108500	0,5	0,887700
12,116833	0,5	0,937200
12,125167	0,5	0,976050
12,133500	0,5	1,025150
12,141833	0,5	1,076200
12,150167	0,5	1,131700
12,158500	0,5	1,183250
12,166833	0,5	1,237200
12,175167	0,5	1,287200
12,183500	0,5	1,342600
12,191833	0,5	1,392850
12,200167	0,5	1,440600
12,208500	0,5	1,485250
12,216833	0,5	1,530600
12,225167	0,5	1,568100
12,233500	0,5	1,592000
12,241833	0,5	1,621000
12,250167	0,5	1,640900
12,258500	0,5	1,667600
12,266833	0,5	1,684500
12,275167	0,5	1,702050
12,283500	0,5	1,715300
12,291833	0,5	1,725750
12,300167	0,5	1,738100
12,308500	0,5	1,751400
12,316833	0,5	1,761650
12,325167	0,5	1,773350
12,333500	0,5	1,784450
12,341833	0,5	1,790650
12,350167	0,5	1,796800
12,358500	0,5	1,809600
12,366833	0,5	1,822200
12,375167	0,5	1,834750
12,383500	0,5	1,841150
12,391833	0,5	1,850300
12,400167	0,5	1,867300
12,408500	0,5	1,885800
12,416833	0,5	1,903350
12,425167	0,5	1,918750
12,433500	0,5	1,936300
12,441833	0,5	1,951700
12,450167	0,5	1,970500
12,458500	0,5	1,984400
12,466833	0,5	2,001300
12,475167	0,5	2,015100
12,483500	0,5	2,031450
12,491833	0,5	2,044600
12,500167	0,5	2,061000
12,508500	0,5	2,081950
12,516833	0,5	2,100550
12,525167	0,5	2,115500
12,533500	0,5	2,130800
12,541833	0,5	2,146350
12,550167	0,5	2,163700
12,558500	0,5	2,186050
12,566833	0,5	2,198850
12,575167	0,5	2,212150
12,583500	0,5	2,214300
12,591833	0,5	2,220900
12,600167	0,5	2,220300
12,608500	0,5	2,224000
12,616833	0,5	2,222000
12,625167	0,5	2,221300
12,633500	0,5	2,220100
12,641833	0,5	2,214300
12,650167	0,5	2,215850
12,658500	0,5	2,216750
12,666833	0,5	2,219200
12,675167	0,5	2,222400
12,683500	0,5	2,217950
12,691833	0,5	2,225300
12,700167	0,5	2,234550
12,708500	0,5	2,241400
12,716833	0,5	2,247200
12,725167	0,5	2,250750
12,733500	0,5	2,253400
12,741833	0,5	2,252650
12,750167	0,5	2,256700
12,758500	0,5	2,254800
12,766833	0,5	2,250250
12,775167	0,5	2,251700
12,783500	0,5	2,254100
12,791833	0,5	2,243650
12,800167	0,5	2,251150
12,808500	0,5	2,255250
12,816833	0,5	2,258800
12,825167	0,5	2,257800
12,833500	0,5	2,252500
12,841833	0,5	2,255250
12,850167	0,5	2,259350
12,858500	0,5	2,259700
12,866833	0,5	2,260300
12,875167	0,5	2,261350
12,883500	0,5	2,261500
12,891833	0,5	2,264250
12,900167	0,5	2,267000
12,908500	0,5	2,267700
12,916833	0,5	2,263150
12,925167	0,5	2,260400
12,933500	0,5	2,251450
12,941833	0,5	2,242000
12,950167	0,5	2,241650
12,958500	0,5	2,238050
12,966833	0,5	2,231950
12,975167	0,5	2,222950
12,983500	0,5	2,215500
12,991833	0,5	2,220650
13,000167	0,5	2,222750
13,008500	0,5	2,222950
13,016833	0,5	2,223550
13,025167	0,5	2,231100
13,033500	0,5	2,231350
13,041833	0,5	2,236050
13,050167	0,5	2,236900
13,058500	0,5	2,234550
13,066833	0,5	2,229550
13,075167	0,5	2,223200
13,083500	0,5	2,212400
13,091833	0,5	2,201850
13,100167	0,5	2,201750
13,108500	0,5	2,191100
13,116833	0,5	2,185950
13,125167	0,5	2,173200
13,133500	0,5	2,169700
13,141833	0,5	2,167350
13,150167	0,5	2,169250
13,158500	0,5	2,165950
13,166833	0,5	2,166200
13,175167	0,5	2,160700
13,183500	0,5	2,163700
13,191833	0,5	2,168800
13,200167	0,5	2,167100
13,208500	0,5	2,168750
13,216833	0,5	2,167050
13,225167	0,5	2,171100
13,233500	0,5	2,158550
13,241833	0,5	2,159300
13,250167	0,5	2,164850
13,258500	0,5	2,162450
13,266833	0,5	2,160300
13,275167	0,5	2,152750
13,283500	0,5	2,152850
13,291833	0,5	2,160750
13,300167	0,5	2,153000
13,308500	0,5	2,146500
13,316833	0,5	2,139950
13,325167	0,5	2,137750
13,333500	0,5	2,130550
13,341833	0,5	2,132250
13,350167	0,5	2,131300
13,358500	0,5	2,132350
13,366833	0,5	2,140400
13,375167	0,5	2,144900
13,383500	0,5	2,140000
13,391833	0,5	2,146150
13,400167	0,5	2,143400
13,408500	0,5	2,141250
13,416833	0,5	2,129400
13,425167	0,5	2,115800
13,433500	0,5	2,110900
13,441833	0,5	2,100150
13,450167	0,5	2,088050
13,458500	0,5	2,074200
13,466833	0,5	2,065550
13,475167	0,5	2,055750
13,483500	0,5	2,059700
13,491833	0,5	2,066650
13,500167	0,5	2,076150
13,508500	0,5	2,090450
13,516833	0,5	2,104700
13,525167	0,5	2,110900
13,533500	0,5	2,115850
13,541833	0,5	2,122250
13,550167	0,5	2,118850
13,558500	0,5	2,107900
13,566833	0,5	2,087950
13,575167	0,5	2,068550
13,583500	0,5	2,054150
13,591833	0,5	2,051550
13,600167	0,5	2,043450
13,608500	0,5	2,043950
13,616833	0,5	2,042650
13,625167	0,5	2,043250
13,633500	0,5	2,036650
13,641833	0,5	2,031800
13,650167	0,5	2,018300
13,658500	0,5	2,008900
13,666833	0,5	1,996250
13,675167	0,5	1,984300
13,683500	0,5	1,989600
13,691833	0,5	2,007200
13,700167	0,5	2,019800
13,708500	0,5	2,039900
13,716833	0,5	2,051450
13,725167	0,5	2,064550
13,733500	0,5	2,070550
13,741833	0,5	2,060150
13,750167	0,5	2,041150
13,758500	0,5	2,013350
13,766833	0,5	1,991300
13,775167	0,5	1,971550
13,783500	0,5	1,967600
13,791833	0,5	1,960850
13,800167	0,5	1,971600
13,808500	0,5	1,988150
13,816833	0,5	1,996550
13,825167	0,5	2,001250
13,833500	0,5	2,016350
13,841833	0,5	2,026650
13,850167	0,5	2,021100
13,858500	0,5	2,018950
13,866833	0,5	2,016500
13,875167	0,5	2,036800
13,883500	0,5	2,062050
13,891833	0,5	2,078900
13,900167	0,5	2,082800
13,908500	0,5	2,076550
13,916833	0,5	2,048150
13,925167	0,5	2,016050
13,933500	0,5	1,977300
13,941833	0,5	1,935550
13,950167	0,5	1,903500
13,958500	0,5	1,883500
13,966833	0,5	1,857000
13,975167	0,5	1,850500
13,983500	0,5	1,856050
13,991833	0,5	1,866900
14,000167	0,5	1,870800
14,008500	0,5	1,878400
14,016833	0,5	1,885500
14,025167	0,5	1,904950
14,033500	0,5	1,918500
14,041833	0,5	1,931050
14,050167	0,5	1,937950
14,058500	0,5	1,927100
14,066833	0,5	1,905700
14,075167	0,5	1,877400
14,083500	0,5	1,847200
14,091833	0,5	1,813700
14,100167	0,5	1,789900
14,108500	0,5	1,769500
14,116833	0,5	1,747400
14,125167	0,5	1,742300
14,133500	0,5	1,749150
14,141833	0,5	1,752150
14,150167	0,5	1,760600
14,158500	0,5	1,762900
14,166833	0,5	1,777500
14,175167	0,5	1,786950
14,183500	0,5	1,788750
14,191833	0,5	1,777100
14,200167	0,5	1,763950
14,208500	0,5	1,743050
14,216833	0,5	1,720450
14,225167	0,5	1,698550
14,233500	0,5	1,673650
14,241833	0,5	1,657850
14,250167	0,5	1,642950
14,258500	0,5	1,638550
14,266833	0,5	1,628850
14,275167	0,5	1,642900
14,283500	0,5	1,647300
14,291833	0,5	1,653650
14,300167	0,5	1,654550
14,308500	0,5	1,651450
14,316833	0,5	1,651250
14,325167	0,5	1,654150
14,333500	0,5	1,639000
14,341833	0,5	1,635450
14,350167	0,5	1,622350
14,358500	0,5	1,609200
14,366833	0,5	1,602400
14,375167	0,5	1,597300
14,383500	0,5	1,590400
14,391833	0,5	1,584400
14,400167	0,5	1,581350
14,408500	0,5	1,581150
14,416833	0,5	1,572800
14,425167	0,5	1,572400
14,433500	0,5	1,566850
14,441833	0,5	1,554600
14,450167	0,5	1,536350
14,458500	0,5	1,514150
14,466833	0,5	1,508300
14,475167	0,5	1,500700
14,483500	0,5	1,494450
14,491833	0,5	1,487350
14,500167	0,5	1,483850
14,508500	0,5	1,476650
14,516833	0,5	1,474900
14,525167	0,5	1,466500
14,533500	0,5	1,462550
14,541833	0,5	1,461900
14,550167	0,5	1,457050
14,558500	0,5	1,443450
14,566833	0,5	1,442100
14,575167	0,5	1,442300
14,583500	0,5	1,434800
14,591833	0,5	1,430000
14,600167	0,5	1,420400
14,608500	0,5	1,415300
14,616833	0,5	1,414750
14,625167	0,5	1,417300
14,633500	0,5	1,416400
14,641833	0,5	1,415650
14,650167	0,5	1,407450
14,658500	0,5	1,404650
14,666833	0,5	1,396250
14,675167	0,5	1,391000
14,683500	0,5	1,382950
14,691833	0,5	1,383100
14,700167	0,5	1,376600
14,708500	0,5	1,364850
14,716833	0,5	1,367200
14,725167	0,5	1,363900
14,733500	0,5	1,359550
14,741833	0,5	1,355650
14,750167	0,5	1,339550
14,758500	0,5	1,338900
14,766833	0,5	1,337550
14,775167	0,5	1,331800
14,783500	0,5	1,325850
14,791833	0,5	1,315300
14,800167	0,5	1,308900
14,808500	0,5	1,302950
14,816833	0,5	1,303700
14,825167	0,5	1,298100
14,833500	0,5	1,298300
14,841833	0,5	1,300900
14,850167	0,5	1,294800
14,858500	0,5	1,290400
14,866833	0,5	1,292400
14,875167	0,5	1,286450
14,883500	0,5	1,279800
14,891833	0,5	1,264650
14,900167	0,5	1,256900
14,908500	0,5	1,249900
14,916833	0,5	1,249000
14,925167	0,5	1,244900
14,933500	0,5	1,241100
14,941833	0,5	1,240550
14,950167	0,5	1,237550
14,958500	0,5	1,239750
14,966833	0,5	1,237400
14,975167	0,5	1,238500
14,983500	0,5	1,235700
14,991833	0,5	1,241550
15,000167	0,5	1,226450
15,008500	0,5	1,228650
15,016833	0,5	1,225150
15,025167	0,5	1,224450
15,033500	0,5	1,217850
15,041833	0,5	1,208700
15,050167	0,5	1,202050
15,058500	0,5	1,211600
15,066833	0,5	1,209750
15,075167	0,5	1,207400
15,083500	0,5	1,207150
15,091833	0,5	1,205650
15,100167	0,5	1,200500
15,108500	0,5	1,198900
15,116833	0,5	1,195950
15,125167	0,5	1,192650
15,133500	0,5	1,195250
15,141833	0,5	1,191850
15,150167	0,5	1,177200
15,158500	0,5	1,187550
15,166833	0,5	1,184750
15,175167	0,5	1,184150
15,183500	0,5	1,179150
15,191833	0,5	1,159550
15,200167	0,5	1,167400
15,208500	0,5	1,170900
15,216833	0,5	1,170800
15,225167	0,5	1,165150
15,233500	0,5	1,169550
15,241833	0,5	1,165650
15,250167	0,5	1,169450
15,258500	0,5	1,176800
15,266833	0,5	1,185800
15,275167	0,5	1,195350
15,283500	0,5	1,201500
15,291833	0,5	1,209150
15,300167	0,5	1,203550
15,308500	0,5	1,208600
15,316833	0,5	1,198200
15,325167	0,5	1,182700
15,333500	0,5	1,164800
15,341833	0,5	1,139450
15,350167	0,5	1,137200
15,358500	0,5	1,140650
15,366833	0,5	1,134250
15,375167	0,5	1,133750
15,383500	0,5	1,127600
15,391833	0,5	1,127900
15,400167	0,5	1,125150
15,408500	0,5	1,119700
15,416833	0,5	1,113850
15,425167	0,5	1,115700
15,433500	0,5	1,118650
15,441833	0,5	1,105550
15,450167	0,5	1,099600
15,458500	0,5	1,103250
15,466833	0,5	1,091900
15,475167	0,5	1,086750
15,483500	0,5	1,075850
15,491833	0,5	1,065850
15,500167	0,5	1,074850
15,508500	0,5	1,066700
15,516833	0,5	1,074250
15,525167	0,5	1,069800
15,533500	0,5	1,078900
15,541833	0,5	1,078600
15,550167	0,5	1,092850
15,558500	0,5	1,101100
15,566833	0,5	1,109300
15,575167	0,5	1,122650
15,583500	0,5	1,131100
15,591833	0,5	1,122900
15,600167	0,5	1,124900
15,608500	0,5	1,122750
15,616833	0,5	1,116500
15,625167	0,5	1,108400
15,633500	0,5	1,090050
15,641833	0,5	1,089450
15,650167	0,5	1,087400
15,658500	0,5	1,084250
15,666833	0,5	1,078600
15,675167	0,5	1,074750
15,683500	0,5	1,063100
15,691833	0,5	1,055450
15,700167	0,5	1,041150
15,708500	0,5	1,032250
15,716833	0,5	1,024900
15,725167	0,5	1,028700
15,733500	0,5	1,015850
15,741833	0,5	1,013050
15,750167	0,5	1,021200
15,758500	0,5	1,024100
15,766833	0,5	1,021600
15,775167	0,5	1,016050
15,783500	0,5	1,016250
15,791833	0,5	1,015950
15,800167	0,5	1,015100
15,808500	0,5	1,014200
15,816833	0,5	1,013600
15,825167	0,5	1,010450
15,833500	0,5	1,007350
15,841833	0,5	1,003500
15,850167	0,5	1,011600
15,858500	0,5	1,010250
15,866833	0,5	1,019450
15,875167	0,5	1,023200
15,883500	0,5	1,019450
15,891833	0,5	1,019550
15,900167	0,5	1,025800
15,908500	0,5	1,026050
15,916833	0,5	1,019550
15,925167	0,5	1,009000
15,933500	0,5	1,005000
15,941833	0,5	1,007300
15,950167	0,5	1,008450
15,958500	0,5	1,002600
15,966833	0,5	1,000350
15,975167	0,5	0,995950
15,983500	0,5	0,988050
15,991833	0,5	0,984550
16,000167	0,5	0,971000
16,008500	0,5	0,972700
16,016833	0,5	0,968750
16,025167	0,5	0,964550
16,033500	0,5	0,947300
16,041833	0,5	0,960100
16,050167	0,5	0,963100
16,058500	0,5	0,962500
16,066833	0,5	0,957800
16,075167	0,5	0,941450
16,083500	0,5	0,947700
16,091833	0,5	0,950250
16,100167	0,5	0,943400
16,108500	0,5	0,944600
16,116833	0,5	0,941750
16,125167	0,5	0,944700
16,133500	0,5	0,941150
16,141833	0,5	0,945800
16,150167	0,5	0,947750
16,158500	0,5	0,948800
16,166833	0,5	0,957900
16,175167	0,5	0,955750
16,183500	0,5	0,947250
16,191833	0,5	0,953850
16,200167	0,5	0,949950
16,208500	0,5	0,949750
16,216833	0,5	0,949200
16,225167	0,5	0,941700
16,233500	0,5	0,948350
16,241833	0,5	0,956150
16,250167	0,5	0,967500
16,258500	0,5	0,974300
16,266833	0,5	0,982400
16,275167	0,5	0,990750
16,283500	0,5	1,003600
16,291833	0,5	1,010000
16,300167	0,5	1,018750
16,308500	0,5	1,022600
16,316833	0,5	1,027750
16,325167	0,5	1,016700
16,333500	0,5	1,012600
16,341833	0,5	1,015700
16,350167	0,5	1,003500
16,358500	0,5	0,996600
16,366833	0,5	0,980150
16,375167	0,5	0,982300
16,383500	0,5	0,987550
16,391833	0,5	0,998100
16,400167	0,5	1,006500
16,408500	0,5	1,018400
16,416833	0,5	1,023500
16,425167	0,5	1,027850
16,433500	0,5	1,029950
16,441833	0,5	1,033250
16,450167	0,5	1,037700
16,458500	0,5	1,042600
16,466833	0,5	1,053200
16,475167	0,5	1,058800
16,483500	0,5	1,090550
16,491833	0,5	1,132200
16,500167	0,5	1,188750
16,508500	0,5	1,252200
16,516833	0,5	1,332900
16,525167	0,5	1,413950
16,533500	0,5	1,503750
16,541833	0,5	1,560150
16,550167	0,5	1,583200
16,558500	0,5	1,560250
16,566833	0,5	1,513650
16,575167	0,5	1,435500
16,583500	0,5	1,356100
16,591833	0,5	1,269400
16,600167	0,5	1,198550
16,608500	0,5	1,148050
16,616833	0,5	1,106500
16,625167	0,5	1,073350
16,633500	0,5	1,063850
16,641833	0,5	1,065700
16,650167	0,5	1,068450
16,658500	0,5	1,071000
16,666833	0,5	1,079300
16,675167	0,5	1,101900
16,683500	0,5	1,117300
16,691833	0,5	1,133250
16,700167	0,5	1,144850
16,708500	0,5	1,158400
16,716833	0,5	1,165600
16,725167	0,5	1,179200
16,733500	0,5	1,195050
16,741833	0,5	1,214150
16,750167	0,5	1,233100
16,758500	0,5	1,250100
16,766833	0,5	1,240300
16,775167	0,5	1,237550
16,783500	0,5	1,221000
16,791833	0,5	1,193250
16,800167	0,5	1,157050
16,808500	0,5	1,103750
16,816833	0,5	1,069200
16,825167	0,5	1,034950
16,833500	0,5	1,006700
16,841833	0,5	0,975000
16,850167	0,5	0,947500
16,858500	0,5	0,920650
16,866833	0,5	0,902950
16,875167	0,5	0,880050
16,883500	0,5	0,868500
16,891833	0,5	0,855000
16,900167	0,5	0,852200
16,908500	0,5	0,844600
16,916833	0,5	0,822800
16,925167	0,5	0,822750
16,933500	0,5	0,822800
16,941833	0,5	0,816450
16,950167	0,5	0,811050
16,958500	0,5	0,797450
16,966833	0,5	0,804900
16,975167	0,5	0,811050
16,983500	0,5	0,808900
16,991833	0,5	0,812700
17,000167	0,5	0,808950
17,008500	0,5	0,808800
17,016833	0,5	0,803750
17,025167	0,5	0,803550
17,033500	0,5	0,792250
17,041833	0,5	0,780900
17,050167	0,5	0,776100
17,058500	0,5	0,769200
17,066833	0,5	0,753750
17,075167	0,5	0,757900
17,083500	0,5	0,745250
17,091833	0,5	0,739100
17,100167	0,5	0,724700
17,108500	0,5	0,709600
17,116833	0,5	0,709300
17,125167	0,5	0,705900
17,133500	0,5	0,704050
17,141833	0,5	0,699350
17,150167	0,5	0,703350
17,158500	0,5	0,695750
17,166833	0,5	0,698200
17,175167	0,5	0,695350
17,183500	0,5	0,695000
17,191833	0,5	0,694250
17,200167	0,5	0,700400
17,208500	0,5	0,687100
17,216833	0,5	0,684800
17,225167	0,5	0,690350
17,233500	0,5	0,689900
17,241833	0,5	0,681750
17,250167	0,5	0,672000
17,258500	0,5	0,668350
17,266833	0,5	0,672650
17,275167	0,5	0,671150
17,283500	0,5	0,674050
17,291833	0,5	0,667800
17,300167	0,5	0,669350
17,308500	0,5	0,664800
17,316833	0,5	0,669450
17,325167	0,5	0,673600
17,333500	0,5	0,674400
17,341833	0,5	0,684350
17,350167	0,5	0,684650
17,358500	0,5	0,673100
17,366833	0,5	0,672600
17,375167	0,5	0,672450
17,383500	0,5	0,657800
17,391833	0,5	0,641950
17,400167	0,5	0,619200
17,408500	0,5	0,609850
17,416833	0,5	0,602000
17,425167	0,5	0,601650
17,433500	0,5	0,591200
17,441833	0,5	0,589550
17,450167	0,5	0,580600
17,458500	0,5	0,579950
17,466833	0,5	0,575800
17,475167	0,5	0,574350
17,483500	0,5	0,578700
17,491833	0,5	0,581150
17,500167	0,5	0,578650
17,508500	0,5	0,570600
17,516833	0,5	0,578750
17,525167	0,5	0,575400
17,533500	0,5	0,575400
17,541833	0,5	0,562900
17,550167	0,5	0,561950
17,558500	0,5	0,565050
17,566833	0,5	0,574200
17,575167	0,5	0,577600
17,583500	0,5	0,585100
17,591833	0,5	0,585300
17,600167	0,5	0,594950
17,608500	0,5	0,595900
17,616833	0,5	0,610050
17,625167	0,5	0,625650
17,633500	0,5	0,642050
17,641833	0,5	0,658200
17,650167	0,5	0,661800
17,658500	0,5	0,683550
17,666833	0,5	0,704350
17,675167	0,5	0,713250
17,683500	0,5	0,724250
17,691833	0,5	0,730750
17,700167	0,5	0,735250
17,708500	0,5	0,755450
17,716833	0,5	0,766850
17,725167	0,5	0,780800
17,733500	0,5	0,788350
17,741833	0,5	0,800200
17,750167	0,5	0,803900
17,758500	0,5	0,812750
17,766833	0,5	0,816950
17,775167	0,5	0,821200
17,783500	0,5	0,829150
17,791833	0,5	0,828500
17,800167	0,5	0,806550
17,808500	0,5	0,809850
17,816833	0,5	0,806800
17,825167	0,5	0,793050
17,833500	0,5	0,780000
17,841833	0,5	0,760100
17,850167	0,5	0,758050
17,858500	0,5	0,752600
17,866833	0,5	0,744050
17,875167	0,5	0,735000
17,883500	0,5	0,729300
17,891833	0,5	0,716800
17,900167	0,5	0,706350
17,908500	0,5	0,694950
17,916833	0,5	0,685300
17,925167	0,5	0,676300
17,933500	0,5	0,675850
17,941833	0,5	0,656650
17,950167	0,5	0,643900
17,958500	0,5	0,640200
17,966833	0,5	0,635300
17,975167	0,5	0,623800
17,983500	0,5	0,605950
17,991833	0,5	0,596500
18,000167	0,5	0,585500
18,008500	0,5	0,579300
18,016833	0,5	0,567950
18,025167	0,5	0,562750
18,033500	0,5	0,554250
18,041833	0,5	0,551350
18,050167	0,5	0,539950
18,058500	0,5	0,541350
18,066833	0,5	0,532200
18,075167	0,5	0,526800
18,083500	0,5	0,525200
18,091833	0,5	0,507500
18,100167	0,5	0,507050
18,108500	0,5	0,505500
18,116833	0,5	0,497950
18,125167	0,5	0,488200
18,133500	0,5	0,472850
18,141833	0,5	0,468900
18,150167	0,5	0,474950
18,158500	0,5	0,467400
18,166833	0,5	0,466400
18,175167	0,5	0,462900
18,183500	0,5	0,463100
18,191833	0,5	0,460050
18,200167	0,5	0,460600
18,208500	0,5	0,458550
18,216833	0,5	0,460900
18,225167	0,5	0,466300
18,233500	0,5	0,471550
18,241833	0,5	0,459950
18,250167	0,5	0,466700
18,258500	0,5	0,466950
18,266833	0,5	0,468750
18,275167	0,5	0,462950
18,283500	0,5	0,458000
18,291833	0,5	0,466400
18,300167	0,5	0,472650
18,308500	0,5	0,479650
18,316833	0,5	0,484250
18,325167	0,5	0,490000
18,333500	0,5	0,492100
18,341833	0,5	0,499050
18,350167	0,5	0,497250
18,358500	0,5	0,499450
18,366833	0,5	0,502600
18,375167	0,5	0,512900
18,383500	0,5	0,511750
18,391833	0,5	0,503850
18,400167	0,5	0,511900
18,408500	0,5	0,510550
18,416833	0,5	0,510450
18,425167	0,5	0,501100
18,433500	0,5	0,494900
18,441833	0,5	0,503000
18,450167	0,5	0,503950
18,458500	0,5	0,506350
18,466833	0,5	0,507250
18,475167	0,5	0,510800
18,483500	0,5	0,511650
18,491833	0,5	0,501400
18,500167	0,5	0,505150
18,508500	0,5	0,506150
18,516833	0,5	0,516450
18,525167	0,5	0,516200
18,533500	0,5	0,511750
18,541833	0,5	0,513250
18,550167	0,5	0,517300
18,558500	0,5	0,511850
18,566833	0,5	0,509350
18,575167	0,5	0,497500
18,583500	0,5	0,495650
18,591833	0,5	0,500900
18,600167	0,5	0,500750
18,608500	0,5	0,503850
18,616833	0,5	0,505650
18,625167	0,5	0,507550
18,633500	0,5	0,511550
18,641833	0,5	0,517100
18,650167	0,5	0,514850
18,658500	0,5	0,520400
18,666833	0,5	0,525900
18,675167	0,5	0,523250
18,683500	0,5	0,508700
18,691833	0,5	0,511700
18,700167	0,5	0,506750
18,708500	0,5	0,504050
18,716833	0,5	0,485250
18,725167	0,5	0,478450
18,733500	0,5	0,476100
18,741833	0,5	0,477500
18,750167	0,5	0,476200
18,758500	0,5	0,476300
18,766833	0,5	0,473050
18,775167	0,5	0,471050
18,783500	0,5	0,469600
18,791833	0,5	0,467700
18,800167	0,5	0,466500
18,808500	0,5	0,463250
18,816833	0,5	0,466700
18,825167	0,5	0,448000
18,833500	0,5	0,453650
18,841833	0,5	0,454350
18,850167	0,5	0,451750
18,858500	0,5	0,443800
18,866833	0,5	0,427650
18,875167	0,5	0,426050
18,883500	0,5	0,424250
18,891833	0,5	0,419400
18,900167	0,5	0,422300
18,908500	0,5	0,418150
18,916833	0,5	0,415350
18,925167	0,5	0,411700
18,933500	0,5	0,411850
18,941833	0,5	0,410300
18,950167	0,5	0,406000
18,958500	0,5	0,410250
18,966833	0,5	0,410050
18,975167	0,5	0,392550
18,983500	0,5	0,397950
18,991833	0,5	0,395600
19,000167	0,5	0,391300
19,008500	0,5	0,384550
19,016833	0,5	0,367750
19,025167	0,5	0,374500
19,033500	0,5	0,368050
19,041833	0,5	0,368600
19,050167	0,5	0,360600
19,058500	0,5	0,359050
19,066833	0,5	0,358050
19,075167	0,5	0,360600
19,083500	0,5	0,355950
19,091833	0,5	0,353450
19,100167	0,5	0,356050
19,108500	0,5	0,354700
19,116833	0,5	0,357750
19,125167	0,5	0,350650
19,133500	0,5	0,358550
19,141833	0,5	0,359550
19,150167	0,5	0,357600
19,158500	0,5	0,351000
19,166833	0,5	0,343500
19,175167	0,5	0,342950
19,183500	0,5	0,349150
19,191833	0,5	0,346200
19,200167	0,5	0,354650
19,208500	0,5	0,350000
19,216833	0,5	0,356050
19,225167	0,5	0,355050
19,233500	0,5	0,357900
19,241833	0,5	0,354850
19,250167	0,5	0,359600
19,258500	0,5	0,367700
19,266833	0,5	0,363550
19,275167	0,5	0,365050
19,283500	0,5	0,374000
19,291833	0,5	0,375150
19,300167	0,5	0,370300
19,308500	0,5	0,364000
19,316833	0,5	0,359600
19,325167	0,5	0,371450
19,333500	0,5	0,373850
19,341833	0,5	0,375800
19,350167	0,5	0,378750
19,358500	0,5	0,383500
19,366833	0,5	0,382000
19,375167	0,5	0,386100
19,383500	0,5	0,391650
19,391833	0,5	0,394000
19,400167	0,5	0,406200
19,408500	0,5	0,408750
19,416833	0,5	0,398400
19,425167	0,5	0,399850
19,433500	0,5	0,398450
19,441833	0,5	0,387100
19,450167	0,5	0,374750
19,458500	0,5	0,356450
19,466833	0,5	0,355000
19,475167	0,5	0,341100
19,483500	0,5	0,346900
19,491833	0,5	0,344100
19,500167	0,5	0,344750
19,508500	0,5	0,344900
19,516833	0,5	0,344300
19,525167	0,5	0,339450
19,533500	0,5	0,340450
19,541833	0,5	0,347100
19,550167	0,5	0,354850
19,558500	0,5	0,346100
19,566833	0,5	0,346050
19,575167	0,5	0,351100
19,583500	0,5	0,353000
19,591833	0,5	0,350600
19,600167	0,5	0,335450
19,608500	0,5	0,332150
19,616833	0,5	0,326800
19,625167	0,5	0,331100
19,633500	0,5	0,329050
19,641833	0,5	0,329600
19,650167	0,5	0,326950
19,658500	0,5	0,334550
19,666833	0,5	0,327300
19,675167	0,5	0,326200
19,683500	0,5	0,328650
19,691833	0,5	0,334750
19,700167	0,5	0,341250
19,708500	0,5	0,329200
19,716833	0,5	0,332650
19,725167	0,5	0,339550
19,733500	0,5	0,331650
19,741833	0,5	0,332900
19,750167	0,5	0,320100
19,758500	0,5	0,327550
19,766833	0,5	0,329100
19,775167	0,5	0,328850
19,783500	0,5	0,332800
19,791833	0,5	0,339750
19,800167	0,5	0,346850
19,808500	0,5	0,346000
19,816833	0,5	0,355200
19,825167	0,5	0,357100
19,833500	0,5	0,363150
19,841833	0,5	0,376400
19,850167	0,5	0,374900
19,858500	0,5	0,364300
19,866833	0,5	0,374050
19,875167	0,5	0,380950
19,883500	0,5	0,378900
19,891833	0,5	0,369400
19,900167	0,5	0,362750
19,908500	0,5	0,374850
19,916833	0,5	0,375050
19,925167	0,5	0,378550
19,933500	0,5	0,377500
19,941833	0,5	0,383800
19,950167	0,5	0,381000
19,958500	0,5	0,384500
19,966833	0,5	0,376450
19,975167	0,5	0,377600
19,983500	0,5	0,381050
19,991833	0,5	0,393050
20,000167	0,5	0,380050
20,008500	0,5	0,387450
20,016833	0,5	0,387750
20,025167	0,5	0,389700
20,033500	0,5	0,381700
20,041833	0,5	0,374050
20,050167	0,5	0,377750
20,058500	0,5	0,378800
20,066833	0,5	0,375350
20,075167	0,5	0,375150
20,083500	0,5	0,375900
20,091833	0,5	0,377200
20,100167	0,5	0,384850
20,108500	0,5	0,390850
20,116833	0,5	0,401200
20,125167	0,5	0,398050
20,133500	0,5	0,408900
20,141833	0,5	0,407650
20,150167	0,5	0,393700
20,158500	0,5	0,398750
20,166833	0,5	0,394200
20,175167	0,5	0,388800
20,183500	0,5	0,378100
20,191833	0,5	0,364400
20,200167	0,5	0,364750
20,208500	0,5	0,365000
20,216833	0,5	0,363600
20,225167	0,5	0,363550
20,233500	0,5	0,370650
20,241833	0,5	0,375150
20,250167	0,5	0,375450
20,258500	0,5	0,374850
20,266833	0,5	0,375850
20,275167	0,5	0,385850
20,283500	0,5	0,388400
20,291833	0,5	0,392100
20,300167	0,5	0,383750
20,308500	0,5	0,396750
20,316833	0,5	0,392500
20,325167	0,5	0,393550
20,333500	0,5	0,382150
20,341833	0,5	0,373400
20,350167	0,5	0,380050
20,358500	0,5	0,386200
20,366833	0,5	0,384550
20,375167	0,5	0,389400
20,383500	0,5	0,389500
20,391833	0,5	0,395250
20,400167	0,5	0,401650
20,408500	0,5	0,404200
20,416833	0,5	0,408250
20,425167	0,5	0,414950
20,433500	0,5	0,423000
20,441833	0,5	0,416850
20,450167	0,5	0,426550
20,458500	0,5	0,425150
20,466833	0,5	0,428400
20,475167	0,5	0,421650
20,483500	0,5	0,417150
20,491833	0,5	0,416300
20,500167	0,5	0,418800
20,508500	0,5	0,417450
20,516833	0,5	0,420650
20,525167	0,5	0,424650
20,533500	0,5	0,429850
20,541833	0,5	0,433950
20,550167	0,5	0,435250
20,558500	0,5	0,434700
20,566833	0,5	0,437100
20,575167	0,5	0,458050
20,583500	0,5	0,460600
20,591833	0,5	0,459350
20,600167	0,5	0,468500
20,608500	0,5	0,469400
20,616833	0,5	0,467500
20,625167	0,5	0,460750
20,633500	0,5	0,462600
20,641833	0,5	0,473750
20,650167	0,5	0,470950
20,658500	0,5	0,481550
20,666833	0,5	0,490550
20,675167	0,5	0,498750
20,683500	0,5	0,502050
20,691833	0,5	0,506000
20,700167	0,5	0,508950
20,708500	0,5	0,516750
20,716833	0,5	0,531250
20,725167	0,5	0,546400
20,733500	0,5	0,549400
20,741833	0,5	0,552100
20,750167	0,5	0,561600
20,758500	0,5	0,560250
20,766833	0,5	0,569750
20,775167	0,5	0,559750
20,783500	0,5	0,568600
20,791833	0,5	0,574650
20,800167	0,5	0,583500
20,808500	0,5	0,578950
20,816833	0,5	0,587450
20,825167	0,5	0,588500
20,833500	0,5	0,594550
20,841833	0,5	0,597850
20,850167	0,5	0,593450
20,858500	0,5	0,599300
20,866833	0,5	0,622250
20,875167	0,5	0,631250
20,883500	0,5	0,627800
20,891833	0,5	0,638300
20,900167	0,5	0,641000
20,908500	0,5	0,645950
20,916833	0,5	0,644900
20,925167	0,5	0,656650
20,933500	0,5	0,673500
20,941833	0,5	0,692550
20,950167	0,5	0,698450
20,958500	0,5	0,710150
20,966833	0,5	0,718850
20,975167	0,5	0,729200
20,983500	0,5	0,735350
20,991833	0,5	0,739050
21,000167	0,5	0,750750
21,008500	0,5	0,759950
21,016833	0,5	0,781200
21,025167	0,5	0,789900
21,033500	0,5	0,790100
21,041833	0,5	0,794650
21,050167	0,5	0,791800
21,058500	0,5	0,786150
21,066833	0,5	0,790650
21,075167	0,5	0,801950
21,083500	0,5	0,817950
21,091833	0,5	0,822800
21,100167	0,5	0,833850
21,108500	0,5	0,836500
21,116833	0,5	0,846900
21,125167	0,5	0,855150
21,133500	0,5	0,865500
21,141833	0,5	0,874450
21,150167	0,5	0,876450
21,158500	0,5	0,912700
21,166833	0,5	0,929200
21,175167	0,5	0,935900
21,183500	0,5	0,946250
21,191833	0,5	0,958450
21,200167	0,5	0,969650
21,208500	0,5	0,981400
21,216833	0,5	0,987100
21,225167	0,5	1,022900
21,233500	0,5	1,046350
21,241833	0,5	1,066550
21,250167	0,5	1,066550
21,258500	0,5	1,076350
21,266833	0,5	1,067300
21,275167	0,5	1,061750
21,283500	0,5	1,059450
21,291833	0,5	1,052550
21,300167	0,5	1,059350
21,308500	0,5	1,075350
21,316833	0,5	1,085000
21,325167	0,5	1,083650
21,333500	0,5	1,095750
21,341833	0,5	1,098300
21,350167	0,5	1,104100
21,358500	0,5	1,104850
21,366833	0,5	1,111800
21,375167	0,5	1,116350
21,383500	0,5	1,133200
21,391833	0,5	1,138750
21,400167	0,5	1,149100
21,408500	0,5	1,156850
21,416833	0,5	1,171750
21,425167	0,5	1,186750
21,433500	0,5	1,199400
21,441833	0,5	1,216850
21,450167	0,5	1,251250
21,458500	0,5	1,278850
21,466833	0,5	1,295450
21,475167	0,5	1,310450
21,483500	0,5	1,321950
21,491833	0,5	1,327350
21,500167	0,5	1,323950
21,508500	0,5	1,334300
21,516833	0,5	1,352800
21,525167	0,5	1,374600
21,533500	0,5	1,390050
21,541833	0,5	1,410100
21,550167	0,5	1,429700
21,558500	0,5	1,458300
21,566833	0,5	1,479150
21,575167	0,5	1,495050
21,583500	0,5	1,510450
21,591833	0,5	1,521850
21,600167	0,5	1,546700
21,608500	0,5	1,555200
21,616833	0,5	1,555050
21,625167	0,5	1,558500
21,633500	0,5	1,567000
21,641833	0,5	1,560250
21,650167	0,5	1,562200
21,658500	0,5	1,583500
21,666833	0,5	1,601300
21,675167	0,5	1,619950
21,683500	0,5	1,638700
21,691833	0,5	1,651850
21,700167	0,5	1,669750
21,708500	0,5	1,681700
21,716833	0,5	1,700500
21,725167	0,5	1,724400
21,733500	0,5	1,742650
21,741833	0,5	1,781150
21,750167	0,5	1,812200
21,758500	0,5	1,827700
21,766833	0,5	1,851500
21,775167	0,5	1,881050
21,783500	0,5	1,897350
21,791833	0,5	1,923900
21,800167	0,5	1,941150
21,808500	0,5	1,976900
21,816833	0,5	2,000300
21,825167	0,5	2,027900
21,833500	0,5	2,043200
21,841833	0,5	2,067150
21,850167	0,5	2,083750
21,858500	0,5	2,107350
21,866833	0,5	2,126700
21,875167	0,5	2,146300
21,883500	0,5	2,168200
21,891833	0,5	2,196400
21,900167	0,5	2,217000
21,908500	0,5	2,233450
21,916833	0,5	2,264550
21,925167	0,5	2,286950
21,933500	0,5	2,298750
21,941833	0,5	2,316600
21,950167	0,5	2,344350
21,958500	0,5	2,376550
21,966833	0,5	2,401700
21,975167	0,5	2,422850
21,983500	0,5	2,460100
21,991833	0,5	2,484250
22,000167	0,5	2,519050
22,008500	0,5	2,551800
22,016833	0,5	2,579850
22,025167	0,5	2,617350
22,033500	0,5	2,651400
22,041833	0,5	2,702600
22,050167	0,5	2,724500
22,058500	0,5	2,773050
22,066833	0,5	2,793750
22,075167	0,5	2,815400
22,083500	0,5	2,825750
22,091833	0,5	2,832900
22,100167	0,5	2,862650
22,108500	0,5	2,896500
22,116833	0,5	2,926350
22,125167	0,5	2,957550
22,133500	0,5	2,987700
22,141833	0,5	3,021150
22,150167	0,5	3,051400
22,158500	0,5	3,085750
22,166833	0,5	3,119650
22,175167	0,5	3,147850
22,183500	0,5	3,185750
22,191833	0,5	3,209900
22,200167	0,5	3,255900
22,208500	0,5	3,302600
22,216833	0,5	3,346550
22,225167	0,5	3,380100
22,233500	0,5	3,421650
22,241833	0,5	3,453000
22,250167	0,5	3,497550
22,258500	0,5	3,540500
22,266833	0,5	3,592600
22,275167	0,5	3,637400
22,283500	0,5	3,688650
22,291833	0,5	3,736300
22,300167	0,5	3,793400
22,308500	0,5	3,852500
22,316833	0,5	3,915300
22,325167	0,5	3,964050
22,333500	0,5	4,015700
22,341833	0,5	4,084250
22,350167	0,5	4,144900
22,358500	0,5	4,199050
22,366833	0,5	4,236350
22,375167	0,5	4,273750
22,383500	0,5	4,305950
22,391833	0,5	4,350350
22,400167	0,5	4,399650
22,408500	0,5	4,451750
22,416833	0,5	4,490550
22,425167	0,5	4,546450
22,433500	0,5	4,600500
22,441833	0,5	4,658550
22,450167	0,5	4,716850
22,458500	0,5	4,773500
22,466833	0,5	4,837050
22,475167	0,5	4,872100
22,483500	0,5	4,946300
22,491833	0,5	5,017600
22,500167	0,5	5,091100
22,508500	0,5	5,137050
22,516833	0,5	5,181550
22,525167	0,5	5,205150
22,533500	0,5	5,251600
22,541833	0,5	5,290600
22,550167	0,5	5,334300
22,558500	0,5	5,365600
22,566833	0,5	5,394400
22,575167	0,5	5,419750
22,583500	0,5	5,439150
22,591833	0,5	5,461100
22,600167	0,5	5,466800
22,608500	0,5	5,467800
22,616833	0,5	5,432250
22,625167	0,5	5,426750
22,633500	0,5	5,418150
22,641833	0,5	5,425750
22,650167	0,5	5,400900
22,658500	0,5	5,363100
22,666833	0,5	5,308300
22,675167	0,5	5,248150
22,683500	0,5	5,200550
22,691833	0,5	5,142900
22,700167	0,5	5,075750
22,708500	0,5	4,996350
22,716833	0,5	4,915550
22,725167	0,5	4,838400
22,733500	0,5	4,750100
22,741833	0,5	4,656250
22,750167	0,5	4,558950
22,758500	0,5	4,447700
22,766833	0,5	4,304750
22,775167	0,5	4,197750
22,783500	0,5	4,114400
22,791833	0,5	3,999950
22,800167	0,5	3,874900
22,808500	0,5	3,748100
22,816833	0,5	3,619300
22,825167	0,5	3,482050
22,833500	0,5	3,348750
22,841833	0,5	3,208700
22,850167	0,5	3,068900
22,858500	0,5	2,926550
22,866833	0,5	2,778250
22,875167	0,5	2,634000
22,883500	0,5	2,483150
22,891833	0,5	2,336600
22,900167	0,5	2,199950
22,908500	0,5	2,065050
22,916833	0,5	1,904650
22,925167	0,5	1,773950
22,933500	0,5	1,633900
22,941833	0,5	1,481700
22,950167	0,5	1,348650
22,958500	0,5	1,215850
22,966833	0,5	1,108350
22,975167	0,5	0,972200
22,983500	0,5	0,852150
22,991833	0,5	0,732550
23,000167	0,5	0,628600
23,008500	0,5	0,521700
23,016833	0,5	0,415400
23,025167	0,5	0,316750
23,033500	0,5	0,218850
23,041833	0,5	0,134900
23,050167	0,5	0,043600
23,058500	0,5	-0,026150
23,066833	0,5	-0,100450
23,075167	0,5	-0,191050
23,083500	0,5	-0,301150
23,091833	0,5	-0,367400
23,100167	0,5	-0,442300
23,108500	0,5	-0,499900
23,116833	0,5	-0,560050
23,125167	0,5	-0,627550
23,133500	0,5	-0,687050
23,141833	0,5	-0,733950
23,150167	0,5	-0,787100
23,158500	0,5	-0,830850
23,166833	0,5	-0,880600
23,175167	0,5	-0,921450
23,183500	0,5	-0,962900
23,191833	0,5	-1,002000
23,200167	0,5	-1,020550
23,208500	0,5	-1,080750
23,216833	0,5	-1,091950
23,225167	0,5	-1,132000
23,233500	0,5	-1,193000
23,241833	0,5	-1,225600
23,250167	0,5	-1,244150
23,258500	0,5	-1,273050
23,266833	0,5	-1,286000
23,275167	0,5	-1,314700
23,283500	0,5	-1,328950
23,291833	0,5	-1,350350
23,300167	0,5	-1,363050
23,308500	0,5	-1,380800
23,316833	0,5	-1,390750
23,325167	0,5	-1,405650
23,333500	0,5	-1,413900
23,341833	0,5	-1,423450
23,350167	0,5	-1,441750
23,358500	0,5	-1,461800
23,366833	0,5	-1,436700
23,375167	0,5	-1,449500
23,383500	0,5	-1,480250
23,391833	0,5	-1,487750
23,400167	0,5	-1,494550
23,408500	0,5	-1,498550
23,416833	0,5	-1,500650
23,425167	0,5	-1,507050
23,433500	0,5	-1,513100
23,441833	0,5	-1,506900
23,450167	0,5	-1,510000
23,458500	0,5	-1,507200
23,466833	0,5	-1,507900
23,475167	0,5	-1,503050
23,483500	0,5	-1,498200
23,491833	0,5	-1,495300
23,500167	0,5	-1,563950
23,508500	0,5	-1,535000
23,516833	0,5	-1,487850
23,525167	0,5	-1,481400
23,533500	0,5	-1,487400
23,541833	0,5	-1,491200
23,550167	0,5	-1,490000
23,558500	0,5	-1,487700
23,566833	0,5	-1,486150
23,575167	0,5	-1,484400
23,583500	0,5	-1,481500
23,591833	0,5	-1,475700
23,600167	0,5	-1,474700
23,608500	0,5	-1,468250
23,616833	0,5	-1,461400
23,625167	0,5	-1,458400
23,633500	0,5	-1,450250
23,641833	0,5	-1,468800
23,650167	0,5	-1,524150
23,658500	0,5	-1,487550
23,666833	0,5	-1,431450
23,675167	0,5	-1,414500
23,683500	0,5	-1,407150
23,691833	0,5	-1,403300
23,700167	0,5	-1,400000
23,708500	0,5	-1,390950
23,716833	0,5	-1,381000
23,725167	0,5	-1,371650
23,733500	0,5	-1,361500
23,741833	0,5	-1,353600
23,750167	0,5	-1,344250
23,758500	0,5	-1,331950
23,766833	0,5	-1,322350
23,775167	0,5	-1,314950
23,783500	0,5	-1,309050
23,791833	0,5	-1,414250
23,800167	0,5	-1,370450
23,808500	0,5	-1,351950
23,816833	0,5	-1,284400
23,825167	0,5	-1,268850
23,833500	0,5	-1,255250
23,841833	0,5	-1,248000
23,850167	0,5	-1,242600
23,858500	0,5	-1,227450
23,866833	0,5	-1,213100
23,875167	0,5	-1,203850
23,883500	0,5	-1,189850
23,891833	0,5	-1,177400
23,900167	0,5	-1,164600
23,908500	0,5	-1,145350
23,916833	0,5	-1,132700
23,925167	0,5	-1,119850
23,933500	0,5	-1,124450
23,941833	0,5	-1,213750
23,950167	0,5	-1,170350
23,958500	0,5	-1,129250
23,966833	0,5	-1,082400
23,975167	0,5	-1,061650
23,983500	0,5	-1,051250
23,991833	0,5	-1,038700
24,000167	0,5	-1,039550
24,008500	0,5	-1,018150
24,016833	0,5	-1,008400
24,025167	0,5	-0,993400
24,033500	0,5	-0,985050
24,041833	0,5	-0,966050
24,050167	0,5	-0,948500
24,058500	0,5	-0,936100
24,066833	0,5	-0,923600
24,075167	0,5	-0,913600
24,083500	0,5	-0,969850
24,091833	0,5	-0,991800
24,100167	0,5	-0,939800
24,108500	0,5	-0,902550
24,116833	0,5	-0,859300
24,125167	0,5	-0,844450
24,133500	0,5	-0,826900
24,141833	0,5	-0,828000
24,150167	0,5	-0,821500
24,158500	0,5	-0,805750
24,166833	0,5	-0,789900
24,175167	0,5	-0,777800
24,183500	0,5	-0,763500
24,191833	0,5	-0,751750
24,200167	0,5	-0,736600
24,208500	0,5	-0,724550
24,216833	0,5	-0,717300
24,225167	0,5	-0,703750
24,233500	0,5	-0,785750
24,241833	0,5	-0,752050
24,250167	0,5	-0,728000
24,258500	0,5	-0,686150
24,266833	0,5	-0,666050
24,275167	0,5	-0,648500
24,283500	0,5	-0,638800
24,291833	0,5	-0,636900
24,300167	0,5	-0,632300
24,308500	0,5	-0,613250
24,316833	0,5	-0,607400
24,325167	0,5	-0,589100
24,333500	0,5	-0,578100
24,341833	0,5	-0,564850
24,350167	0,5	-0,556600
24,358500	0,5	-0,544350
24,366833	0,5	-0,538200
24,375167	0,5	-0,543500
24,383500	0,5	-0,591200
24,391833	0,5	-0,567450
24,400167	0,5	-0,538150
24,408500	0,5	-0,507050
24,416833	0,5	-0,493400
24,425167	0,5	-0,486350
24,433500	0,5	-0,484650
24,441833	0,5	-0,485500
24,450167	0,5	-0,471500
24,458500	0,5	-0,470900
24,466833	0,5	-0,454350
24,475167	0,5	-0,446400
24,483500	0,5	-0,432850
24,491833	0,5	-0,425050
24,500167	0,5	-0,412700
24,508500	0,5	-0,404600
24,516833	0,5	-0,400150
24,525167	0,5	-0,426500
24,533500	0,5	-0,430950
24,541833	0,5	-0,418150
24,550167	0,5	-0,388800
24,558500	0,5	-0,370100
24,566833	0,5	-0,362900
24,575167	0,5	-0,358050
24,583500	0,5	-0,359250
24,591833	0,5	-0,355050
24,600167	0,5	-0,348200
24,608500	0,5	-0,337550
24,616833	0,5	-0,335800
24,625167	0,5	-0,328350
24,633500	0,5	-0,323700
24,641833	0,5	-0,312350
24,650167	0,5	-0,307550
24,658500	0,5	-0,303400
24,666833	0,5	-0,297700
24,675167	0,5	-0,333350
24,683500	0,5	-0,316350
24,691833	0,5	-0,308000
24,700167	0,5	-0,285150
24,708500	0,5	-0,274500
24,716833	0,5	-0,267900
24,725167	0,5	-0,263200
24,733500	0,5	-0,267550
24,741833	0,5	-0,263200
24,750167	0,5	-0,259550
24,758500	0,5	-0,253200
24,766833	0,5	-0,246300
24,775167	0,5	-0,244350
24,783500	0,5	-0,238550
24,791833	0,5	-0,237600
24,800167	0,5	-0,230600
24,808500	0,5	-0,230100
24,816833	0,5	-0,231350
24,825167	0,5	-0,252150
24,833500	0,5	-0,236600
24,841833	0,5	-0,227400
24,850167	0,5	-0,214100
24,858500	0,5	-0,209850
24,866833	0,5	-0,202050
24,875167	0,5	-0,205850
24,883500	0,5	-0,205050
24,891833	0,5	-0,197800
24,900167	0,5	-0,191800
24,908500	0,5	-0,188750
24,916833	0,5	-0,185650
24,925167	0,5	-0,183450
24,933500	0,5	-0,182450
24,941833	0,5	-0,180650
24,950167	0,5	-0,178400
24,958500	0,5	-0,173700
24,966833	0,5	-0,186300
24,975167	0,5	-0,182250
24,983500	0,5	-0,180900
24,991833	0,5	-0,170750
25,000167	0,5	-0,162150
25,008500	0,5	-0,160350
25,016833	0,5	-0,159950
25,025167	0,5	-0,163050
25,033500	0,5	-0,162450
25,041833	0,5	-0,161150
25,050167	0,5	-0,157850
25,058500	0,5	-0,152600
25,066833	0,5	-0,151900
25,075167	0,5	-0,149350
25,083500	0,5	-0,145050
25,091833	0,5	-0,141650
25,100167	0,5	-0,141050
25,108500	0,5	-0,141850
25,116833	0,5	-0,151700
25,125167	0,5	-0,145500
25,133500	0,5	-0,144400
25,141833	0,5	-0,135900
25,150167	0,5	-0,133000
25,158500	0,5	-0,133000
25,166833	0,5	-0,133100
25,175167	0,5	-0,133800
25,183500	0,5	-0,136450
25,191833	0,5	-0,129550
25,200167	0,5	-0,128250
25,208500	0,5	-0,127500
25,216833	0,5	-0,125600
25,225167	0,5	-0,127300
25,233500	0,5	-0,125800
25,241833	0,5	-0,122650
25,250167	0,5	-0,125950
25,258500	0,5	-0,122400
25,266833	0,5	-0,124500
25,275167	0,5	-0,119700
25,283500	0,5	-0,120400
25,291833	0,5	-0,119600
25,300167	0,5	-0,115550
25,308500	0,5	-0,113450
25,316833	0,5	-0,113450
25,325167	0,5	-0,115200
25,333500	0,5	-0,118350
25,341833	0,5	-0,117250
25,350167	0,5	-0,116400
25,358500	0,5	-0,115250
25,366833	0,5	-0,116450
25,375167	0,5	-0,113900
25,383500	0,5	-0,112900
25,391833	0,5	-0,110750
25,400167	0,5	-0,111300
25,408500	0,5	-0,109450
25,416833	0,5	-0,109500
25,425167	0,5	-0,106950
25,433500	0,5	-0,106150
25,441833	0,5	-0,109750
25,450167	0,5	-0,106650
25,458500	0,5	-0,108000
25,466833	0,5	-0,108450
25,475167	0,5	-0,103900
25,483500	0,5	-0,107550
25,491833	0,5	-0,105550
25,500167	0,5	-0,104700
25,508500	0,5	-0,102400
25,516833	0,5	-0,105700
25,525167	0,5	-0,104200
25,533500	0,5	-0,105550
25,541833	0,5	-0,105400
25,550167	0,5	-0,103300
25,558500	0,5	-0,100650
25,566833	0,5	-0,099000
25,575167	0,5	-0,096900
25,583500	0,5	-0,100750
25,591833	0,5	-0,102500
25,600167	0,5	-0,097000
25,608500	0,5	-0,098300
25,616833	0,5	-0,096400
25,625167	0,5	-0,096600
25,633500	0,5	-0,098200
25,641833	0,5	-0,097050
25,650167	0,5	-0,094600
25,658500	0,5	-0,094700
25,666833	0,5	-0,093050
25,675167	0,5	-0,095100
25,683500	0,5	-0,093050
25,691833	0,5	-0,095350
25,700167	0,5	-0,095500
25,708500	0,5	-0,091400
25,716833	0,5	-0,090700
25,725167	0,5	-0,086500
25,733500	0,5	-0,096550
25,741833	0,5	-0,094200
25,750167	0,5	-0,094250
25,758500	0,5	-0,091600
25,766833	0,5	-0,086600
25,775167	0,5	-0,088450
25,783500	0,5	-0,089850
25,791833	0,5	-0,085200
25,800167	0,5	-0,084100
25,808500	0,5	-0,085300
25,816833	0,5	-0,085350
25,825167	0,5	-0,084750
25,833500	0,5	-0,089500
25,841833	0,5	-0,084300
25,850167	0,5	-0,081500
25,858500	0,5	-0,079450
25,866833	0,5	-0,078400
25,875167	0,5	-0,077350
25,883500	0,5	-0,083000
25,891833	0,5	-0,083650
25,900167	0,5	-0,081000
25,908500	0,5	-0,076150
25,916833	0,5	-0,072300
25,925167	0,5	-0,078950
25,933500	0,5	-0,077300
25,941833	0,5	-0,075700
25,950167	0,5	-0,074400
25,958500	0,5	-0,072600
25,966833	0,5	-0,071450
25,975167	0,5	-0,073700
25,983500	0,5	-0,072300
25,991833	0,5	-0,071400
26,000167	0,5	-0,065000
