File Path	chrom://chromeleon01/ikbm_chromeleon/2022/ICS-5000/ED1/Esteban/20220612_Cell_7_4_eg.seq/390.smp/ED_1.channel/ED_1.chm
Channel	ED_1

Injection Information:
Data Vault	ikbm_chromeleon
Injection	7_24h-NT-pH6_NA
Injection Number	18
Position	RB5
Comment	
Processing Method	Stop sequence after Cell Death
Instrument Method	ICS5000_PA200_FullNative_Ox_26min_ED1
Type	Unknown
Status	Finished
Injection Date	13.06.2022
Injection Time	00:07:58
Injection Volume (µl)	5,0
Dilution Factor	1,0000
Weight	1,0000

Chromatogram Data Information:
Time Min. (min)	0,000167
Time Max. (min)	26,000167
Data Points	3121
Detector	EDet1
Generating Data System	Chromeleon 7.2.9.11323
Exporting Data System	Chromeleon 7.2.9.0
Operator	Instrument Controller
Signal Quantity	
Signal Unit	nC
Signal Min.	-1,613450
Signal Max.	995,758265
Channel	ED_1
Driver Name	DC-5000
Channel Type	Evaluation
Min. Step (s)	0,5
Max. Step (s)	0,5
Average Step (s)	0,5

Signal Parameter Information:
Signal Info	

Chromatogram Data:
Time (min)	Step (s)	Value (nC)
0,000167	n.a.	-0,001000
0,008500	0,5	-0,036700
0,016833	0,5	-0,027850
0,025167	0,5	-0,021700
0,033500	0,5	-0,008500
0,041833	0,5	-0,005900
0,050167	0,5	-0,004550
0,058500	0,5	-0,004500
0,066833	0,5	-0,001350
0,075167	0,5	0,005600
0,083500	0,5	0,004850
0,091833	0,5	0,003000
0,100167	0,5	-0,005450
0,108500	0,5	0,016800
0,116833	0,5	-0,008500
0,125167	0,5	-0,005000
0,133500	0,5	-0,004750
0,141833	0,5	0,008750
0,150167	0,5	0,028150
0,158500	0,5	0,024300
0,166833	0,5	0,018000
0,175167	0,5	0,026550
0,183500	0,5	0,020350
0,191833	0,5	0,026850
0,200167	0,5	0,019800
0,208500	0,5	0,020550
0,216833	0,5	0,013400
0,225167	0,5	0,016600
0,233500	0,5	0,017150
0,241833	0,5	0,008000
0,250167	0,5	0,012400
0,258500	0,5	0,015900
0,266833	0,5	0,003700
0,275167	0,5	0,005000
0,283500	0,5	0,010050
0,291833	0,5	0,037600
0,300167	0,5	0,068150
0,308500	0,5	0,065650
0,316833	0,5	0,046100
0,325167	0,5	0,025250
0,333500	0,5	0,018800
0,341833	0,5	0,013800
0,350167	0,5	0,016050
0,358500	0,5	0,017300
0,366833	0,5	0,021600
0,375167	0,5	0,021550
0,383500	0,5	0,013550
0,391833	0,5	0,006100
0,400167	0,5	0,020850
0,408500	0,5	0,010850
0,416833	0,5	0,008500
0,425167	0,5	0,008700
0,433500	0,5	0,019850
0,441833	0,5	0,032800
0,450167	0,5	0,041500
0,458500	0,5	0,042450
0,466833	0,5	0,038150
0,475167	0,5	0,038100
0,483500	0,5	0,033850
0,491833	0,5	0,036750
0,500167	0,5	0,031500
0,508500	0,5	0,033650
0,516833	0,5	0,029400
0,525167	0,5	0,029750
0,533500	0,5	0,019400
0,541833	0,5	0,029300
0,550167	0,5	0,036500
0,558500	0,5	0,028850
0,566833	0,5	0,022300
0,575167	0,5	0,026250
0,583500	0,5	0,035700
0,591833	0,5	0,051000
0,600167	0,5	0,057400
0,608500	0,5	0,058050
0,616833	0,5	0,055550
0,625167	0,5	0,054350
0,633500	0,5	0,053850
0,641833	0,5	0,050950
0,650167	0,5	0,054900
0,658500	0,5	0,048050
0,666833	0,5	0,055100
0,675167	0,5	0,052400
0,683500	0,5	0,049700
0,691833	0,5	0,061500
0,700167	0,5	0,061950
0,708500	0,5	0,046500
0,716833	0,5	0,048350
0,725167	0,5	0,052700
0,733500	0,5	0,073150
0,741833	0,5	0,082050
0,750167	0,5	0,080150
0,758500	0,5	0,078500
0,766833	0,5	0,082100
0,775167	0,5	0,082850
0,783500	0,5	0,085250
0,791833	0,5	0,083850
0,800167	0,5	0,082400
0,808500	0,5	0,086500
0,816833	0,5	0,081400
0,825167	0,5	0,079000
0,833500	0,5	0,076950
0,841833	0,5	0,098750
0,850167	0,5	0,084300
0,858500	0,5	0,079550
0,866833	0,5	0,081950
0,875167	0,5	0,087950
0,883500	0,5	0,105100
0,891833	0,5	0,104950
0,900167	0,5	0,100650
0,908500	0,5	0,108300
0,916833	0,5	0,107400
0,925167	0,5	0,114150
0,933500	0,5	0,116650
0,941833	0,5	0,114650
0,950167	0,5	0,114900
0,958500	0,5	0,113550
0,966833	0,5	0,117100
0,975167	0,5	0,105600
0,983500	0,5	0,105450
0,991833	0,5	0,129350
1,000167	0,5	0,109350
1,008500	0,5	0,108350
1,016833	0,5	0,114550
1,025167	0,5	0,124350
1,033500	0,5	0,150250
1,041833	0,5	0,138250
1,050167	0,5	0,144250
1,058500	0,5	0,138600
1,066833	0,5	0,144950
1,075167	0,5	0,139050
1,083500	0,5	0,146700
1,091833	0,5	0,141850
1,100167	0,5	0,144300
1,108500	0,5	0,145550
1,116833	0,5	0,148100
1,125167	0,5	0,140200
1,133500	0,5	0,145250
1,141833	0,5	0,149950
1,150167	0,5	0,137200
1,158500	0,5	0,137600
1,166833	0,5	0,141850
1,175167	0,5	0,149650
1,183500	0,5	0,161300
1,191833	0,5	0,162100
1,200167	0,5	0,156200
1,208500	0,5	0,161700
1,216833	0,5	0,160650
1,225167	0,5	0,162450
1,233500	0,5	0,157300
1,241833	0,5	0,158700
1,250167	0,5	0,151200
1,258500	0,5	0,151450
1,266833	0,5	0,152350
1,275167	0,5	0,150300
1,283500	0,5	0,152600
1,291833	0,5	0,152600
1,300167	0,5	0,132900
1,308500	0,5	0,138050
1,316833	0,5	0,138800
1,325167	0,5	0,150150
1,333500	0,5	0,158650
1,341833	0,5	0,149400
1,350167	0,5	0,150000
1,358500	0,5	0,148400
1,366833	0,5	0,145000
1,375167	0,5	0,134800
1,383500	0,5	0,132900
1,391833	0,5	0,128150
1,400167	0,5	0,131600
1,408500	0,5	0,128600
1,416833	0,5	0,117350
1,425167	0,5	0,108600
1,433500	0,5	0,119400
1,441833	0,5	0,108100
1,450167	0,5	0,101800
1,458500	0,5	0,103350
1,466833	0,5	0,108500
1,475167	0,5	0,119700
1,483500	0,5	0,123700
1,491833	0,5	0,117700
1,500167	0,5	0,115350
1,508500	0,5	0,107100
1,516833	0,5	0,106200
1,525167	0,5	0,103350
1,533500	0,5	0,094100
1,541833	0,5	0,090100
1,550167	0,5	0,085900
1,558500	0,5	0,095950
1,566833	0,5	0,094200
1,575167	0,5	0,096200
1,583500	0,5	0,497450
1,591833	0,5	4,061350
1,600167	0,5	20,170250
1,608500	0,5	75,829901
1,616833	0,5	227,951953
1,625167	0,5	508,810558
1,633500	0,5	821,176812
1,641833	0,5	995,758265
1,650167	0,5	952,092714
1,658500	0,5	759,843961
1,666833	0,5	545,547508
1,675167	0,5	378,087606
1,683500	0,5	264,097704
1,691833	0,5	190,022953
1,700167	0,5	142,288152
1,708500	0,5	110,934202
1,716833	0,5	89,276901
1,725167	0,5	73,327551
1,733500	0,5	61,160301
1,741833	0,5	51,877601
1,750167	0,5	44,816651
1,758500	0,5	39,365951
1,766833	0,5	35,141251
1,775167	0,5	31,809200
1,783500	0,5	29,178600
1,791833	0,5	27,087400
1,800167	0,5	25,485400
1,808500	0,5	24,232800
1,816833	0,5	23,175600
1,825167	0,5	22,062750
1,833500	0,5	20,798400
1,841833	0,5	19,484100
1,850167	0,5	18,281200
1,858500	0,5	17,268950
1,866833	0,5	16,462750
1,875167	0,5	16,008450
1,883500	0,5	16,091050
1,891833	0,5	17,338300
1,900167	0,5	20,789550
1,908500	0,5	26,799800
1,916833	0,5	32,789100
1,925167	0,5	34,578301
1,933500	0,5	31,455900
1,941833	0,5	26,143950
1,950167	0,5	21,035750
1,958500	0,5	17,211300
1,966833	0,5	14,742500
1,975167	0,5	13,280800
1,983500	0,5	12,317200
1,991833	0,5	11,590000
2,000167	0,5	11,035900
2,008500	0,5	10,657450
2,016833	0,5	10,433750
2,025167	0,5	10,285850
2,033500	0,5	10,048450
2,041833	0,5	9,774900
2,050167	0,5	9,490700
2,058500	0,5	9,259650
2,066833	0,5	9,106900
2,075167	0,5	8,977050
2,083500	0,5	8,915550
2,091833	0,5	8,903350
2,100167	0,5	8,890400
2,108500	0,5	8,764350
2,116833	0,5	8,532350
2,125167	0,5	8,270000
2,133500	0,5	8,065250
2,141833	0,5	7,960050
2,150167	0,5	7,980900
2,158500	0,5	8,136150
2,166833	0,5	8,440550
2,175167	0,5	8,896500
2,183500	0,5	9,802900
2,191833	0,5	12,065150
2,200167	0,5	15,437800
2,208500	0,5	15,613850
2,216833	0,5	12,525700
2,225167	0,5	10,115450
2,233500	0,5	9,041450
2,241833	0,5	8,619450
2,250167	0,5	8,428400
2,258500	0,5	8,330500
2,266833	0,5	8,263850
2,275167	0,5	8,220600
2,283500	0,5	8,202400
2,291833	0,5	8,214000
2,300167	0,5	8,256750
2,308500	0,5	8,333200
2,316833	0,5	8,428250
2,325167	0,5	8,537000
2,333500	0,5	8,676200
2,341833	0,5	8,911750
2,350167	0,5	9,313350
2,358500	0,5	9,992800
2,366833	0,5	11,138000
2,375167	0,5	13,179850
2,383500	0,5	16,941500
2,391833	0,5	23,328250
2,400167	0,5	31,948450
2,408500	0,5	39,901651
2,416833	0,5	43,285551
2,425167	0,5	40,791251
2,433500	0,5	34,702501
2,441833	0,5	28,193300
2,450167	0,5	23,029900
2,458500	0,5	19,397150
2,466833	0,5	16,933350
2,475167	0,5	15,184000
2,483500	0,5	13,919550
2,491833	0,5	12,987300
2,500167	0,5	12,321050
2,508500	0,5	11,832350
2,516833	0,5	11,458850
2,525167	0,5	11,141150
2,533500	0,5	10,883450
2,541833	0,5	10,685450
2,550167	0,5	10,572550
2,558500	0,5	10,549600
2,566833	0,5	10,641350
2,575167	0,5	10,947100
2,583500	0,5	11,671950
2,591833	0,5	13,062150
2,600167	0,5	15,136850
2,608500	0,5	17,407250
2,616833	0,5	18,885800
2,625167	0,5	18,846550
2,633500	0,5	17,418200
2,641833	0,5	15,339000
2,650167	0,5	13,364450
2,658500	0,5	11,867000
2,666833	0,5	10,854950
2,675167	0,5	10,220500
2,683500	0,5	9,809250
2,691833	0,5	9,545250
2,700167	0,5	9,335450
2,708500	0,5	9,158650
2,716833	0,5	8,997800
2,725167	0,5	8,861650
2,733500	0,5	8,743900
2,741833	0,5	8,637950
2,750167	0,5	8,536050
2,758500	0,5	8,444400
2,766833	0,5	8,311950
2,775167	0,5	8,157000
2,783500	0,5	7,985850
2,791833	0,5	7,803700
2,800167	0,5	7,633800
2,808500	0,5	7,454550
2,816833	0,5	7,283550
2,825167	0,5	7,121900
2,833500	0,5	6,976400
2,841833	0,5	6,830450
2,850167	0,5	6,704150
2,858500	0,5	6,577850
2,866833	0,5	6,458800
2,875167	0,5	6,333250
2,883500	0,5	6,207750
2,891833	0,5	6,086650
2,900167	0,5	5,957650
2,908500	0,5	5,847500
2,916833	0,5	5,720550
2,925167	0,5	5,613450
2,933500	0,5	5,510000
2,941833	0,5	5,419000
2,950167	0,5	5,342050
2,958500	0,5	5,251550
2,966833	0,5	5,158500
2,975167	0,5	5,077150
2,983500	0,5	4,985350
2,991833	0,5	4,902900
3,000167	0,5	4,811950
3,008500	0,5	4,732500
3,016833	0,5	4,651200
3,025167	0,5	4,578250
3,033500	0,5	4,501650
3,041833	0,5	4,423750
3,050167	0,5	4,335850
3,058500	0,5	4,265850
3,066833	0,5	4,160350
3,075167	0,5	4,073450
3,083500	0,5	3,987400
3,091833	0,5	3,909900
3,100167	0,5	3,844850
3,108500	0,5	3,761800
3,116833	0,5	3,692050
3,125167	0,5	3,623500
3,133500	0,5	3,560400
3,141833	0,5	3,495650
3,150167	0,5	3,439550
3,158500	0,5	3,379850
3,166833	0,5	3,332950
3,175167	0,5	3,279650
3,183500	0,5	3,229050
3,191833	0,5	3,169350
3,200167	0,5	3,121650
3,208500	0,5	3,073850
3,216833	0,5	3,014500
3,225167	0,5	2,965300
3,233500	0,5	2,924850
3,241833	0,5	2,893000
3,250167	0,5	2,878150
3,258500	0,5	2,850150
3,266833	0,5	2,840000
3,275167	0,5	2,836700
3,283500	0,5	2,841900
3,291833	0,5	2,854350
3,300167	0,5	2,878600
3,308500	0,5	2,926750
3,316833	0,5	2,998350
3,325167	0,5	3,126100
3,333500	0,5	3,328950
3,341833	0,5	3,671500
3,350167	0,5	4,208100
3,358500	0,5	4,958200
3,366833	0,5	5,906450
3,375167	0,5	6,995450
3,383500	0,5	8,053600
3,391833	0,5	8,926150
3,400167	0,5	9,458900
3,408500	0,5	9,626700
3,416833	0,5	9,521250
3,425167	0,5	9,320550
3,433500	0,5	9,165000
3,441833	0,5	9,124450
3,450167	0,5	9,136950
3,458500	0,5	9,060750
3,466833	0,5	8,759200
3,475167	0,5	8,160650
3,483500	0,5	7,319400
3,491833	0,5	6,352350
3,500167	0,5	5,414450
3,508500	0,5	4,575700
3,516833	0,5	3,916900
3,525167	0,5	3,438250
3,533500	0,5	3,116900
3,541833	0,5	2,899000
3,550167	0,5	2,747250
3,558500	0,5	2,629150
3,566833	0,5	2,546950
3,575167	0,5	2,473400
3,583500	0,5	2,421700
3,591833	0,5	2,373300
3,600167	0,5	2,344750
3,608500	0,5	2,322400
3,616833	0,5	2,317750
3,625167	0,5	2,319400
3,633500	0,5	2,317750
3,641833	0,5	2,332100
3,650167	0,5	2,346850
3,658500	0,5	2,345150
3,666833	0,5	2,339700
3,675167	0,5	2,331400
3,683500	0,5	2,319050
3,691833	0,5	2,302150
3,700167	0,5	2,260850
3,708500	0,5	2,220700
3,716833	0,5	2,171100
3,725167	0,5	2,124450
3,733500	0,5	2,070450
3,741833	0,5	2,025650
3,750167	0,5	2,025200
3,758500	0,5	1,937450
3,766833	0,5	1,901700
3,775167	0,5	1,866650
3,783500	0,5	1,837650
3,791833	0,5	1,834700
3,800167	0,5	1,814400
3,808500	0,5	1,792950
3,816833	0,5	1,776850
3,825167	0,5	1,754800
3,833500	0,5	1,741300
3,841833	0,5	1,708550
3,850167	0,5	1,669450
3,858500	0,5	1,629400
3,866833	0,5	1,596800
3,875167	0,5	1,562650
3,883500	0,5	1,532400
3,891833	0,5	1,506450
3,900167	0,5	1,485050
3,908500	0,5	1,460900
3,916833	0,5	1,441450
3,925167	0,5	1,420650
3,933500	0,5	1,395250
3,941833	0,5	1,389650
3,950167	0,5	1,367850
3,958500	0,5	1,351000
3,966833	0,5	1,344000
3,975167	0,5	1,342600
3,983500	0,5	1,355950
3,991833	0,5	1,352750
4,000167	0,5	1,349950
4,008500	0,5	1,352300
4,016833	0,5	1,359950
4,025167	0,5	1,356950
4,033500	0,5	1,363800
4,041833	0,5	1,371750
4,050167	0,5	1,382450
4,058500	0,5	1,403900
4,066833	0,5	1,441750
4,075167	0,5	1,508550
4,083500	0,5	1,594900
4,091833	0,5	1,749800
4,100167	0,5	1,926300
4,108500	0,5	2,174800
4,116833	0,5	2,453750
4,125167	0,5	2,740050
4,133500	0,5	2,989350
4,141833	0,5	3,134700
4,150167	0,5	3,159350
4,158500	0,5	3,074600
4,166833	0,5	2,886500
4,175167	0,5	2,639350
4,183500	0,5	2,372250
4,191833	0,5	2,113500
4,200167	0,5	1,893750
4,208500	0,5	1,707600
4,216833	0,5	1,573700
4,225167	0,5	1,463250
4,233500	0,5	1,386650
4,241833	0,5	1,330900
4,250167	0,5	1,279050
4,258500	0,5	1,248300
4,266833	0,5	1,227650
4,275167	0,5	1,217500
4,283500	0,5	1,215100
4,291833	0,5	1,200350
4,300167	0,5	1,197100
4,308500	0,5	1,193000
4,316833	0,5	1,195250
4,325167	0,5	1,190550
4,333500	0,5	1,189700
4,341833	0,5	1,181150
4,350167	0,5	1,169650
4,358500	0,5	1,160450
4,366833	0,5	1,141650
4,375167	0,5	1,133400
4,383500	0,5	1,129150
4,391833	0,5	1,119350
4,400167	0,5	1,110450
4,408500	0,5	1,112200
4,416833	0,5	1,122200
4,425167	0,5	1,143700
4,433500	0,5	1,158950
4,441833	0,5	1,177550
4,450167	0,5	1,186500
4,458500	0,5	1,206800
4,466833	0,5	1,214450
4,475167	0,5	1,222300
4,483500	0,5	1,219250
4,491833	0,5	1,212350
4,500167	0,5	1,204500
4,508500	0,5	1,189800
4,516833	0,5	1,170800
4,525167	0,5	1,153350
4,533500	0,5	1,137700
4,541833	0,5	1,111050
4,550167	0,5	1,086150
4,558500	0,5	1,072350
4,566833	0,5	1,064800
4,575167	0,5	1,060450
4,583500	0,5	1,050800
4,591833	0,5	1,034100
4,600167	0,5	1,031050
4,608500	0,5	1,023400
4,616833	0,5	1,022700
4,625167	0,5	1,017800
4,633500	0,5	1,017800
4,641833	0,5	1,019050
4,650167	0,5	1,022550
4,658500	0,5	1,029550
4,666833	0,5	1,049700
4,675167	0,5	1,074150
4,683500	0,5	1,106050
4,691833	0,5	1,151500
4,700167	0,5	1,225450
4,708500	0,5	1,322700
4,716833	0,5	1,452550
4,725167	0,5	1,604850
4,733500	0,5	1,755200
4,741833	0,5	1,915950
4,750167	0,5	2,056050
4,758500	0,5	2,162750
4,766833	0,5	2,218800
4,775167	0,5	2,221450
4,783500	0,5	2,160950
4,791833	0,5	2,057000
4,800167	0,5	1,916550
4,808500	0,5	1,759700
4,816833	0,5	1,591050
4,825167	0,5	1,456500
4,833500	0,5	1,317650
4,841833	0,5	1,207150
4,850167	0,5	1,120150
4,858500	0,5	1,063500
4,866833	0,5	1,029450
4,875167	0,5	1,000200
4,883500	0,5	0,976050
4,891833	0,5	0,955750
4,900167	0,5	0,943600
4,908500	0,5	0,935250
4,916833	0,5	0,922200
4,925167	0,5	0,908600
4,933500	0,5	0,895450
4,941833	0,5	0,885500
4,950167	0,5	0,877600
4,958500	0,5	0,863400
4,966833	0,5	0,849600
4,975167	0,5	0,850250
4,983500	0,5	0,837050
4,991833	0,5	0,831450
5,000167	0,5	0,827350
5,008500	0,5	0,826800
5,016833	0,5	0,838150
5,025167	0,5	0,835850
5,033500	0,5	0,837350
5,041833	0,5	0,831400
5,050167	0,5	0,837400
5,058500	0,5	0,831650
5,066833	0,5	0,835700
5,075167	0,5	0,830900
5,083500	0,5	0,825000
5,091833	0,5	0,823050
5,100167	0,5	0,818500
5,108500	0,5	0,817400
5,116833	0,5	0,811650
5,125167	0,5	0,814250
5,133500	0,5	0,801500
5,141833	0,5	0,803800
5,150167	0,5	0,801500
5,158500	0,5	0,812300
5,166833	0,5	0,826650
5,175167	0,5	0,833500
5,183500	0,5	0,839900
5,191833	0,5	0,856450
5,200167	0,5	0,871350
5,208500	0,5	0,893250
5,216833	0,5	0,907700
5,225167	0,5	0,925200
5,233500	0,5	0,939300
5,241833	0,5	0,948300
5,250167	0,5	0,949950
5,258500	0,5	0,942550
5,266833	0,5	0,932000
5,275167	0,5	0,916800
5,283500	0,5	0,892100
5,291833	0,5	0,876950
5,300167	0,5	0,867600
5,308500	0,5	0,869250
5,316833	0,5	0,869200
5,325167	0,5	0,865500
5,333500	0,5	0,867550
5,341833	0,5	0,864250
5,350167	0,5	0,870400
5,358500	0,5	0,867100
5,366833	0,5	0,868500
5,375167	0,5	0,862650
5,383500	0,5	0,860650
5,391833	0,5	0,857000
5,400167	0,5	0,844300
5,408500	0,5	0,832750
5,416833	0,5	0,835400
5,425167	0,5	0,818950
5,433500	0,5	0,808550
5,441833	0,5	0,797900
5,450167	0,5	0,793650
5,458500	0,5	0,791950
5,466833	0,5	0,784850
5,475167	0,5	0,781950
5,483500	0,5	0,771300
5,491833	0,5	0,769600
5,500167	0,5	0,762350
5,508500	0,5	0,763650
5,516833	0,5	0,763150
5,525167	0,5	0,775950
5,533500	0,5	0,793200
5,541833	0,5	0,812750
5,550167	0,5	0,839600
5,558500	0,5	0,878900
5,566833	0,5	0,918200
5,575167	0,5	0,944300
5,583500	0,5	0,964000
5,591833	0,5	0,979650
5,600167	0,5	0,979050
5,608500	0,5	0,972450
5,616833	0,5	0,945000
5,625167	0,5	0,913700
5,633500	0,5	0,881500
5,641833	0,5	0,846750
5,650167	0,5	0,817250
5,658500	0,5	0,790400
5,666833	0,5	0,768050
5,675167	0,5	0,745000
5,683500	0,5	0,730450
5,691833	0,5	0,717600
5,700167	0,5	0,702350
5,708500	0,5	0,699200
5,716833	0,5	0,690550
5,725167	0,5	0,676300
5,733500	0,5	0,668500
5,741833	0,5	0,659250
5,750167	0,5	0,660500
5,758500	0,5	0,657100
5,766833	0,5	0,652350
5,775167	0,5	0,647650
5,783500	0,5	0,646800
5,791833	0,5	0,649550
5,800167	0,5	0,646650
5,808500	0,5	0,648850
5,816833	0,5	0,641900
5,825167	0,5	0,638200
5,833500	0,5	0,633100
5,841833	0,5	0,627400
5,850167	0,5	0,611900
5,858500	0,5	0,617800
5,866833	0,5	0,601400
5,875167	0,5	0,593200
5,883500	0,5	0,585500
5,891833	0,5	0,585850
5,900167	0,5	0,592650
5,908500	0,5	0,590650
5,916833	0,5	0,589400
5,925167	0,5	0,593350
5,933500	0,5	0,592650
5,941833	0,5	0,593200
5,950167	0,5	0,596250
5,958500	0,5	0,594400
5,966833	0,5	0,595550
5,975167	0,5	0,595850
5,983500	0,5	0,594100
5,991833	0,5	0,589750
6,000167	0,5	0,585000
6,008500	0,5	0,590950
6,016833	0,5	0,589000
6,025167	0,5	0,585150
6,033500	0,5	0,592150
6,041833	0,5	0,601200
6,050167	0,5	0,616800
6,058500	0,5	0,620800
6,066833	0,5	0,631450
6,075167	0,5	0,638250
6,083500	0,5	0,652350
6,091833	0,5	0,664800
6,100167	0,5	0,676950
6,108500	0,5	0,689100
6,116833	0,5	0,708050
6,125167	0,5	0,731050
6,133500	0,5	0,776950
6,141833	0,5	0,843750
6,150167	0,5	0,943750
6,158500	0,5	1,081300
6,166833	0,5	1,237450
6,175167	0,5	1,393450
6,183500	0,5	1,515350
6,191833	0,5	1,582100
6,200167	0,5	1,570100
6,208500	0,5	1,487800
6,216833	0,5	1,362650
6,225167	0,5	1,231600
6,233500	0,5	1,109350
6,241833	0,5	1,011500
6,250167	0,5	0,937200
6,258500	0,5	0,883850
6,266833	0,5	0,844400
6,275167	0,5	0,820500
6,283500	0,5	0,803250
6,291833	0,5	0,796100
6,300167	0,5	0,810750
6,308500	0,5	0,842800
6,316833	0,5	0,879100
6,325167	0,5	0,926650
6,333500	0,5	0,979800
6,341833	0,5	1,031000
6,350167	0,5	1,062400
6,358500	0,5	1,067900
6,366833	0,5	1,055550
6,375167	0,5	1,025650
6,383500	0,5	0,988800
6,391833	0,5	0,948900
6,400167	0,5	0,925300
6,408500	0,5	0,909700
6,416833	0,5	0,917350
6,425167	0,5	0,938250
6,433500	0,5	0,986900
6,441833	0,5	1,047450
6,450167	0,5	1,076600
6,458500	0,5	1,040250
6,466833	0,5	0,971750
6,475167	0,5	0,883250
6,483500	0,5	0,809850
6,491833	0,5	0,762650
6,500167	0,5	0,721550
6,508500	0,5	0,696300
6,516833	0,5	0,678600
6,525167	0,5	0,668650
6,533500	0,5	0,661300
6,541833	0,5	0,656250
6,550167	0,5	0,652000
6,558500	0,5	0,648700
6,566833	0,5	0,647250
6,575167	0,5	0,648600
6,583500	0,5	0,645000
6,591833	0,5	0,653150
6,600167	0,5	0,656750
6,608500	0,5	0,653500
6,616833	0,5	0,654200
6,625167	0,5	0,661100
6,633500	0,5	0,668100
6,641833	0,5	0,679450
6,650167	0,5	0,686350
6,658500	0,5	0,691800
6,666833	0,5	0,696200
6,675167	0,5	0,700850
6,683500	0,5	0,706000
6,691833	0,5	0,710250
6,700167	0,5	0,716850
6,708500	0,5	0,721900
6,716833	0,5	0,728950
6,725167	0,5	0,730950
6,733500	0,5	0,736650
6,741833	0,5	0,748950
6,750167	0,5	0,752400
6,758500	0,5	0,754050
6,766833	0,5	0,758700
6,775167	0,5	0,765200
6,783500	0,5	0,779050
6,791833	0,5	0,789350
6,800167	0,5	0,795400
6,808500	0,5	0,809450
6,816833	0,5	0,818850
6,825167	0,5	0,829300
6,833500	0,5	0,844450
6,841833	0,5	0,856750
6,850167	0,5	0,871550
6,858500	0,5	0,887650
6,866833	0,5	0,904150
6,875167	0,5	0,924550
6,883500	0,5	0,938200
6,891833	0,5	0,964500
6,900167	0,5	0,981700
6,908500	0,5	0,999650
6,916833	0,5	1,017200
6,925167	0,5	1,042000
6,933500	0,5	1,068100
6,941833	0,5	1,087750
6,950167	0,5	1,099950
6,958500	0,5	1,114100
6,966833	0,5	1,121450
6,975167	0,5	1,130050
6,983500	0,5	1,130950
6,991833	0,5	1,133400
7,000167	0,5	1,132500
7,008500	0,5	1,123750
7,016833	0,5	1,115750
7,025167	0,5	1,095150
7,033500	0,5	1,077450
7,041833	0,5	1,069300
7,050167	0,5	1,045550
7,058500	0,5	1,026200
7,066833	0,5	1,009050
7,075167	0,5	0,995050
7,083500	0,5	0,986550
7,091833	0,5	0,974400
7,100167	0,5	0,961700
7,108500	0,5	0,951600
7,116833	0,5	0,947350
7,125167	0,5	0,938750
7,133500	0,5	0,939450
7,141833	0,5	0,933400
7,150167	0,5	0,929550
7,158500	0,5	0,926950
7,166833	0,5	0,926700
7,175167	0,5	0,920900
7,183500	0,5	0,921500
7,191833	0,5	0,920900
7,200167	0,5	0,916450
7,208500	0,5	0,913600
7,216833	0,5	0,914000
7,225167	0,5	0,916550
7,233500	0,5	0,918300
7,241833	0,5	0,922450
7,250167	0,5	0,921600
7,258500	0,5	0,921250
7,266833	0,5	0,918250
7,275167	0,5	0,915200
7,283500	0,5	0,912250
7,291833	0,5	0,912100
7,300167	0,5	0,910700
7,308500	0,5	0,909800
7,316833	0,5	0,909850
7,325167	0,5	0,909100
7,333500	0,5	0,911750
7,341833	0,5	0,910800
7,350167	0,5	0,909700
7,358500	0,5	0,910750
7,366833	0,5	0,916700
7,375167	0,5	0,921800
7,383500	0,5	0,926100
7,391833	0,5	0,929600
7,400167	0,5	0,934900
7,408500	0,5	0,936550
7,416833	0,5	0,940650
7,425167	0,5	0,944350
7,433500	0,5	0,951050
7,441833	0,5	0,956650
7,450167	0,5	0,964700
7,458500	0,5	0,970900
7,466833	0,5	0,977650
7,475167	0,5	0,986150
7,483500	0,5	0,997800
7,491833	0,5	1,010450
7,500167	0,5	1,022450
7,508500	0,5	1,035000
7,516833	0,5	1,052100
7,525167	0,5	1,073600
7,533500	0,5	1,095550
7,541833	0,5	1,114700
7,550167	0,5	1,134200
7,558500	0,5	1,144900
7,566833	0,5	1,154750
7,575167	0,5	1,158150
7,583500	0,5	1,152500
7,591833	0,5	1,142750
7,600167	0,5	1,126200
7,608500	0,5	1,105450
7,616833	0,5	1,080550
7,625167	0,5	1,059850
7,633500	0,5	1,042750
7,641833	0,5	1,024200
7,650167	0,5	1,009450
7,658500	0,5	0,998450
7,666833	0,5	0,992850
7,675167	0,5	0,994500
7,683500	0,5	0,989700
7,691833	0,5	0,988300
7,700167	0,5	0,987850
7,708500	0,5	0,983950
7,716833	0,5	0,980050
7,725167	0,5	0,979550
7,733500	0,5	0,972750
7,741833	0,5	0,969700
7,750167	0,5	0,962000
7,758500	0,5	0,959750
7,766833	0,5	0,952650
7,775167	0,5	0,954050
7,783500	0,5	0,949150
7,791833	0,5	0,942500
7,800167	0,5	0,941050
7,808500	0,5	0,939500
7,816833	0,5	0,941250
7,825167	0,5	0,941800
7,833500	0,5	0,946500
7,841833	0,5	0,945150
7,850167	0,5	0,950400
7,858500	0,5	0,947500
7,866833	0,5	0,953200
7,875167	0,5	0,951650
7,883500	0,5	0,955850
7,891833	0,5	0,954400
7,900167	0,5	0,957150
7,908500	0,5	0,960800
7,916833	0,5	0,957800
7,925167	0,5	0,959700
7,933500	0,5	0,959400
7,941833	0,5	0,952350
7,950167	0,5	0,947800
7,958500	0,5	0,945450
7,966833	0,5	0,943500
7,975167	0,5	0,946000
7,983500	0,5	0,946700
7,991833	0,5	0,951550
8,000167	0,5	0,961450
8,008500	0,5	0,974600
8,016833	0,5	1,006550
8,025167	0,5	1,058000
8,033500	0,5	1,126900
8,041833	0,5	1,212700
8,050167	0,5	1,305650
8,058500	0,5	1,375450
8,066833	0,5	1,409350
8,075167	0,5	1,404450
8,083500	0,5	1,361700
8,091833	0,5	1,297950
8,100167	0,5	1,236650
8,108500	0,5	1,186750
8,116833	0,5	1,157400
8,125167	0,5	1,149550
8,133500	0,5	1,161500
8,141833	0,5	1,192200
8,150167	0,5	1,238950
8,158500	0,5	1,286850
8,166833	0,5	1,327500
8,175167	0,5	1,354100
8,183500	0,5	1,358200
8,191833	0,5	1,342800
8,200167	0,5	1,315950
8,208500	0,5	1,291150
8,216833	0,5	1,284050
8,225167	0,5	1,296650
8,233500	0,5	1,332200
8,241833	0,5	1,394050
8,250167	0,5	1,456400
8,258500	0,5	1,511650
8,266833	0,5	1,544350
8,275167	0,5	1,548450
8,283500	0,5	1,525500
8,291833	0,5	1,480700
8,300167	0,5	1,426050
8,308500	0,5	1,365200
8,316833	0,5	1,306650
8,325167	0,5	1,247750
8,333500	0,5	1,193500
8,341833	0,5	1,143100
8,350167	0,5	1,102700
8,358500	0,5	1,068450
8,366833	0,5	1,044850
8,375167	0,5	1,031150
8,383500	0,5	1,026350
8,391833	0,5	1,026850
8,400167	0,5	1,040150
8,408500	0,5	1,055100
8,416833	0,5	1,073100
8,425167	0,5	1,088350
8,433500	0,5	1,110850
8,441833	0,5	1,139800
8,450167	0,5	1,179700
8,458500	0,5	1,243500
8,466833	0,5	1,311700
8,475167	0,5	1,386650
8,483500	0,5	1,442450
8,491833	0,5	1,466300
8,500167	0,5	1,455650
8,508500	0,5	1,406750
8,516833	0,5	1,340150
8,525167	0,5	1,265000
8,533500	0,5	1,191650
8,541833	0,5	1,132300
8,550167	0,5	1,087750
8,558500	0,5	1,063900
8,566833	0,5	1,054600
8,575167	0,5	1,062850
8,583500	0,5	1,093550
8,591833	0,5	1,148150
8,600167	0,5	1,227700
8,608500	0,5	1,315500
8,616833	0,5	1,390450
8,625167	0,5	1,439400
8,633500	0,5	1,460100
8,641833	0,5	1,459050
8,650167	0,5	1,449000
8,658500	0,5	1,439050
8,666833	0,5	1,428350
8,675167	0,5	1,411950
8,683500	0,5	1,379950
8,691833	0,5	1,340300
8,700167	0,5	1,292600
8,708500	0,5	1,234950
8,716833	0,5	1,175800
8,725167	0,5	1,113300
8,733500	0,5	1,059100
8,741833	0,5	1,011950
8,750167	0,5	0,973850
8,758500	0,5	0,940800
8,766833	0,5	0,915800
8,775167	0,5	0,898050
8,783500	0,5	0,885900
8,791833	0,5	0,880400
8,800167	0,5	0,879450
8,808500	0,5	0,884200
8,816833	0,5	0,898900
8,825167	0,5	0,922550
8,833500	0,5	0,960800
8,841833	0,5	1,021350
8,850167	0,5	1,096900
8,858500	0,5	1,199050
8,866833	0,5	1,307800
8,875167	0,5	1,408050
8,883500	0,5	1,490850
8,891833	0,5	1,537750
8,900167	0,5	1,544650
8,908500	0,5	1,512100
8,916833	0,5	1,445550
8,925167	0,5	1,366450
8,933500	0,5	1,280150
8,941833	0,5	1,201300
8,950167	0,5	1,131650
8,958500	0,5	1,085350
8,966833	0,5	1,055850
8,975167	0,5	1,037950
8,983500	0,5	1,049100
8,991833	0,5	1,083600
9,000167	0,5	1,151750
9,008500	0,5	1,255850
9,016833	0,5	1,369050
9,025167	0,5	1,477750
9,033500	0,5	1,547400
9,041833	0,5	1,567350
9,050167	0,5	1,536800
9,058500	0,5	1,469850
9,066833	0,5	1,389150
9,075167	0,5	1,312600
9,083500	0,5	1,257600
9,091833	0,5	1,226300
9,100167	0,5	1,229650
9,108500	0,5	1,267000
9,116833	0,5	1,330150
9,125167	0,5	1,412750
9,133500	0,5	1,481200
9,141833	0,5	1,526500
9,150167	0,5	1,532600
9,158500	0,5	1,496300
9,166833	0,5	1,425350
9,175167	0,5	1,342950
9,183500	0,5	1,253600
9,191833	0,5	1,185400
9,200167	0,5	1,128100
9,208500	0,5	1,089150
9,216833	0,5	1,064800
9,225167	0,5	1,046600
9,233500	0,5	1,039450
9,241833	0,5	1,031850
9,250167	0,5	1,021750
9,258500	0,5	1,019200
9,266833	0,5	1,010950
9,275167	0,5	1,009850
9,283500	0,5	1,006550
9,291833	0,5	1,013700
9,300167	0,5	1,027700
9,308500	0,5	1,047750
9,316833	0,5	1,075750
9,325167	0,5	1,113250
9,333500	0,5	1,166550
9,341833	0,5	1,246150
9,350167	0,5	1,364750
9,358500	0,5	1,519750
9,366833	0,5	1,701450
9,375167	0,5	1,881650
9,383500	0,5	2,021550
9,391833	0,5	2,089350
9,400167	0,5	2,080950
9,408500	0,5	1,998050
9,416833	0,5	1,862850
9,425167	0,5	1,707350
9,433500	0,5	1,552950
9,441833	0,5	1,412950
9,450167	0,5	1,295250
9,458500	0,5	1,201850
9,466833	0,5	1,141150
9,475167	0,5	1,099100
9,483500	0,5	1,074350
9,491833	0,5	1,070700
9,500167	0,5	1,086200
9,508500	0,5	1,120050
9,516833	0,5	1,174000
9,525167	0,5	1,251750
9,533500	0,5	1,346900
9,541833	0,5	1,440000
9,550167	0,5	1,531050
9,558500	0,5	1,604000
9,566833	0,5	1,662300
9,575167	0,5	1,707700
9,583500	0,5	1,751200
9,591833	0,5	1,785900
9,600167	0,5	1,798750
9,608500	0,5	1,781800
9,616833	0,5	1,715650
9,625167	0,5	1,617350
9,633500	0,5	1,490450
9,641833	0,5	1,363800
9,650167	0,5	1,254700
9,658500	0,5	1,173250
9,666833	0,5	1,131800
9,675167	0,5	1,109250
9,683500	0,5	1,108900
9,691833	0,5	1,102200
9,700167	0,5	1,099750
9,708500	0,5	1,090750
9,716833	0,5	1,079650
9,725167	0,5	1,087650
9,733500	0,5	1,133100
9,741833	0,5	1,224600
9,750167	0,5	1,365150
9,758500	0,5	1,544600
9,766833	0,5	1,730250
9,775167	0,5	1,886350
9,783500	0,5	1,977950
9,791833	0,5	1,984150
9,800167	0,5	1,914450
9,808500	0,5	1,786350
9,816833	0,5	1,641250
9,825167	0,5	1,497600
9,833500	0,5	1,367900
9,841833	0,5	1,253850
9,850167	0,5	1,171200
9,858500	0,5	1,106650
9,866833	0,5	1,062800
9,875167	0,5	1,042050
9,883500	0,5	1,036700
9,891833	0,5	1,051300
9,900167	0,5	1,066250
9,908500	0,5	1,087600
9,916833	0,5	1,109150
9,925167	0,5	1,137400
9,933500	0,5	1,168250
9,941833	0,5	1,216900
9,950167	0,5	1,265800
9,958500	0,5	1,321850
9,966833	0,5	1,370050
9,975167	0,5	1,400100
9,983500	0,5	1,393300
9,991833	0,5	1,356500
10,000167	0,5	1,295300
10,008500	0,5	1,224750
10,016833	0,5	1,155300
10,025167	0,5	1,100300
10,033500	0,5	1,072800
10,041833	0,5	1,087600
10,050167	0,5	1,150050
10,058500	0,5	1,266950
10,066833	0,5	1,430750
10,075167	0,5	1,618550
10,083500	0,5	1,794550
10,091833	0,5	1,914900
10,100167	0,5	1,959300
10,108500	0,5	1,919550
10,116833	0,5	1,822000
10,125167	0,5	1,682150
10,133500	0,5	1,535900
10,141833	0,5	1,396800
10,150167	0,5	1,280700
10,158500	0,5	1,192550
10,166833	0,5	1,129800
10,175167	0,5	1,090000
10,183500	0,5	1,084200
10,191833	0,5	1,097800
10,200167	0,5	1,126050
10,208500	0,5	1,168900
10,216833	0,5	1,224050
10,225167	0,5	1,281900
10,233500	0,5	1,343200
10,241833	0,5	1,390800
10,250167	0,5	1,423650
10,258500	0,5	1,455600
10,266833	0,5	1,502050
10,275167	0,5	1,585000
10,283500	0,5	1,723950
10,291833	0,5	1,917050
10,300167	0,5	2,108850
10,308500	0,5	2,230950
10,316833	0,5	2,245450
10,325167	0,5	2,153100
10,333500	0,5	1,998550
10,341833	0,5	1,818400
10,350167	0,5	1,672450
10,358500	0,5	1,584300
10,366833	0,5	1,587850
10,375167	0,5	1,707200
10,383500	0,5	2,011600
10,391833	0,5	2,590800
10,400167	0,5	3,467850
10,408500	0,5	4,108600
10,416833	0,5	4,077900
10,425167	0,5	3,600100
10,433500	0,5	2,861950
10,441833	0,5	1,994200
10,450167	0,5	1,251600
10,458500	0,5	0,742250
10,466833	0,5	0,438650
10,475167	0,5	0,266050
10,483500	0,5	0,165750
10,491833	0,5	0,098550
10,500167	0,5	0,058750
10,508500	0,5	0,029550
10,516833	0,5	0,012900
10,525167	0,5	0,003600
10,533500	0,5	-0,001800
10,541833	0,5	-0,008100
10,550167	0,5	-0,008200
10,558500	0,5	-0,006650
10,566833	0,5	-0,005950
10,575167	0,5	-0,010350
10,583500	0,5	-0,007000
10,591833	0,5	-0,002450
10,600167	0,5	-0,010200
10,608500	0,5	-0,011950
10,616833	0,5	-0,020650
10,625167	0,5	-0,021850
10,633500	0,5	-0,025350
10,641833	0,5	-0,032650
10,650167	0,5	-0,039350
10,658500	0,5	-0,046800
10,666833	0,5	-0,056550
10,675167	0,5	-0,060900
10,683500	0,5	-0,065800
10,691833	0,5	-0,073750
10,700167	0,5	-0,078950
10,708500	0,5	-0,090100
10,716833	0,5	-0,093900
10,725167	0,5	-0,107150
10,733500	0,5	-0,113000
10,741833	0,5	-0,125050
10,750167	0,5	-0,132800
10,758500	0,5	-0,151350
10,766833	0,5	-0,165300
10,775167	0,5	-0,178050
10,783500	0,5	-0,188400
10,791833	0,5	-0,205250
10,800167	0,5	-0,220600
10,808500	0,5	-0,233850
10,816833	0,5	-0,243350
10,825167	0,5	-0,258950
10,833500	0,5	-0,269100
10,841833	0,5	-0,281650
10,850167	0,5	-0,288100
10,858500	0,5	-0,292200
10,866833	0,5	-0,299850
10,875167	0,5	-0,309800
10,883500	0,5	-0,311250
10,891833	0,5	-0,315200
10,900167	0,5	-0,322950
10,908500	0,5	-0,324700
10,916833	0,5	-0,328400
10,925167	0,5	-0,321750
10,933500	0,5	-0,325350
10,941833	0,5	-0,321400
10,950167	0,5	-0,317200
10,958500	0,5	-0,313400
10,966833	0,5	-0,311700
10,975167	0,5	-0,302200
10,983500	0,5	-0,300300
10,991833	0,5	-0,290250
11,000167	0,5	-0,282950
11,008500	0,5	-0,269600
11,016833	0,5	-0,259700
11,025167	0,5	-0,251750
11,033500	0,5	-0,238050
11,041833	0,5	-0,229600
11,050167	0,5	-0,220050
11,058500	0,5	-0,211300
11,066833	0,5	-0,207400
11,075167	0,5	-0,202250
11,083500	0,5	-0,200100
11,091833	0,5	-0,201600
11,100167	0,5	-0,206300
11,108500	0,5	-0,210900
11,116833	0,5	-0,216950
11,125167	0,5	-0,226100
11,133500	0,5	-0,237150
11,141833	0,5	-0,250100
11,150167	0,5	-0,257650
11,158500	0,5	-0,270750
11,166833	0,5	-0,281800
11,175167	0,5	-0,288000
11,183500	0,5	-0,297850
11,191833	0,5	-0,308950
11,200167	0,5	-0,316950
11,208500	0,5	-0,326050
11,216833	0,5	-0,328500
11,225167	0,5	-0,327450
11,233500	0,5	-0,328550
11,241833	0,5	-0,329100
11,250167	0,5	-0,328250
11,258500	0,5	-0,331250
11,266833	0,5	-0,332700
11,275167	0,5	-0,332550
11,283500	0,5	-0,332200
11,291833	0,5	-0,331850
11,300167	0,5	-0,332100
11,308500	0,5	-0,329350
11,316833	0,5	-0,332800
11,325167	0,5	-0,326350
11,333500	0,5	-0,321350
11,341833	0,5	-0,322550
11,350167	0,5	-0,324000
11,358500	0,5	-0,322400
11,366833	0,5	-0,316600
11,375167	0,5	-0,311300
11,383500	0,5	-0,305700
11,391833	0,5	-0,300000
11,400167	0,5	-0,299100
11,408500	0,5	-0,292100
11,416833	0,5	-0,284100
11,425167	0,5	-0,280550
11,433500	0,5	-0,271000
11,441833	0,5	-0,268900
11,450167	0,5	-0,261300
11,458500	0,5	-0,256500
11,466833	0,5	-0,250000
11,475167	0,5	-0,238250
11,483500	0,5	-0,231350
11,491833	0,5	-0,225650
11,500167	0,5	-0,221600
11,508500	0,5	-0,210350
11,516833	0,5	-0,198750
11,525167	0,5	-0,188300
11,533500	0,5	-0,175850
11,541833	0,5	-0,166450
11,550167	0,5	-0,157250
11,558500	0,5	-0,150350
11,566833	0,5	-0,140900
11,575167	0,5	-0,132700
11,583500	0,5	-0,129400
11,591833	0,5	-0,124650
11,600167	0,5	-0,121000
11,608500	0,5	-0,125050
11,616833	0,5	-0,120200
11,625167	0,5	-0,118150
11,633500	0,5	-0,118950
11,641833	0,5	-0,122650
11,650167	0,5	-0,130750
11,658500	0,5	-0,131750
11,666833	0,5	-0,128000
11,675167	0,5	-0,132200
11,683500	0,5	-0,139550
11,691833	0,5	-0,141300
11,700167	0,5	-0,148600
11,708500	0,5	-0,148700
11,716833	0,5	-0,153850
11,725167	0,5	-0,157600
11,733500	0,5	-0,165400
11,741833	0,5	-0,165650
11,750167	0,5	-0,168500
11,758500	0,5	-0,176150
11,766833	0,5	-0,174800
11,775167	0,5	-0,176300
11,783500	0,5	-0,179400
11,791833	0,5	-0,185950
11,800167	0,5	-0,192500
11,808500	0,5	-0,188800
11,816833	0,5	-0,187400
11,825167	0,5	-0,188500
11,833500	0,5	-0,185700
11,841833	0,5	-0,186950
11,850167	0,5	-0,182000
11,858500	0,5	-0,181250
11,866833	0,5	-0,176850
11,875167	0,5	-0,175700
11,883500	0,5	-0,176250
11,891833	0,5	-0,172600
11,900167	0,5	-0,166700
11,908500	0,5	-0,164800
11,916833	0,5	-0,158350
11,925167	0,5	-0,153650
11,933500	0,5	-0,152850
11,941833	0,5	-0,146700
11,950167	0,5	-0,142600
11,958500	0,5	-0,128450
11,966833	0,5	-0,121900
11,975167	0,5	-0,112200
11,983500	0,5	-0,105300
11,991833	0,5	-0,098550
12,000167	0,5	-0,089350
12,008500	0,5	-0,074850
12,016833	0,5	-0,066650
12,025167	0,5	-0,058500
12,033500	0,5	-0,050350
12,041833	0,5	-0,040000
12,050167	0,5	-0,037750
12,058500	0,5	-0,033500
12,066833	0,5	-0,024250
12,075167	0,5	-0,023150
12,083500	0,5	-0,024150
12,091833	0,5	-0,031050
12,100167	0,5	-0,032150
12,108500	0,5	-0,027800
12,116833	0,5	-0,030700
12,125167	0,5	-0,029650
12,133500	0,5	-0,033000
12,141833	0,5	-0,032150
12,150167	0,5	-0,031900
12,158500	0,5	-0,033450
12,166833	0,5	-0,029500
12,175167	0,5	-0,027250
12,183500	0,5	-0,020650
12,191833	0,5	-0,013800
12,200167	0,5	-0,004850
12,208500	0,5	0,016050
12,216833	0,5	0,031300
12,225167	0,5	0,053950
12,233500	0,5	0,071650
12,241833	0,5	0,092700
12,250167	0,5	0,120350
12,258500	0,5	0,143450
12,266833	0,5	0,163350
12,275167	0,5	0,173950
12,283500	0,5	0,182300
12,291833	0,5	0,178800
12,300167	0,5	0,174000
12,308500	0,5	0,165550
12,316833	0,5	0,150000
12,325167	0,5	0,141150
12,333500	0,5	0,128350
12,341833	0,5	0,116250
12,350167	0,5	0,108100
12,358500	0,5	0,105250
12,366833	0,5	0,096700
12,375167	0,5	0,093750
12,383500	0,5	0,086000
12,391833	0,5	0,080700
12,400167	0,5	0,084750
12,408500	0,5	0,093100
12,416833	0,5	0,097450
12,425167	0,5	0,107250
12,433500	0,5	0,115850
12,441833	0,5	0,124900
12,450167	0,5	0,131850
12,458500	0,5	0,141250
12,466833	0,5	0,151350
12,475167	0,5	0,159350
12,483500	0,5	0,168550
12,491833	0,5	0,169800
12,500167	0,5	0,182550
12,508500	0,5	0,188250
12,516833	0,5	0,195650
12,525167	0,5	0,200150
12,533500	0,5	0,200750
12,541833	0,5	0,208600
12,550167	0,5	0,221400
12,558500	0,5	0,236650
12,566833	0,5	0,254650
12,575167	0,5	0,274500
12,583500	0,5	0,297100
12,591833	0,5	0,317650
12,600167	0,5	0,337050
12,608500	0,5	0,348150
12,616833	0,5	0,352700
12,625167	0,5	0,354100
12,633500	0,5	0,342900
12,641833	0,5	0,323900
12,650167	0,5	0,315450
12,658500	0,5	0,301350
12,666833	0,5	0,285050
12,675167	0,5	0,272050
12,683500	0,5	0,251400
12,691833	0,5	0,250100
12,700167	0,5	0,246550
12,708500	0,5	0,244850
12,716833	0,5	0,247800
12,725167	0,5	0,251500
12,733500	0,5	0,254150
12,741833	0,5	0,265600
12,750167	0,5	0,272400
12,758500	0,5	0,280500
12,766833	0,5	0,280650
12,775167	0,5	0,284450
12,783500	0,5	0,280600
12,791833	0,5	0,278750
12,800167	0,5	0,279100
12,808500	0,5	0,280850
12,816833	0,5	0,274350
12,825167	0,5	0,275350
12,833500	0,5	0,277950
12,841833	0,5	0,287550
12,850167	0,5	0,298100
12,858500	0,5	0,302300
12,866833	0,5	0,309050
12,875167	0,5	0,307250
12,883500	0,5	0,302950
12,891833	0,5	0,295800
12,900167	0,5	0,290950
12,908500	0,5	0,283700
12,916833	0,5	0,276300
12,925167	0,5	0,276650
12,933500	0,5	0,270950
12,941833	0,5	0,271700
12,950167	0,5	0,272800
12,958500	0,5	0,270500
12,966833	0,5	0,266750
12,975167	0,5	0,262500
12,983500	0,5	0,257100
12,991833	0,5	0,261700
13,000167	0,5	0,263700
13,008500	0,5	0,265800
13,016833	0,5	0,270000
13,025167	0,5	0,279450
13,033500	0,5	0,281800
13,041833	0,5	0,294950
13,050167	0,5	0,296100
13,058500	0,5	0,309750
13,066833	0,5	0,312000
13,075167	0,5	0,322250
13,083500	0,5	0,310500
13,091833	0,5	0,314950
13,100167	0,5	0,310650
13,108500	0,5	0,302800
13,116833	0,5	0,290350
13,125167	0,5	0,276500
13,133500	0,5	0,268750
13,141833	0,5	0,267100
13,150167	0,5	0,259400
13,158500	0,5	0,258550
13,166833	0,5	0,258850
13,175167	0,5	0,259000
13,183500	0,5	0,261750
13,191833	0,5	0,262800
13,200167	0,5	0,267950
13,208500	0,5	0,263150
13,216833	0,5	0,270200
13,225167	0,5	0,271900
13,233500	0,5	0,272950
13,241833	0,5	0,278550
13,250167	0,5	0,281450
13,258500	0,5	0,277850
13,266833	0,5	0,278500
13,275167	0,5	0,274950
13,283500	0,5	0,279900
13,291833	0,5	0,287950
13,300167	0,5	0,290500
13,308500	0,5	0,294400
13,316833	0,5	0,295650
13,325167	0,5	0,291700
13,333500	0,5	0,288150
13,341833	0,5	0,281050
13,350167	0,5	0,280600
13,358500	0,5	0,279600
13,366833	0,5	0,281050
13,375167	0,5	0,286300
13,383500	0,5	0,295700
13,391833	0,5	0,311950
13,400167	0,5	0,317100
13,408500	0,5	0,318550
13,416833	0,5	0,312450
13,425167	0,5	0,313150
13,433500	0,5	0,308000
13,441833	0,5	0,307850
13,450167	0,5	0,298900
13,458500	0,5	0,297000
13,466833	0,5	0,286850
13,475167	0,5	0,289950
13,483500	0,5	0,282150
13,491833	0,5	0,286450
13,500167	0,5	0,294300
13,508500	0,5	0,303300
13,516833	0,5	0,326800
13,525167	0,5	0,340200
13,533500	0,5	0,364650
13,541833	0,5	0,386150
13,550167	0,5	0,397600
13,558500	0,5	0,395600
13,566833	0,5	0,389050
13,575167	0,5	0,377250
13,583500	0,5	0,366050
13,591833	0,5	0,348650
13,600167	0,5	0,335950
13,608500	0,5	0,318850
13,616833	0,5	0,322500
13,625167	0,5	0,322950
13,633500	0,5	0,333350
13,641833	0,5	0,340850
13,650167	0,5	0,345150
13,658500	0,5	0,347500
13,666833	0,5	0,342950
13,675167	0,5	0,330300
13,683500	0,5	0,331100
13,691833	0,5	0,333300
13,700167	0,5	0,337500
13,708500	0,5	0,360200
13,716833	0,5	0,391450
13,725167	0,5	0,442850
13,733500	0,5	0,483200
13,741833	0,5	0,515950
13,750167	0,5	0,525300
13,758500	0,5	0,514900
13,766833	0,5	0,478600
13,775167	0,5	0,439750
13,783500	0,5	0,399200
13,791833	0,5	0,367800
13,800167	0,5	0,347100
13,808500	0,5	0,340750
13,816833	0,5	0,332500
13,825167	0,5	0,346250
13,833500	0,5	0,369700
13,841833	0,5	0,391700
13,850167	0,5	0,402150
13,858500	0,5	0,410150
13,866833	0,5	0,424250
13,875167	0,5	0,444800
13,883500	0,5	0,489050
13,891833	0,5	0,539150
13,900167	0,5	0,602050
13,908500	0,5	0,655500
13,916833	0,5	0,682250
13,925167	0,5	0,671050
13,933500	0,5	0,635300
13,941833	0,5	0,571700
13,950167	0,5	0,504050
13,958500	0,5	0,444100
13,966833	0,5	0,390250
13,975167	0,5	0,356350
13,983500	0,5	0,345400
13,991833	0,5	0,344000
14,000167	0,5	0,353100
14,008500	0,5	0,369800
14,016833	0,5	0,398350
14,025167	0,5	0,440850
14,033500	0,5	0,485900
14,041833	0,5	0,535550
14,050167	0,5	0,585600
14,058500	0,5	0,624000
14,066833	0,5	0,632900
14,075167	0,5	0,616700
14,083500	0,5	0,569500
14,091833	0,5	0,509650
14,100167	0,5	0,449450
14,108500	0,5	0,391650
14,116833	0,5	0,338050
14,125167	0,5	0,321200
14,133500	0,5	0,306300
14,141833	0,5	0,314000
14,150167	0,5	0,331450
14,158500	0,5	0,360950
14,166833	0,5	0,405100
14,175167	0,5	0,449650
14,183500	0,5	0,490200
14,191833	0,5	0,512700
14,200167	0,5	0,523000
14,208500	0,5	0,510450
14,216833	0,5	0,476800
14,225167	0,5	0,431450
14,233500	0,5	0,382550
14,241833	0,5	0,336800
14,250167	0,5	0,307400
14,258500	0,5	0,274350
14,266833	0,5	0,260000
14,275167	0,5	0,266550
14,283500	0,5	0,277350
14,291833	0,5	0,298700
14,300167	0,5	0,315700
14,308500	0,5	0,338850
14,316833	0,5	0,365800
14,325167	0,5	0,372150
14,333500	0,5	0,373950
14,341833	0,5	0,355550
14,350167	0,5	0,330200
14,358500	0,5	0,303100
14,366833	0,5	0,275850
14,375167	0,5	0,258750
14,383500	0,5	0,251100
14,391833	0,5	0,264750
14,400167	0,5	0,271400
14,408500	0,5	0,281050
14,416833	0,5	0,299150
14,425167	0,5	0,314700
14,433500	0,5	0,316350
14,441833	0,5	0,315800
14,450167	0,5	0,298050
14,458500	0,5	0,286550
14,466833	0,5	0,263950
14,475167	0,5	0,246450
14,483500	0,5	0,225050
14,491833	0,5	0,215400
14,500167	0,5	0,204200
14,508500	0,5	0,198600
14,516833	0,5	0,196050
14,525167	0,5	0,195100
14,533500	0,5	0,194700
14,541833	0,5	0,198550
14,550167	0,5	0,195450
14,558500	0,5	0,188450
14,566833	0,5	0,188600
14,575167	0,5	0,185500
14,583500	0,5	0,182250
14,591833	0,5	0,175750
14,600167	0,5	0,169350
14,608500	0,5	0,172750
14,616833	0,5	0,178000
14,625167	0,5	0,178850
14,633500	0,5	0,181900
14,641833	0,5	0,182850
14,650167	0,5	0,179850
14,658500	0,5	0,177700
14,666833	0,5	0,165000
14,675167	0,5	0,159850
14,683500	0,5	0,155250
14,691833	0,5	0,153250
14,700167	0,5	0,145250
14,708500	0,5	0,144700
14,716833	0,5	0,147350
14,725167	0,5	0,148400
14,733500	0,5	0,145400
14,741833	0,5	0,141100
14,750167	0,5	0,141050
14,758500	0,5	0,153400
14,766833	0,5	0,142700
14,775167	0,5	0,141150
14,783500	0,5	0,132250
14,791833	0,5	0,130800
14,800167	0,5	0,121150
14,808500	0,5	0,118000
14,816833	0,5	0,115350
14,825167	0,5	0,115900
14,833500	0,5	0,117150
14,841833	0,5	0,128350
14,850167	0,5	0,123850
14,858500	0,5	0,140350
14,866833	0,5	0,141550
14,875167	0,5	0,145300
14,883500	0,5	0,135450
14,891833	0,5	0,121100
14,900167	0,5	0,114750
14,908500	0,5	0,105550
14,916833	0,5	0,101550
14,925167	0,5	0,095150
14,933500	0,5	0,094950
14,941833	0,5	0,092200
14,950167	0,5	0,098600
14,958500	0,5	0,097600
14,966833	0,5	0,099300
14,975167	0,5	0,096100
14,983500	0,5	0,095750
14,991833	0,5	0,091700
15,000167	0,5	0,079750
15,008500	0,5	0,087200
15,016833	0,5	0,083200
15,025167	0,5	0,082700
15,033500	0,5	0,079750
15,041833	0,5	0,073700
15,050167	0,5	0,079650
15,058500	0,5	0,082200
15,066833	0,5	0,080800
15,075167	0,5	0,085650
15,083500	0,5	0,084600
15,091833	0,5	0,084200
15,100167	0,5	0,077350
15,108500	0,5	0,076450
15,116833	0,5	0,069450
15,125167	0,5	0,065350
15,133500	0,5	0,059100
15,141833	0,5	0,058250
15,150167	0,5	0,053400
15,158500	0,5	0,057500
15,166833	0,5	0,051600
15,175167	0,5	0,053800
15,183500	0,5	0,049900
15,191833	0,5	0,046250
15,200167	0,5	0,055400
15,208500	0,5	0,055100
15,216833	0,5	0,053050
15,225167	0,5	0,053900
15,233500	0,5	0,052400
15,241833	0,5	0,050350
15,250167	0,5	0,049500
15,258500	0,5	0,046700
15,266833	0,5	0,051050
15,275167	0,5	0,051450
15,283500	0,5	0,058050
15,291833	0,5	0,052500
15,300167	0,5	0,062700
15,308500	0,5	0,064850
15,316833	0,5	0,059600
15,325167	0,5	0,052000
15,333500	0,5	0,048750
15,341833	0,5	0,046350
15,350167	0,5	0,057950
15,358500	0,5	0,060250
15,366833	0,5	0,071800
15,375167	0,5	0,079950
15,383500	0,5	0,080850
15,391833	0,5	0,082000
15,400167	0,5	0,080750
15,408500	0,5	0,082500
15,416833	0,5	0,086950
15,425167	0,5	0,101150
15,433500	0,5	0,101450
15,441833	0,5	0,105700
15,450167	0,5	0,114150
15,458500	0,5	0,114250
15,466833	0,5	0,107250
15,475167	0,5	0,110450
15,483500	0,5	0,102600
15,491833	0,5	0,108200
15,500167	0,5	0,107700
15,508500	0,5	0,110950
15,516833	0,5	0,107800
15,525167	0,5	0,110000
15,533500	0,5	0,110700
15,541833	0,5	0,113700
15,550167	0,5	0,119350
15,558500	0,5	0,116550
15,566833	0,5	0,127850
15,575167	0,5	0,137050
15,583500	0,5	0,130800
15,591833	0,5	0,142050
15,600167	0,5	0,147000
15,608500	0,5	0,150400
15,616833	0,5	0,151900
15,625167	0,5	0,142850
15,633500	0,5	0,157950
15,641833	0,5	0,163300
15,650167	0,5	0,182250
15,658500	0,5	0,187750
15,666833	0,5	0,196450
15,675167	0,5	0,196200
15,683500	0,5	0,192950
15,691833	0,5	0,179050
15,700167	0,5	0,163800
15,708500	0,5	0,146550
15,716833	0,5	0,132900
15,725167	0,5	0,130050
15,733500	0,5	0,111350
15,741833	0,5	0,119250
15,750167	0,5	0,115400
15,758500	0,5	0,113800
15,766833	0,5	0,104350
15,775167	0,5	0,092150
15,783500	0,5	0,092400
15,791833	0,5	0,104350
15,800167	0,5	0,093500
15,808500	0,5	0,092700
15,816833	0,5	0,087450
15,825167	0,5	0,090650
15,833500	0,5	0,081400
15,841833	0,5	0,085600
15,850167	0,5	0,078700
15,858500	0,5	0,079000
15,866833	0,5	0,083800
15,875167	0,5	0,089050
15,883500	0,5	0,078000
15,891833	0,5	0,087800
15,900167	0,5	0,086050
15,908500	0,5	0,083350
15,916833	0,5	0,078300
15,925167	0,5	0,065300
15,933500	0,5	0,078550
15,941833	0,5	0,074600
15,950167	0,5	0,077450
15,958500	0,5	0,078000
15,966833	0,5	0,086750
15,975167	0,5	0,087950
15,983500	0,5	0,093850
15,991833	0,5	0,094300
16,000167	0,5	0,096100
16,008500	0,5	0,094300
16,016833	0,5	0,101400
16,025167	0,5	0,095050
16,033500	0,5	0,098250
16,041833	0,5	0,105700
16,050167	0,5	0,107800
16,058500	0,5	0,103800
16,066833	0,5	0,096400
16,075167	0,5	0,091900
16,083500	0,5	0,095250
16,091833	0,5	0,099800
16,100167	0,5	0,094900
16,108500	0,5	0,096800
16,116833	0,5	0,097600
16,125167	0,5	0,100400
16,133500	0,5	0,099000
16,141833	0,5	0,102000
16,150167	0,5	0,093950
16,158500	0,5	0,102700
16,166833	0,5	0,102550
16,175167	0,5	0,101100
16,183500	0,5	0,101600
16,191833	0,5	0,111600
16,200167	0,5	0,109800
16,208500	0,5	0,110650
16,216833	0,5	0,108400
16,225167	0,5	0,111150
16,233500	0,5	0,128200
16,241833	0,5	0,136400
16,250167	0,5	0,139350
16,258500	0,5	0,146150
16,266833	0,5	0,147450
16,275167	0,5	0,151300
16,283500	0,5	0,156200
16,291833	0,5	0,156550
16,300167	0,5	0,162900
16,308500	0,5	0,171050
16,316833	0,5	0,183000
16,325167	0,5	0,186200
16,333500	0,5	0,198650
16,341833	0,5	0,205000
16,350167	0,5	0,200200
16,358500	0,5	0,188350
16,366833	0,5	0,176750
16,375167	0,5	0,180150
16,383500	0,5	0,179050
16,391833	0,5	0,176100
16,400167	0,5	0,179400
16,408500	0,5	0,178450
16,416833	0,5	0,182950
16,425167	0,5	0,186500
16,433500	0,5	0,186750
16,441833	0,5	0,186800
16,450167	0,5	0,186000
16,458500	0,5	0,194600
16,466833	0,5	0,183850
16,475167	0,5	0,193350
16,483500	0,5	0,195050
16,491833	0,5	0,196750
16,500167	0,5	0,191650
16,508500	0,5	0,185600
16,516833	0,5	0,184400
16,525167	0,5	0,192300
16,533500	0,5	0,193900
16,541833	0,5	0,193450
16,550167	0,5	0,190350
16,558500	0,5	0,197850
16,566833	0,5	0,199600
16,575167	0,5	0,204750
16,583500	0,5	0,210350
16,591833	0,5	0,204700
16,600167	0,5	0,214800
16,608500	0,5	0,213900
16,616833	0,5	0,205950
16,625167	0,5	0,215650
16,633500	0,5	0,215350
16,641833	0,5	0,210650
16,650167	0,5	0,211200
16,658500	0,5	0,199100
16,666833	0,5	0,206000
16,675167	0,5	0,207500
16,683500	0,5	0,210950
16,691833	0,5	0,207600
16,700167	0,5	0,211900
16,708500	0,5	0,212400
16,716833	0,5	0,219800
16,725167	0,5	0,223050
16,733500	0,5	0,224900
16,741833	0,5	0,227150
16,750167	0,5	0,233150
16,758500	0,5	0,236550
16,766833	0,5	0,227250
16,775167	0,5	0,233900
16,783500	0,5	0,232350
16,791833	0,5	0,229600
16,800167	0,5	0,223800
16,808500	0,5	0,219550
16,816833	0,5	0,228600
16,825167	0,5	0,232800
16,833500	0,5	0,229400
16,841833	0,5	0,231450
16,850167	0,5	0,224850
16,858500	0,5	0,227500
16,866833	0,5	0,221000
16,875167	0,5	0,212750
16,883500	0,5	0,207850
16,891833	0,5	0,203700
16,900167	0,5	0,204650
16,908500	0,5	0,196950
16,916833	0,5	0,193800
16,925167	0,5	0,196200
16,933500	0,5	0,194300
16,941833	0,5	0,185600
16,950167	0,5	0,176600
16,958500	0,5	0,169800
16,966833	0,5	0,179300
16,975167	0,5	0,173350
16,983500	0,5	0,176250
16,991833	0,5	0,167750
17,000167	0,5	0,170950
17,008500	0,5	0,166150
17,016833	0,5	0,168500
17,025167	0,5	0,167400
17,033500	0,5	0,158150
17,041833	0,5	0,165000
17,050167	0,5	0,168850
17,058500	0,5	0,155650
17,066833	0,5	0,164300
17,075167	0,5	0,161850
17,083500	0,5	0,156200
17,091833	0,5	0,146800
17,100167	0,5	0,134300
17,108500	0,5	0,134650
17,116833	0,5	0,132750
17,125167	0,5	0,140650
17,133500	0,5	0,133850
17,141833	0,5	0,138700
17,150167	0,5	0,135800
17,158500	0,5	0,138100
17,166833	0,5	0,135250
17,175167	0,5	0,133850
17,183500	0,5	0,131000
17,191833	0,5	0,133000
17,200167	0,5	0,126300
17,208500	0,5	0,119800
17,216833	0,5	0,124700
17,225167	0,5	0,121150
17,233500	0,5	0,111450
17,241833	0,5	0,096000
17,250167	0,5	0,092800
17,258500	0,5	0,092650
17,266833	0,5	0,099000
17,275167	0,5	0,092100
17,283500	0,5	0,091650
17,291833	0,5	0,089500
17,300167	0,5	0,089550
17,308500	0,5	0,086850
17,316833	0,5	0,086300
17,325167	0,5	0,084550
17,333500	0,5	0,079950
17,341833	0,5	0,080250
17,350167	0,5	0,071200
17,358500	0,5	0,072350
17,366833	0,5	0,081350
17,375167	0,5	0,074700
17,383500	0,5	0,071000
17,391833	0,5	0,057100
17,400167	0,5	0,049550
17,408500	0,5	0,053900
17,416833	0,5	0,055450
17,425167	0,5	0,055200
17,433500	0,5	0,048100
17,441833	0,5	0,050200
17,450167	0,5	0,053100
17,458500	0,5	0,056450
17,466833	0,5	0,048400
17,475167	0,5	0,051300
17,483500	0,5	0,052450
17,491833	0,5	0,051050
17,500167	0,5	0,039450
17,508500	0,5	0,049950
17,516833	0,5	0,053600
17,525167	0,5	0,050500
17,533500	0,5	0,038100
17,541833	0,5	0,032550
17,550167	0,5	0,038100
17,558500	0,5	0,040500
17,566833	0,5	0,041400
17,575167	0,5	0,041750
17,583500	0,5	0,042900
17,591833	0,5	0,038050
17,600167	0,5	0,044050
17,608500	0,5	0,040950
17,616833	0,5	0,044300
17,625167	0,5	0,040200
17,633500	0,5	0,048750
17,641833	0,5	0,038400
17,650167	0,5	0,038100
17,658500	0,5	0,042400
17,666833	0,5	0,043800
17,675167	0,5	0,039150
17,683500	0,5	0,033500
17,691833	0,5	0,028300
17,700167	0,5	0,031800
17,708500	0,5	0,034750
17,716833	0,5	0,032650
17,725167	0,5	0,028300
17,733500	0,5	0,025650
17,741833	0,5	0,029300
17,750167	0,5	0,032550
17,758500	0,5	0,038000
17,766833	0,5	0,029900
17,775167	0,5	0,033750
17,783500	0,5	0,036850
17,791833	0,5	0,029400
17,800167	0,5	0,032400
17,808500	0,5	0,038600
17,816833	0,5	0,039800
17,825167	0,5	0,028450
17,833500	0,5	0,014950
17,841833	0,5	0,017100
17,850167	0,5	0,023600
17,858500	0,5	0,020200
17,866833	0,5	0,013250
17,875167	0,5	0,017800
17,883500	0,5	0,012500
17,891833	0,5	0,011550
17,900167	0,5	0,012100
17,908500	0,5	0,012750
17,916833	0,5	0,011850
17,925167	0,5	0,002650
17,933500	0,5	0,011750
17,941833	0,5	0,000300
17,950167	0,5	0,010800
17,958500	0,5	0,009050
17,966833	0,5	0,004350
17,975167	0,5	-0,002150
17,983500	0,5	-0,013200
17,991833	0,5	-0,012500
18,000167	0,5	-0,006700
18,008500	0,5	-0,014400
18,016833	0,5	-0,009600
18,025167	0,5	-0,018050
18,033500	0,5	-0,017050
18,041833	0,5	-0,012900
18,050167	0,5	-0,010900
18,058500	0,5	-0,012400
18,066833	0,5	-0,018400
18,075167	0,5	-0,010250
18,083500	0,5	-0,013100
18,091833	0,5	-0,017250
18,100167	0,5	-0,007900
18,108500	0,5	-0,012900
18,116833	0,5	-0,016150
18,125167	0,5	-0,028350
18,133500	0,5	-0,038300
18,141833	0,5	-0,030350
18,150167	0,5	-0,033100
18,158500	0,5	-0,028800
18,166833	0,5	-0,030800
18,175167	0,5	-0,030300
18,183500	0,5	-0,028950
18,191833	0,5	-0,026850
18,200167	0,5	-0,028300
18,208500	0,5	-0,026850
18,216833	0,5	-0,020750
18,225167	0,5	-0,016700
18,233500	0,5	-0,024750
18,241833	0,5	-0,018600
18,250167	0,5	-0,015050
18,258500	0,5	-0,015200
18,266833	0,5	-0,018450
18,275167	0,5	-0,033300
18,283500	0,5	-0,030200
18,291833	0,5	-0,025100
18,300167	0,5	-0,015350
18,308500	0,5	-0,020100
18,316833	0,5	-0,017700
18,325167	0,5	-0,015700
18,333500	0,5	-0,009900
18,341833	0,5	-0,008000
18,350167	0,5	-0,007250
18,358500	0,5	-0,004400
18,366833	0,5	0,002400
18,375167	0,5	0,000900
18,383500	0,5	-0,004950
18,391833	0,5	0,003100
18,400167	0,5	0,005150
18,408500	0,5	0,000400
18,416833	0,5	-0,010200
18,425167	0,5	-0,014600
18,433500	0,5	-0,017550
18,441833	0,5	-0,009300
18,450167	0,5	-0,011700
18,458500	0,5	-0,005150
18,466833	0,5	-0,008950
18,475167	0,5	-0,005000
18,483500	0,5	-0,004050
18,491833	0,5	0,002700
18,500167	0,5	-0,002200
18,508500	0,5	0,004050
18,516833	0,5	0,004650
18,525167	0,5	-0,001950
18,533500	0,5	0,000050
18,541833	0,5	0,008350
18,550167	0,5	0,008500
18,558500	0,5	0,003350
18,566833	0,5	-0,011250
18,575167	0,5	-0,009100
18,583500	0,5	0,001200
18,591833	0,5	-0,000200
18,600167	0,5	0,004100
18,608500	0,5	0,002900
18,616833	0,5	0,004950
18,625167	0,5	0,003950
18,633500	0,5	0,011600
18,641833	0,5	0,008350
18,650167	0,5	0,012800
18,658500	0,5	0,015550
18,666833	0,5	0,025600
18,675167	0,5	0,009400
18,683500	0,5	0,021900
18,691833	0,5	0,020350
18,700167	0,5	0,017850
18,708500	0,5	0,017550
18,716833	0,5	-0,005550
18,725167	0,5	0,004550
18,733500	0,5	0,006400
18,741833	0,5	0,007950
18,750167	0,5	0,007500
18,758500	0,5	0,008900
18,766833	0,5	0,004700
18,775167	0,5	0,011500
18,783500	0,5	0,012400
18,791833	0,5	0,012100
18,800167	0,5	0,006000
18,808500	0,5	0,017600
18,816833	0,5	0,010400
18,825167	0,5	0,005400
18,833500	0,5	0,013450
18,841833	0,5	0,017850
18,850167	0,5	0,007150
18,858500	0,5	0,002900
18,866833	0,5	-0,008700
18,875167	0,5	-0,004200
18,883500	0,5	-0,002250
18,891833	0,5	-0,003150
18,900167	0,5	0,002750
18,908500	0,5	-0,001550
18,916833	0,5	-0,001650
18,925167	0,5	-0,003350
18,933500	0,5	-0,001400
18,941833	0,5	0,002200
18,950167	0,5	0,007850
18,958500	0,5	0,003950
18,966833	0,5	0,003150
18,975167	0,5	-0,002450
18,983500	0,5	0,007700
18,991833	0,5	0,006650
19,000167	0,5	-0,000050
19,008500	0,5	-0,017000
19,016833	0,5	-0,021700
19,025167	0,5	-0,010050
19,033500	0,5	-0,008050
19,041833	0,5	-0,011800
19,050167	0,5	-0,008700
19,058500	0,5	-0,006650
19,066833	0,5	-0,009850
19,075167	0,5	-0,004700
19,083500	0,5	-0,005600
19,091833	0,5	-0,005800
19,100167	0,5	-0,000800
19,108500	0,5	0,003350
19,116833	0,5	-0,007950
19,125167	0,5	0,004250
19,133500	0,5	0,003650
19,141833	0,5	0,003050
19,150167	0,5	-0,000300
19,158500	0,5	-0,011800
19,166833	0,5	-0,012500
19,175167	0,5	-0,009600
19,183500	0,5	-0,001100
19,191833	0,5	-0,003050
19,200167	0,5	0,001250
19,208500	0,5	-0,004500
19,216833	0,5	0,001200
19,225167	0,5	0,002150
19,233500	0,5	0,005400
19,241833	0,5	0,006850
19,250167	0,5	0,019750
19,258500	0,5	0,015200
19,266833	0,5	0,014550
19,275167	0,5	0,019050
19,283500	0,5	0,020200
19,291833	0,5	0,015900
19,300167	0,5	0,008250
19,308500	0,5	-0,002200
19,316833	0,5	0,011500
19,325167	0,5	0,012350
19,333500	0,5	0,015450
19,341833	0,5	0,015400
19,350167	0,5	0,016950
19,358500	0,5	0,022300
19,366833	0,5	0,026450
19,375167	0,5	0,030100
19,383500	0,5	0,032950
19,391833	0,5	0,041650
19,400167	0,5	0,046250
19,408500	0,5	0,032500
19,416833	0,5	0,038850
19,425167	0,5	0,046400
19,433500	0,5	0,041750
19,441833	0,5	0,046050
19,450167	0,5	0,027500
19,458500	0,5	0,031600
19,466833	0,5	0,032100
19,475167	0,5	0,037150
19,483500	0,5	0,035700
19,491833	0,5	0,044900
19,500167	0,5	0,042300
19,508500	0,5	0,049750
19,516833	0,5	0,048550
19,525167	0,5	0,047150
19,533500	0,5	0,055850
19,541833	0,5	0,064000
19,550167	0,5	0,065350
19,558500	0,5	0,058100
19,566833	0,5	0,068700
19,575167	0,5	0,067300
19,583500	0,5	0,063100
19,591833	0,5	0,054900
19,600167	0,5	0,044450
19,608500	0,5	0,048600
19,616833	0,5	0,059100
19,625167	0,5	0,054100
19,633500	0,5	0,060450
19,641833	0,5	0,057100
19,650167	0,5	0,061250
19,658500	0,5	0,062550
19,666833	0,5	0,066050
19,675167	0,5	0,068800
19,683500	0,5	0,067950
19,691833	0,5	0,081500
19,700167	0,5	0,072300
19,708500	0,5	0,071000
19,716833	0,5	0,076850
19,725167	0,5	0,079050
19,733500	0,5	0,070400
19,741833	0,5	0,065500
19,750167	0,5	0,064350
19,758500	0,5	0,075100
19,766833	0,5	0,070550
19,775167	0,5	0,075750
19,783500	0,5	0,075900
19,791833	0,5	0,080300
19,800167	0,5	0,074800
19,808500	0,5	0,084300
19,816833	0,5	0,086000
19,825167	0,5	0,089800
19,833500	0,5	0,098500
19,841833	0,5	0,106200
19,850167	0,5	0,099000
19,858500	0,5	0,109050
19,866833	0,5	0,110350
19,875167	0,5	0,112850
19,883500	0,5	0,109400
19,891833	0,5	0,091000
19,900167	0,5	0,100250
19,908500	0,5	0,102700
19,916833	0,5	0,109700
19,925167	0,5	0,108400
19,933500	0,5	0,119800
19,941833	0,5	0,114800
19,950167	0,5	0,120200
19,958500	0,5	0,117150
19,966833	0,5	0,118050
19,975167	0,5	0,121850
19,983500	0,5	0,127100
19,991833	0,5	0,127800
20,000167	0,5	0,120550
20,008500	0,5	0,134800
20,016833	0,5	0,134750
20,025167	0,5	0,138400
20,033500	0,5	0,128500
20,041833	0,5	0,124400
20,050167	0,5	0,129250
20,058500	0,5	0,140400
20,066833	0,5	0,137500
20,075167	0,5	0,146300
20,083500	0,5	0,144300
20,091833	0,5	0,148850
20,100167	0,5	0,147850
20,108500	0,5	0,160650
20,116833	0,5	0,159150
20,125167	0,5	0,164100
20,133500	0,5	0,167450
20,141833	0,5	0,164750
20,150167	0,5	0,166450
20,158500	0,5	0,170000
20,166833	0,5	0,171300
20,175167	0,5	0,167000
20,183500	0,5	0,162650
20,191833	0,5	0,151650
20,200167	0,5	0,165000
20,208500	0,5	0,161500
20,216833	0,5	0,169850
20,225167	0,5	0,168600
20,233500	0,5	0,175500
20,241833	0,5	0,173900
20,250167	0,5	0,179350
20,258500	0,5	0,175950
20,266833	0,5	0,182750
20,275167	0,5	0,192250
20,283500	0,5	0,196550
20,291833	0,5	0,187200
20,300167	0,5	0,195550
20,308500	0,5	0,199450
20,316833	0,5	0,196650
20,325167	0,5	0,184000
20,333500	0,5	0,176200
20,341833	0,5	0,181450
20,350167	0,5	0,182400
20,358500	0,5	0,193200
20,366833	0,5	0,191400
20,375167	0,5	0,198150
20,383500	0,5	0,198700
20,391833	0,5	0,201900
20,400167	0,5	0,201900
20,408500	0,5	0,208700
20,416833	0,5	0,214850
20,425167	0,5	0,230450
20,433500	0,5	0,224600
20,441833	0,5	0,229850
20,450167	0,5	0,232750
20,458500	0,5	0,233650
20,466833	0,5	0,235550
20,475167	0,5	0,223900
20,483500	0,5	0,223050
20,491833	0,5	0,221350
20,500167	0,5	0,227900
20,508500	0,5	0,231750
20,516833	0,5	0,240050
20,525167	0,5	0,239550
20,533500	0,5	0,245050
20,541833	0,5	0,246850
20,550167	0,5	0,254550
20,558500	0,5	0,252150
20,566833	0,5	0,273250
20,575167	0,5	0,278450
20,583500	0,5	0,270000
20,591833	0,5	0,277300
20,600167	0,5	0,282600
20,608500	0,5	0,281850
20,616833	0,5	0,277650
20,625167	0,5	0,267150
20,633500	0,5	0,277250
20,641833	0,5	0,289300
20,650167	0,5	0,294350
20,658500	0,5	0,296850
20,666833	0,5	0,301050
20,675167	0,5	0,308300
20,683500	0,5	0,305850
20,691833	0,5	0,320450
20,700167	0,5	0,322150
20,708500	0,5	0,336300
20,716833	0,5	0,357000
20,725167	0,5	0,367650
20,733500	0,5	0,362400
20,741833	0,5	0,371750
20,750167	0,5	0,373200
20,758500	0,5	0,372200
20,766833	0,5	0,367750
20,775167	0,5	0,367000
20,783500	0,5	0,379500
20,791833	0,5	0,384250
20,800167	0,5	0,389750
20,808500	0,5	0,392500
20,816833	0,5	0,398400
20,825167	0,5	0,403900
20,833500	0,5	0,415500
20,841833	0,5	0,417150
20,850167	0,5	0,422000
20,858500	0,5	0,440300
20,866833	0,5	0,461850
20,875167	0,5	0,467700
20,883500	0,5	0,467450
20,891833	0,5	0,474150
20,900167	0,5	0,489600
20,908500	0,5	0,491850
20,916833	0,5	0,492150
20,925167	0,5	0,516000
20,933500	0,5	0,530050
20,941833	0,5	0,545500
20,950167	0,5	0,557400
20,958500	0,5	0,566350
20,966833	0,5	0,575200
20,975167	0,5	0,581300
20,983500	0,5	0,584250
20,991833	0,5	0,600550
21,000167	0,5	0,604500
21,008500	0,5	0,632800
21,016833	0,5	0,648350
21,025167	0,5	0,647950
21,033500	0,5	0,651800
21,041833	0,5	0,650900
21,050167	0,5	0,651000
21,058500	0,5	0,649150
21,066833	0,5	0,646750
21,075167	0,5	0,650800
21,083500	0,5	0,660200
21,091833	0,5	0,669750
21,100167	0,5	0,681400
21,108500	0,5	0,687900
21,116833	0,5	0,698700
21,125167	0,5	0,703000
21,133500	0,5	0,718000
21,141833	0,5	0,726800
21,150167	0,5	0,752350
21,158500	0,5	0,776700
21,166833	0,5	0,800100
21,175167	0,5	0,808400
21,183500	0,5	0,824850
21,191833	0,5	0,838800
21,200167	0,5	0,859700
21,208500	0,5	0,878500
21,216833	0,5	0,895800
21,225167	0,5	0,922650
21,233500	0,5	0,929750
21,241833	0,5	0,932700
21,250167	0,5	0,926500
21,258500	0,5	0,922950
21,266833	0,5	0,918200
21,275167	0,5	0,911650
21,283500	0,5	0,903350
21,291833	0,5	0,904350
21,300167	0,5	0,932200
21,308500	0,5	0,950900
21,316833	0,5	0,951600
21,325167	0,5	0,956700
21,333500	0,5	0,964450
21,341833	0,5	0,970100
21,350167	0,5	0,967800
21,358500	0,5	0,973900
21,366833	0,5	0,981550
21,375167	0,5	0,981300
21,383500	0,5	0,994800
21,391833	0,5	1,007050
21,400167	0,5	1,020200
21,408500	0,5	1,028750
21,416833	0,5	1,046050
21,425167	0,5	1,061350
21,433500	0,5	1,076100
21,441833	0,5	1,107900
21,450167	0,5	1,134950
21,458500	0,5	1,158300
21,466833	0,5	1,165750
21,475167	0,5	1,170300
21,483500	0,5	1,180850
21,491833	0,5	1,194550
21,500167	0,5	1,196800
21,508500	0,5	1,218300
21,516833	0,5	1,231900
21,525167	0,5	1,252100
21,533500	0,5	1,260450
21,541833	0,5	1,287200
21,550167	0,5	1,304200
21,558500	0,5	1,318800
21,566833	0,5	1,333750
21,575167	0,5	1,342150
21,583500	0,5	1,353350
21,591833	0,5	1,386950
21,600167	0,5	1,409300
21,608500	0,5	1,410700
21,616833	0,5	1,421000
21,625167	0,5	1,425250
21,633500	0,5	1,428050
21,641833	0,5	1,431200
21,650167	0,5	1,437900
21,658500	0,5	1,460750
21,666833	0,5	1,478000
21,675167	0,5	1,488300
21,683500	0,5	1,508800
21,691833	0,5	1,527800
21,700167	0,5	1,551100
21,708500	0,5	1,569200
21,716833	0,5	1,596700
21,725167	0,5	1,616850
21,733500	0,5	1,650200
21,741833	0,5	1,687900
21,750167	0,5	1,718200
21,758500	0,5	1,735500
21,766833	0,5	1,753450
21,775167	0,5	1,775150
21,783500	0,5	1,799550
21,791833	0,5	1,816250
21,800167	0,5	1,844800
21,808500	0,5	1,877600
21,816833	0,5	1,895150
21,825167	0,5	1,920600
21,833500	0,5	1,942550
21,841833	0,5	1,960400
21,850167	0,5	1,978550
21,858500	0,5	2,003600
21,866833	0,5	2,015700
21,875167	0,5	2,037200
21,883500	0,5	2,070750
21,891833	0,5	2,098200
21,900167	0,5	2,111200
21,908500	0,5	2,136750
21,916833	0,5	2,158550
21,925167	0,5	2,185200
21,933500	0,5	2,195550
21,941833	0,5	2,209100
21,950167	0,5	2,240700
21,958500	0,5	2,267350
21,966833	0,5	2,290600
21,975167	0,5	2,319100
21,983500	0,5	2,353550
21,991833	0,5	2,383450
22,000167	0,5	2,416250
22,008500	0,5	2,447450
22,016833	0,5	2,485450
22,025167	0,5	2,526250
22,033500	0,5	2,579650
22,041833	0,5	2,610900
22,050167	0,5	2,643200
22,058500	0,5	2,668100
22,066833	0,5	2,689500
22,075167	0,5	2,705250
22,083500	0,5	2,721500
22,091833	0,5	2,748650
22,100167	0,5	2,777600
22,108500	0,5	2,814850
22,116833	0,5	2,840600
22,125167	0,5	2,873400
22,133500	0,5	2,900350
22,141833	0,5	2,934650
22,150167	0,5	2,959950
22,158500	0,5	2,985300
22,166833	0,5	3,013250
22,175167	0,5	3,049550
22,183500	0,5	3,080050
22,191833	0,5	3,111950
22,200167	0,5	3,153850
22,208500	0,5	3,195200
22,216833	0,5	3,229150
22,225167	0,5	3,263150
22,233500	0,5	3,294100
22,241833	0,5	3,325150
22,250167	0,5	3,372600
22,258500	0,5	3,407350
22,266833	0,5	3,456900
22,275167	0,5	3,500700
22,283500	0,5	3,542700
22,291833	0,5	3,592600
22,300167	0,5	3,644700
22,308500	0,5	3,701200
22,316833	0,5	3,764050
22,325167	0,5	3,824250
22,333500	0,5	3,890600
22,341833	0,5	3,970000
22,350167	0,5	4,036800
22,358500	0,5	4,081250
22,366833	0,5	4,125450
22,375167	0,5	4,149150
22,383500	0,5	4,189500
22,391833	0,5	4,238600
22,400167	0,5	4,275400
22,408500	0,5	4,318850
22,416833	0,5	4,356200
22,425167	0,5	4,406950
22,433500	0,5	4,453300
22,441833	0,5	4,510600
22,450167	0,5	4,553450
22,458500	0,5	4,617550
22,466833	0,5	4,659550
22,475167	0,5	4,719250
22,483500	0,5	4,774650
22,491833	0,5	4,858200
22,500167	0,5	4,922050
22,508500	0,5	4,979200
22,516833	0,5	5,027250
22,525167	0,5	5,071950
22,533500	0,5	5,141150
22,541833	0,5	5,189300
22,550167	0,5	5,241000
22,558500	0,5	5,279100
22,566833	0,5	5,314800
22,575167	0,5	5,347450
22,583500	0,5	5,380850
22,591833	0,5	5,397750
22,600167	0,5	5,417950
22,608500	0,5	5,423500
22,616833	0,5	5,415200
22,625167	0,5	5,416200
22,633500	0,5	5,446200
22,641833	0,5	5,440050
22,650167	0,5	5,428150
22,658500	0,5	5,403250
22,666833	0,5	5,369050
22,675167	0,5	5,333200
22,683500	0,5	5,300800
22,691833	0,5	5,257900
22,700167	0,5	5,204950
22,708500	0,5	5,155250
22,716833	0,5	5,097400
22,725167	0,5	5,031250
22,733500	0,5	4,958200
22,741833	0,5	4,878150
22,750167	0,5	4,796250
22,758500	0,5	4,676200
22,766833	0,5	4,591050
22,775167	0,5	4,508200
22,783500	0,5	4,428650
22,791833	0,5	4,325550
22,800167	0,5	4,214100
22,808500	0,5	4,097250
22,816833	0,5	3,971150
22,825167	0,5	3,844750
22,833500	0,5	3,715250
22,841833	0,5	3,580150
22,850167	0,5	3,442750
22,858500	0,5	3,302850
22,866833	0,5	3,162300
22,875167	0,5	3,019900
22,883500	0,5	2,879750
22,891833	0,5	2,742650
22,900167	0,5	2,601150
22,908500	0,5	2,439100
22,916833	0,5	2,319200
22,925167	0,5	2,180450
22,933500	0,5	2,025300
22,941833	0,5	1,887750
22,950167	0,5	1,748600
22,958500	0,5	1,618450
22,966833	0,5	1,492350
22,975167	0,5	1,351000
22,983500	0,5	1,226250
22,991833	0,5	1,104250
23,000167	0,5	0,989800
23,008500	0,5	0,867900
23,016833	0,5	0,762350
23,025167	0,5	0,654800
23,033500	0,5	0,551800
23,041833	0,5	0,443950
23,050167	0,5	0,377900
23,058500	0,5	0,271500
23,066833	0,5	0,181550
23,075167	0,5	0,058250
23,083500	0,5	-0,034800
23,091833	0,5	-0,118350
23,100167	0,5	-0,187350
23,108500	0,5	-0,259700
23,116833	0,5	-0,331650
23,125167	0,5	-0,399950
23,133500	0,5	-0,472350
23,141833	0,5	-0,535050
23,150167	0,5	-0,589650
23,158500	0,5	-0,638550
23,166833	0,5	-0,698550
23,175167	0,5	-0,749050
23,183500	0,5	-0,804700
23,191833	0,5	-0,849350
23,200167	0,5	-0,881850
23,208500	0,5	-0,931950
23,216833	0,5	-0,965050
23,225167	0,5	-1,033100
23,233500	0,5	-1,089750
23,241833	0,5	-1,122700
23,250167	0,5	-1,151450
23,258500	0,5	-1,177550
23,266833	0,5	-1,210800
23,275167	0,5	-1,235000
23,283500	0,5	-1,258350
23,291833	0,5	-1,280000
23,300167	0,5	-1,302850
23,308500	0,5	-1,324150
23,316833	0,5	-1,340500
23,325167	0,5	-1,358800
23,333500	0,5	-1,373550
23,341833	0,5	-1,378700
23,350167	0,5	-1,436800
23,358500	0,5	-1,418900
23,366833	0,5	-1,417350
23,375167	0,5	-1,458600
23,383500	0,5	-1,476700
23,391833	0,5	-1,493900
23,400167	0,5	-1,491600
23,408500	0,5	-1,505250
23,416833	0,5	-1,512500
23,425167	0,5	-1,525300
23,433500	0,5	-1,527050
23,441833	0,5	-1,529100
23,450167	0,5	-1,528850
23,458500	0,5	-1,529150
23,466833	0,5	-1,531100
23,475167	0,5	-1,527150
23,483500	0,5	-1,534450
23,491833	0,5	-1,571400
23,500167	0,5	-1,565450
23,508500	0,5	-1,559950
23,516833	0,5	-1,520400
23,525167	0,5	-1,529950
23,533500	0,5	-1,542500
23,541833	0,5	-1,544200
23,550167	0,5	-1,541500
23,558500	0,5	-1,546000
23,566833	0,5	-1,546450
23,575167	0,5	-1,545000
23,583500	0,5	-1,541600
23,591833	0,5	-1,540750
23,600167	0,5	-1,539250
23,608500	0,5	-1,531650
23,616833	0,5	-1,530650
23,625167	0,5	-1,526750
23,633500	0,5	-1,526600
23,641833	0,5	-1,613450
23,650167	0,5	-1,570950
23,658500	0,5	-1,539850
23,666833	0,5	-1,498700
23,675167	0,5	-1,497000
23,683500	0,5	-1,495900
23,691833	0,5	-1,491950
23,700167	0,5	-1,494600
23,708500	0,5	-1,482650
23,716833	0,5	-1,477700
23,725167	0,5	-1,469350
23,733500	0,5	-1,460750
23,741833	0,5	-1,457700
23,750167	0,5	-1,449500
23,758500	0,5	-1,441350
23,766833	0,5	-1,433450
23,775167	0,5	-1,427500
23,783500	0,5	-1,470400
23,791833	0,5	-1,520750
23,800167	0,5	-1,482900
23,808500	0,5	-1,432500
23,816833	0,5	-1,398850
23,825167	0,5	-1,390450
23,833500	0,5	-1,382250
23,841833	0,5	-1,379400
23,850167	0,5	-1,370700
23,858500	0,5	-1,360000
23,866833	0,5	-1,347800
23,875167	0,5	-1,334300
23,883500	0,5	-1,324400
23,891833	0,5	-1,314900
23,900167	0,5	-1,301250
23,908500	0,5	-1,290400
23,916833	0,5	-1,277500
23,925167	0,5	-1,268350
23,933500	0,5	-1,374350
23,941833	0,5	-1,349300
23,950167	0,5	-1,306800
23,958500	0,5	-1,260450
23,966833	0,5	-1,230900
23,975167	0,5	-1,219250
23,983500	0,5	-1,211350
23,991833	0,5	-1,214100
24,000167	0,5	-1,211850
24,008500	0,5	-1,190300
24,016833	0,5	-1,178850
24,025167	0,5	-1,161550
24,033500	0,5	-1,151250
24,041833	0,5	-1,137150
24,050167	0,5	-1,123850
24,058500	0,5	-1,106650
24,066833	0,5	-1,096850
24,075167	0,5	-1,095150
24,083500	0,5	-1,191800
24,091833	0,5	-1,150950
24,100167	0,5	-1,110350
24,108500	0,5	-1,057550
24,116833	0,5	-1,035350
24,125167	0,5	-1,024350
24,133500	0,5	-1,019850
24,141833	0,5	-1,018050
24,150167	0,5	-1,002550
24,158500	0,5	-0,987250
24,166833	0,5	-0,972050
24,175167	0,5	-0,962150
24,183500	0,5	-0,952650
24,191833	0,5	-0,944900
24,200167	0,5	-0,926350
24,208500	0,5	-0,916600
24,216833	0,5	-0,899800
24,225167	0,5	-0,943900
24,233500	0,5	-0,963450
24,241833	0,5	-0,945350
24,250167	0,5	-0,892700
24,258500	0,5	-0,863100
24,266833	0,5	-0,842350
24,275167	0,5	-0,834050
24,283500	0,5	-0,835400
24,291833	0,5	-0,830600
24,300167	0,5	-0,814100
24,308500	0,5	-0,799700
24,316833	0,5	-0,782650
24,325167	0,5	-0,773850
24,333500	0,5	-0,762750
24,341833	0,5	-0,747550
24,350167	0,5	-0,735050
24,358500	0,5	-0,722400
24,366833	0,5	-0,718850
24,375167	0,5	-0,776800
24,383500	0,5	-0,770700
24,391833	0,5	-0,743250
24,400167	0,5	-0,707100
24,408500	0,5	-0,685300
24,416833	0,5	-0,674750
24,425167	0,5	-0,669700
24,433500	0,5	-0,674300
24,441833	0,5	-0,659750
24,450167	0,5	-0,647950
24,458500	0,5	-0,635150
24,466833	0,5	-0,628750
24,475167	0,5	-0,616200
24,483500	0,5	-0,609450
24,491833	0,5	-0,599850
24,500167	0,5	-0,586650
24,508500	0,5	-0,579300
24,516833	0,5	-0,579250
24,525167	0,5	-0,627650
24,533500	0,5	-0,597350
24,541833	0,5	-0,583450
24,550167	0,5	-0,555100
24,558500	0,5	-0,540100
24,566833	0,5	-0,530800
24,575167	0,5	-0,536500
24,583500	0,5	-0,538650
24,591833	0,5	-0,526500
24,600167	0,5	-0,515050
24,608500	0,5	-0,513350
24,616833	0,5	-0,503650
24,625167	0,5	-0,500700
24,633500	0,5	-0,489550
24,641833	0,5	-0,483150
24,650167	0,5	-0,473000
24,658500	0,5	-0,465050
24,666833	0,5	-0,497650
24,675167	0,5	-0,495650
24,683500	0,5	-0,483050
24,691833	0,5	-0,462100
24,700167	0,5	-0,443250
24,708500	0,5	-0,433600
24,716833	0,5	-0,431750
24,725167	0,5	-0,429800
24,733500	0,5	-0,429600
24,741833	0,5	-0,420350
24,750167	0,5	-0,417500
24,758500	0,5	-0,409750
24,766833	0,5	-0,411700
24,775167	0,5	-0,402700
24,783500	0,5	-0,403050
24,791833	0,5	-0,394400
24,800167	0,5	-0,388050
24,808500	0,5	-0,384800
24,816833	0,5	-0,416600
24,825167	0,5	-0,398950
24,833500	0,5	-0,389150
24,841833	0,5	-0,373000
24,850167	0,5	-0,364600
24,858500	0,5	-0,361150
24,866833	0,5	-0,363100
24,875167	0,5	-0,362500
24,883500	0,5	-0,358550
24,891833	0,5	-0,354200
24,900167	0,5	-0,347400
24,908500	0,5	-0,344800
24,916833	0,5	-0,340500
24,925167	0,5	-0,335700
24,933500	0,5	-0,333050
24,941833	0,5	-0,328650
24,950167	0,5	-0,325150
24,958500	0,5	-0,325000
24,966833	0,5	-0,343100
24,975167	0,5	-0,330250
24,983500	0,5	-0,324750
24,991833	0,5	-0,312250
25,000167	0,5	-0,309850
25,008500	0,5	-0,305350
25,016833	0,5	-0,305900
25,025167	0,5	-0,307400
25,033500	0,5	-0,306750
25,041833	0,5	-0,301450
25,050167	0,5	-0,295300
25,058500	0,5	-0,293500
25,066833	0,5	-0,291100
25,075167	0,5	-0,286450
25,083500	0,5	-0,283800
25,091833	0,5	-0,283500
25,100167	0,5	-0,277350
25,108500	0,5	-0,281200
25,116833	0,5	-0,283900
25,125167	0,5	-0,277500
25,133500	0,5	-0,271850
25,141833	0,5	-0,266400
25,150167	0,5	-0,260650
25,158500	0,5	-0,264150
25,166833	0,5	-0,264050
25,175167	0,5	-0,266700
25,183500	0,5	-0,263800
25,191833	0,5	-0,262750
25,200167	0,5	-0,259350
25,208500	0,5	-0,258000
25,216833	0,5	-0,255250
25,225167	0,5	-0,256250
25,233500	0,5	-0,252150
25,241833	0,5	-0,249050
25,250167	0,5	-0,248200
25,258500	0,5	-0,254750
25,266833	0,5	-0,246400
25,275167	0,5	-0,243900
25,283500	0,5	-0,241900
25,291833	0,5	-0,237050
25,300167	0,5	-0,236400
25,308500	0,5	-0,235650
25,316833	0,5	-0,238900
25,325167	0,5	-0,236250
25,333500	0,5	-0,234000
25,341833	0,5	-0,235400
25,350167	0,5	-0,235300
25,358500	0,5	-0,232750
25,366833	0,5	-0,233000
25,375167	0,5	-0,232700
25,383500	0,5	-0,230300
25,391833	0,5	-0,230150
25,400167	0,5	-0,227100
25,408500	0,5	-0,228150
25,416833	0,5	-0,227450
25,425167	0,5	-0,220400
25,433500	0,5	-0,224100
25,441833	0,5	-0,220700
25,450167	0,5	-0,217350
25,458500	0,5	-0,219250
25,466833	0,5	-0,219800
25,475167	0,5	-0,218750
25,483500	0,5	-0,214750
25,491833	0,5	-0,214500
25,500167	0,5	-0,215850
25,508500	0,5	-0,214650
25,516833	0,5	-0,214700
25,525167	0,5	-0,214350
25,533500	0,5	-0,215150
25,541833	0,5	-0,214050
25,550167	0,5	-0,209450
25,558500	0,5	-0,210400
25,566833	0,5	-0,208600
25,575167	0,5	-0,207700
25,583500	0,5	-0,209150
25,591833	0,5	-0,207450
25,600167	0,5	-0,207600
25,608500	0,5	-0,207950
25,616833	0,5	-0,205050
25,625167	0,5	-0,205250
25,633500	0,5	-0,204750
25,641833	0,5	-0,202950
25,650167	0,5	-0,204100
25,658500	0,5	-0,204500
25,666833	0,5	-0,204000
25,675167	0,5	-0,199550
25,683500	0,5	-0,200100
25,691833	0,5	-0,201050
25,700167	0,5	-0,196800
25,708500	0,5	-0,195900
25,716833	0,5	-0,193800
25,725167	0,5	-0,198100
25,733500	0,5	-0,197150
25,741833	0,5	-0,198050
25,750167	0,5	-0,191900
25,758500	0,5	-0,189400
25,766833	0,5	-0,188700
25,775167	0,5	-0,190550
25,783500	0,5	-0,187500
25,791833	0,5	-0,185250
25,800167	0,5	-0,183600
25,808500	0,5	-0,183750
25,816833	0,5	-0,184900
25,825167	0,5	-0,184250
25,833500	0,5	-0,185550
25,841833	0,5	-0,184250
25,850167	0,5	-0,176900
25,858500	0,5	-0,178850
25,866833	0,5	-0,173700
25,875167	0,5	-0,180100
25,883500	0,5	-0,178300
25,891833	0,5	-0,179050
25,900167	0,5	-0,175450
25,908500	0,5	-0,168650
25,916833	0,5	-0,169400
25,925167	0,5	-0,168400
25,933500	0,5	-0,168550
25,941833	0,5	-0,166350
25,950167	0,5	-0,168300
25,958500	0,5	-0,165250
25,966833	0,5	-0,164550
25,975167	0,5	-0,164450
25,983500	0,5	-0,163250
25,991833	0,5	-0,162050
26,000167	0,5	-0,160200
