File Path	chrom://chromeleon01/ikbm_chromeleon/2022/ICS-5000/ED1/Esteban/20220612_Cell_7_4_eg.seq/770.smp/ED_1.channel/ED_1.chm
Channel	ED_1

Injection Information:
Data Vault	ikbm_chromeleon
Injection	7_24h-EGS-pH6-Dil1-5_3
Injection Number	54
Position	RA8
Comment	
Processing Method	Stop sequence after Cell Death
Instrument Method	ICS5000_PA200_FullNative_Ox_26min_ED1
Type	Unknown
Status	Finished
Injection Date	13.06.2022
Injection Time	17:18:09
Injection Volume (µl)	5,0
Dilution Factor	1,0000
Weight	1,0000

Chromatogram Data Information:
Time Min. (min)	0,000167
Time Max. (min)	26,000167
Data Points	3121
Detector	EDet1
Generating Data System	Chromeleon 7.2.9.11323
Exporting Data System	Chromeleon 7.2.9.0
Operator	Instrument Controller
Signal Quantity	
Signal Unit	nC
Signal Min.	-2,181700
Signal Max.	147,965402
Channel	ED_1
Driver Name	DC-5000
Channel Type	Evaluation
Min. Step (s)	0,5
Max. Step (s)	0,5
Average Step (s)	0,5

Signal Parameter Information:
Signal Info	

Chromatogram Data:
Time (min)	Step (s)	Value (nC)
0,000167	n.a.	-0,001800
0,008500	0,5	-0,062200
0,016833	0,5	-0,056850
0,025167	0,5	-0,049650
0,033500	0,5	-0,043650
0,041833	0,5	-0,033950
0,050167	0,5	-0,020650
0,058500	0,5	-0,022700
0,066833	0,5	-0,001000
0,075167	0,5	-0,026650
0,083500	0,5	-0,034950
0,091833	0,5	-0,031450
0,100167	0,5	-0,018750
0,108500	0,5	0,000650
0,116833	0,5	-0,006050
0,125167	0,5	-0,005850
0,133500	0,5	-0,011350
0,141833	0,5	-0,001100
0,150167	0,5	-0,008600
0,158500	0,5	-0,008850
0,166833	0,5	-0,015550
0,175167	0,5	-0,010750
0,183500	0,5	-0,014500
0,191833	0,5	-0,009300
0,200167	0,5	-0,029500
0,208500	0,5	-0,012050
0,216833	0,5	-0,011850
0,225167	0,5	-0,030350
0,233500	0,5	-0,035450
0,241833	0,5	-0,024100
0,250167	0,5	-0,015300
0,258500	0,5	-0,004900
0,266833	0,5	-0,015500
0,275167	0,5	-0,010950
0,283500	0,5	-0,014400
0,291833	0,5	-0,009800
0,300167	0,5	-0,002900
0,308500	0,5	0,001450
0,316833	0,5	-0,009550
0,325167	0,5	-0,027100
0,333500	0,5	-0,023300
0,341833	0,5	-0,023950
0,350167	0,5	-0,028450
0,358500	0,5	-0,018050
0,366833	0,5	-0,026350
0,375167	0,5	-0,037050
0,383500	0,5	-0,039700
0,391833	0,5	-0,034850
0,400167	0,5	-0,014750
0,408500	0,5	-0,016200
0,416833	0,5	-0,017100
0,425167	0,5	-0,019000
0,433500	0,5	-0,010950
0,441833	0,5	-0,021550
0,450167	0,5	-0,019500
0,458500	0,5	-0,021350
0,466833	0,5	-0,026450
0,475167	0,5	-0,023750
0,483500	0,5	-0,025850
0,491833	0,5	-0,021600
0,500167	0,5	-0,037450
0,508500	0,5	-0,021550
0,516833	0,5	-0,040150
0,525167	0,5	-0,035550
0,533500	0,5	-0,035300
0,541833	0,5	-0,024700
0,550167	0,5	-0,006700
0,558500	0,5	-0,008150
0,566833	0,5	-0,018400
0,575167	0,5	-0,009000
0,583500	0,5	-0,014200
0,591833	0,5	-0,009350
0,600167	0,5	-0,017600
0,608500	0,5	-0,014600
0,616833	0,5	-0,016400
0,625167	0,5	-0,008850
0,633500	0,5	-0,012200
0,641833	0,5	-0,023050
0,650167	0,5	-0,024050
0,658500	0,5	-0,007000
0,666833	0,5	-0,026000
0,675167	0,5	-0,021000
0,683500	0,5	-0,021500
0,691833	0,5	-0,009200
0,700167	0,5	0,015250
0,708500	0,5	0,009900
0,716833	0,5	0,020700
0,725167	0,5	0,012750
0,733500	0,5	0,014850
0,741833	0,5	0,010250
0,750167	0,5	0,011700
0,758500	0,5	0,000250
0,766833	0,5	0,007450
0,775167	0,5	0,011500
0,783500	0,5	-0,000850
0,791833	0,5	-0,006950
0,800167	0,5	0,001950
0,808500	0,5	0,002300
0,816833	0,5	-0,006300
0,825167	0,5	-0,000800
0,833500	0,5	-0,001250
0,841833	0,5	0,019450
0,850167	0,5	0,031850
0,858500	0,5	0,036800
0,866833	0,5	0,032000
0,875167	0,5	0,036600
0,883500	0,5	0,026500
0,891833	0,5	0,033250
0,900167	0,5	0,028250
0,908500	0,5	0,031550
0,916833	0,5	0,029350
0,925167	0,5	0,031900
0,933500	0,5	0,015500
0,941833	0,5	0,014700
0,950167	0,5	0,026750
0,958500	0,5	0,023900
0,966833	0,5	0,012600
0,975167	0,5	0,020050
0,983500	0,5	0,021050
0,991833	0,5	0,044000
1,000167	0,5	0,049650
1,008500	0,5	0,049400
1,016833	0,5	0,052050
1,025167	0,5	0,051050
1,033500	0,5	0,052600
1,041833	0,5	0,045000
1,050167	0,5	0,047650
1,058500	0,5	0,039600
1,066833	0,5	0,046950
1,075167	0,5	0,045750
1,083500	0,5	0,040600
1,091833	0,5	0,039450
1,100167	0,5	0,065450
1,108500	0,5	0,044400
1,116833	0,5	0,040700
1,125167	0,5	0,039750
1,133500	0,5	0,052600
1,141833	0,5	0,069700
1,150167	0,5	0,067400
1,158500	0,5	0,061150
1,166833	0,5	0,065800
1,175167	0,5	0,062250
1,183500	0,5	0,063650
1,191833	0,5	0,064950
1,200167	0,5	0,067050
1,208500	0,5	0,067250
1,216833	0,5	0,063050
1,225167	0,5	0,064500
1,233500	0,5	0,047550
1,241833	0,5	0,054950
1,250167	0,5	0,065050
1,258500	0,5	0,051450
1,266833	0,5	0,044200
1,275167	0,5	0,054900
1,283500	0,5	0,059300
1,291833	0,5	0,078950
1,300167	0,5	0,068500
1,308500	0,5	0,071700
1,316833	0,5	0,068500
1,325167	0,5	0,068550
1,333500	0,5	0,066600
1,341833	0,5	0,064650
1,350167	0,5	0,054950
1,358500	0,5	0,051950
1,366833	0,5	0,050850
1,375167	0,5	0,040450
1,383500	0,5	0,027950
1,391833	0,5	0,049150
1,400167	0,5	0,038800
1,408500	0,5	0,023650
1,416833	0,5	0,023900
1,425167	0,5	0,024900
1,433500	0,5	0,044200
1,441833	0,5	0,044250
1,450167	0,5	0,040700
1,458500	0,5	0,030350
1,466833	0,5	0,032200
1,475167	0,5	0,023550
1,483500	0,5	0,026650
1,491833	0,5	0,017750
1,500167	0,5	0,014150
1,508500	0,5	0,010550
1,516833	0,5	0,007700
1,525167	0,5	-0,003600
1,533500	0,5	-0,015100
1,541833	0,5	-0,010000
1,550167	0,5	-0,026900
1,558500	0,5	-0,043300
1,566833	0,5	-0,107500
1,575167	0,5	-0,303450
1,583500	0,5	-0,732300
1,591833	0,5	-1,046400
1,600167	0,5	-0,098100
1,608500	0,5	4,587400
1,616833	0,5	18,358850
1,625167	0,5	49,184251
1,633500	0,5	95,445851
1,641833	0,5	136,145102
1,650167	0,5	147,965402
1,658500	0,5	130,215102
1,666833	0,5	100,186701
1,675167	0,5	72,455951
1,683500	0,5	51,883201
1,691833	0,5	37,958901
1,700167	0,5	28,811450
1,708500	0,5	22,918400
1,716833	0,5	19,090950
1,725167	0,5	16,438750
1,733500	0,5	14,386200
1,741833	0,5	12,713100
1,750167	0,5	11,389850
1,758500	0,5	10,381550
1,766833	0,5	9,705550
1,775167	0,5	9,402900
1,783500	0,5	9,516250
1,791833	0,5	9,881400
1,800167	0,5	10,199400
1,808500	0,5	10,159100
1,816833	0,5	9,707750
1,825167	0,5	9,025800
1,833500	0,5	8,351800
1,841833	0,5	7,753100
1,850167	0,5	7,266500
1,858500	0,5	6,904300
1,866833	0,5	6,665300
1,875167	0,5	6,554900
1,883500	0,5	6,590450
1,891833	0,5	6,749500
1,900167	0,5	6,875500
1,908500	0,5	6,765950
1,916833	0,5	6,453200
1,925167	0,5	6,107850
1,933500	0,5	5,841350
1,941833	0,5	5,717100
1,950167	0,5	5,736700
1,958500	0,5	5,937700
1,966833	0,5	6,292800
1,975167	0,5	6,817200
1,983500	0,5	7,430200
1,991833	0,5	7,808650
2,000167	0,5	7,737450
2,008500	0,5	7,361800
2,016833	0,5	6,979600
2,025167	0,5	6,800350
2,033500	0,5	6,775100
2,041833	0,5	6,874400
2,050167	0,5	7,109950
2,058500	0,5	7,562550
2,066833	0,5	8,080150
2,075167	0,5	8,310600
2,083500	0,5	8,067750
2,091833	0,5	7,547800
2,100167	0,5	7,051800
2,108500	0,5	6,686450
2,116833	0,5	6,491400
2,125167	0,5	6,509300
2,133500	0,5	6,875850
2,141833	0,5	7,638550
2,150167	0,5	8,667900
2,158500	0,5	9,382650
2,166833	0,5	9,366850
2,175167	0,5	8,797500
2,183500	0,5	8,110150
2,191833	0,5	7,572600
2,200167	0,5	7,227100
2,208500	0,5	7,008600
2,216833	0,5	6,898300
2,225167	0,5	6,848300
2,233500	0,5	6,829500
2,241833	0,5	6,822800
2,250167	0,5	6,846550
2,258500	0,5	6,893750
2,266833	0,5	6,947100
2,275167	0,5	7,051550
2,283500	0,5	7,235950
2,291833	0,5	7,509350
2,300167	0,5	7,891000
2,308500	0,5	8,272250
2,316833	0,5	8,482900
2,325167	0,5	8,410500
2,333500	0,5	8,102400
2,341833	0,5	7,824050
2,350167	0,5	7,667550
2,358500	0,5	7,629600
2,366833	0,5	7,647650
2,375167	0,5	7,718850
2,383500	0,5	7,823900
2,391833	0,5	7,982050
2,400167	0,5	8,185750
2,408500	0,5	8,430650
2,416833	0,5	8,745450
2,425167	0,5	9,245500
2,433500	0,5	9,983900
2,441833	0,5	10,958600
2,450167	0,5	11,892250
2,458500	0,5	12,433200
2,466833	0,5	12,411400
2,475167	0,5	11,951500
2,483500	0,5	11,365450
2,491833	0,5	10,890150
2,500167	0,5	10,665400
2,508500	0,5	10,741500
2,516833	0,5	11,209950
2,525167	0,5	12,224350
2,533500	0,5	14,022250
2,541833	0,5	16,741150
2,550167	0,5	20,207350
2,558500	0,5	23,606750
2,566833	0,5	25,676600
2,575167	0,5	25,507450
2,583500	0,5	23,298000
2,591833	0,5	20,204300
2,600167	0,5	17,400650
2,608500	0,5	15,580000
2,616833	0,5	15,001700
2,625167	0,5	15,645650
2,633500	0,5	17,165050
2,641833	0,5	18,813350
2,650167	0,5	19,747350
2,658500	0,5	19,516750
2,666833	0,5	18,226200
2,675167	0,5	16,333000
2,683500	0,5	14,325800
2,691833	0,5	12,585850
2,700167	0,5	11,236750
2,708500	0,5	10,278700
2,716833	0,5	9,610200
2,725167	0,5	9,157750
2,733500	0,5	8,810950
2,741833	0,5	8,575400
2,750167	0,5	8,389600
2,758500	0,5	8,262650
2,766833	0,5	8,177050
2,775167	0,5	8,148350
2,783500	0,5	8,207550
2,791833	0,5	8,379700
2,800167	0,5	8,607400
2,808500	0,5	8,786200
2,816833	0,5	8,802700
2,825167	0,5	8,621350
2,833500	0,5	8,277550
2,841833	0,5	7,866000
2,850167	0,5	7,486850
2,858500	0,5	7,180800
2,866833	0,5	6,992350
2,875167	0,5	6,883150
2,883500	0,5	6,896650
2,891833	0,5	7,094350
2,900167	0,5	7,528200
2,908500	0,5	8,235200
2,916833	0,5	9,100900
2,925167	0,5	9,850950
2,933500	0,5	10,210700
2,941833	0,5	10,012700
2,950167	0,5	9,356050
2,958500	0,5	8,456750
2,966833	0,5	7,564250
2,975167	0,5	6,822900
2,983500	0,5	6,261000
2,991833	0,5	5,860150
3,000167	0,5	5,544800
3,008500	0,5	5,317000
3,016833	0,5	5,149450
3,025167	0,5	4,987500
3,033500	0,5	4,845550
3,041833	0,5	4,731050
3,050167	0,5	4,626600
3,058500	0,5	4,554000
3,066833	0,5	4,464700
3,075167	0,5	4,402300
3,083500	0,5	4,333750
3,091833	0,5	4,284950
3,100167	0,5	4,232700
3,108500	0,5	4,199300
3,116833	0,5	4,164350
3,125167	0,5	4,118550
3,133500	0,5	4,067300
3,141833	0,5	3,993000
3,150167	0,5	3,901600
3,158500	0,5	3,800400
3,166833	0,5	3,711450
3,175167	0,5	3,602250
3,183500	0,5	3,511350
3,191833	0,5	3,432950
3,200167	0,5	3,369350
3,208500	0,5	3,324400
3,216833	0,5	3,269150
3,225167	0,5	3,209800
3,233500	0,5	3,177100
3,241833	0,5	3,140450
3,250167	0,5	3,120350
3,258500	0,5	3,099600
3,266833	0,5	3,089450
3,275167	0,5	3,062000
3,283500	0,5	3,029150
3,291833	0,5	2,970250
3,300167	0,5	2,899850
3,308500	0,5	2,832700
3,316833	0,5	2,766550
3,325167	0,5	2,690700
3,333500	0,5	2,632450
3,341833	0,5	2,587800
3,350167	0,5	2,547300
3,358500	0,5	2,516450
3,366833	0,5	2,465650
3,375167	0,5	2,430400
3,383500	0,5	2,390950
3,391833	0,5	2,359500
3,400167	0,5	2,325850
3,408500	0,5	2,299200
3,416833	0,5	2,263800
3,425167	0,5	2,238650
3,433500	0,5	2,212250
3,441833	0,5	2,192350
3,450167	0,5	2,161650
3,458500	0,5	2,153400
3,466833	0,5	2,123800
3,475167	0,5	2,100550
3,483500	0,5	2,080850
3,491833	0,5	2,070900
3,500167	0,5	2,077050
3,508500	0,5	2,066250
3,516833	0,5	2,045500
3,525167	0,5	2,026050
3,533500	0,5	2,009250
3,541833	0,5	1,989500
3,550167	0,5	1,964550
3,558500	0,5	1,943200
3,566833	0,5	1,924800
3,575167	0,5	1,906800
3,583500	0,5	1,895150
3,591833	0,5	1,872650
3,600167	0,5	1,866250
3,608500	0,5	1,859600
3,616833	0,5	1,844050
3,625167	0,5	1,834400
3,633500	0,5	1,830450
3,641833	0,5	1,836700
3,650167	0,5	1,854500
3,658500	0,5	1,863700
3,666833	0,5	1,870750
3,675167	0,5	1,885000
3,683500	0,5	1,916600
3,691833	0,5	1,967150
3,700167	0,5	2,041050
3,708500	0,5	2,134400
3,716833	0,5	2,245900
3,725167	0,5	2,381450
3,733500	0,5	2,499250
3,741833	0,5	2,601200
3,750167	0,5	2,661150
3,758500	0,5	2,670800
3,766833	0,5	2,607450
3,775167	0,5	2,517900
3,783500	0,5	2,398350
3,791833	0,5	2,289450
3,800167	0,5	2,183150
3,808500	0,5	2,087600
3,816833	0,5	2,002600
3,825167	0,5	1,943600
3,833500	0,5	1,893500
3,841833	0,5	1,864150
3,850167	0,5	1,839650
3,858500	0,5	1,822050
3,866833	0,5	1,808750
3,875167	0,5	1,801850
3,883500	0,5	1,800450
3,891833	0,5	1,798150
3,900167	0,5	1,807650
3,908500	0,5	1,796050
3,916833	0,5	1,783000
3,925167	0,5	1,783150
3,933500	0,5	1,783200
3,941833	0,5	1,792400
3,950167	0,5	1,795650
3,958500	0,5	1,786300
3,966833	0,5	1,784600
3,975167	0,5	1,772900
3,983500	0,5	1,770150
3,991833	0,5	1,767050
4,000167	0,5	1,765300
4,008500	0,5	1,758900
4,016833	0,5	1,759550
4,025167	0,5	1,757900
4,033500	0,5	1,747900
4,041833	0,5	1,751400
4,050167	0,5	1,764700
4,058500	0,5	1,754300
4,066833	0,5	1,749900
4,075167	0,5	1,751800
4,083500	0,5	1,759750
4,091833	0,5	1,778600
4,100167	0,5	1,772750
4,108500	0,5	1,782250
4,116833	0,5	1,782700
4,125167	0,5	1,791750
4,133500	0,5	1,799000
4,141833	0,5	1,813650
4,150167	0,5	1,825750
4,158500	0,5	1,847700
4,166833	0,5	1,871900
4,175167	0,5	1,896000
4,183500	0,5	1,907200
4,191833	0,5	1,918450
4,200167	0,5	1,923300
4,208500	0,5	1,893950
4,216833	0,5	1,868100
4,225167	0,5	1,843100
4,233500	0,5	1,821250
4,241833	0,5	1,806250
4,250167	0,5	1,782050
4,258500	0,5	1,761900
4,266833	0,5	1,751050
4,275167	0,5	1,735400
4,283500	0,5	1,735800
4,291833	0,5	1,726050
4,300167	0,5	1,721150
4,308500	0,5	1,716750
4,316833	0,5	1,718800
4,325167	0,5	1,730200
4,333500	0,5	1,731350
4,341833	0,5	1,733750
4,350167	0,5	1,738300
4,358500	0,5	1,729050
4,366833	0,5	1,732250
4,375167	0,5	1,738050
4,383500	0,5	1,751700
4,391833	0,5	1,760400
4,400167	0,5	1,754850
4,408500	0,5	1,755350
4,416833	0,5	1,756050
4,425167	0,5	1,758600
4,433500	0,5	1,756150
4,441833	0,5	1,761100
4,450167	0,5	1,759150
4,458500	0,5	1,765700
4,466833	0,5	1,760250
4,475167	0,5	1,768100
4,483500	0,5	1,761900
4,491833	0,5	1,778600
4,500167	0,5	1,767300
4,508500	0,5	1,762500
4,516833	0,5	1,760950
4,525167	0,5	1,772050
4,533500	0,5	1,786150
4,541833	0,5	1,791800
4,550167	0,5	1,791200
4,558500	0,5	1,791050
4,566833	0,5	1,786350
4,575167	0,5	1,785450
4,583500	0,5	1,769900
4,591833	0,5	1,747450
4,600167	0,5	1,726950
4,608500	0,5	1,700050
4,616833	0,5	1,669600
4,625167	0,5	1,626450
4,633500	0,5	1,590650
4,641833	0,5	1,553350
4,650167	0,5	1,509550
4,658500	0,5	1,469100
4,666833	0,5	1,445000
4,675167	0,5	1,425300
4,683500	0,5	1,419950
4,691833	0,5	1,408750
4,700167	0,5	1,396250
4,708500	0,5	1,378500
4,716833	0,5	1,370900
4,725167	0,5	1,355700
4,733500	0,5	1,349450
4,741833	0,5	1,338600
4,750167	0,5	1,326100
4,758500	0,5	1,313900
4,766833	0,5	1,304550
4,775167	0,5	1,294200
4,783500	0,5	1,289600
4,791833	0,5	1,286150
4,800167	0,5	1,267650
4,808500	0,5	1,266150
4,816833	0,5	1,255600
4,825167	0,5	1,263950
4,833500	0,5	1,262700
4,841833	0,5	1,260050
4,850167	0,5	1,246050
4,858500	0,5	1,232200
4,866833	0,5	1,218600
4,875167	0,5	1,204850
4,883500	0,5	1,184050
4,891833	0,5	1,166350
4,900167	0,5	1,152850
4,908500	0,5	1,140250
4,916833	0,5	1,130650
4,925167	0,5	1,122950
4,933500	0,5	1,125300
4,941833	0,5	1,112300
4,950167	0,5	1,098550
4,958500	0,5	1,093200
4,966833	0,5	1,094200
4,975167	0,5	1,102800
4,983500	0,5	1,104800
4,991833	0,5	1,097500
5,000167	0,5	1,096000
5,008500	0,5	1,092400
5,016833	0,5	1,088350
5,025167	0,5	1,082050
5,033500	0,5	1,077750
5,041833	0,5	1,065750
5,050167	0,5	1,057850
5,058500	0,5	1,057250
5,066833	0,5	1,049000
5,075167	0,5	1,037100
5,083500	0,5	1,046400
5,091833	0,5	1,027950
5,100167	0,5	1,019350
5,108500	0,5	1,021950
5,116833	0,5	1,020300
5,125167	0,5	1,029350
5,133500	0,5	1,025300
5,141833	0,5	1,026950
5,150167	0,5	1,023900
5,158500	0,5	1,029150
5,166833	0,5	1,030650
5,175167	0,5	1,035950
5,183500	0,5	1,038850
5,191833	0,5	1,048700
5,200167	0,5	1,065600
5,208500	0,5	1,088400
5,216833	0,5	1,108000
5,225167	0,5	1,141300
5,233500	0,5	1,176750
5,241833	0,5	1,193450
5,250167	0,5	1,208500
5,258500	0,5	1,215950
5,266833	0,5	1,216900
5,275167	0,5	1,211750
5,283500	0,5	1,183100
5,291833	0,5	1,153050
5,300167	0,5	1,119350
5,308500	0,5	1,090450
5,316833	0,5	1,060900
5,325167	0,5	1,038550
5,333500	0,5	1,024150
5,341833	0,5	1,006150
5,350167	0,5	1,002350
5,358500	0,5	1,007300
5,366833	0,5	1,009600
5,375167	0,5	1,015850
5,383500	0,5	1,030300
5,391833	0,5	1,034100
5,400167	0,5	1,044950
5,408500	0,5	1,052950
5,416833	0,5	1,065200
5,425167	0,5	1,072750
5,433500	0,5	1,056300
5,441833	0,5	1,033600
5,450167	0,5	1,016900
5,458500	0,5	0,991200
5,466833	0,5	0,968050
5,475167	0,5	0,940800
5,483500	0,5	0,915800
5,491833	0,5	0,895500
5,500167	0,5	0,875750
5,508500	0,5	0,863550
5,516833	0,5	0,846050
5,525167	0,5	0,841150
5,533500	0,5	0,824400
5,541833	0,5	0,815100
5,550167	0,5	0,806550
5,558500	0,5	0,803950
5,566833	0,5	0,805050
5,575167	0,5	0,803800
5,583500	0,5	0,795400
5,591833	0,5	0,790400
5,600167	0,5	0,783600
5,608500	0,5	0,775700
5,616833	0,5	0,769150
5,625167	0,5	0,762750
5,633500	0,5	0,754350
5,641833	0,5	0,748250
5,650167	0,5	0,742750
5,658500	0,5	0,731950
5,666833	0,5	0,723400
5,675167	0,5	0,723200
5,683500	0,5	0,710900
5,691833	0,5	0,699950
5,700167	0,5	0,694000
5,708500	0,5	0,693400
5,716833	0,5	0,695950
5,725167	0,5	0,693300
5,733500	0,5	0,691700
5,741833	0,5	0,680150
5,750167	0,5	0,678800
5,758500	0,5	0,671200
5,766833	0,5	0,668550
5,775167	0,5	0,657500
5,783500	0,5	0,650300
5,791833	0,5	0,644050
5,800167	0,5	0,636650
5,808500	0,5	0,623300
5,816833	0,5	0,626700
5,825167	0,5	0,621000
5,833500	0,5	0,610450
5,841833	0,5	0,604150
5,850167	0,5	0,597100
5,858500	0,5	0,597200
5,866833	0,5	0,600450
5,875167	0,5	0,600150
5,883500	0,5	0,590700
5,891833	0,5	0,591200
5,900167	0,5	0,586150
5,908500	0,5	0,586550
5,916833	0,5	0,579500
5,925167	0,5	0,578350
5,933500	0,5	0,575600
5,941833	0,5	0,578200
5,950167	0,5	0,581000
5,958500	0,5	0,580600
5,966833	0,5	0,584250
5,975167	0,5	0,581850
5,983500	0,5	0,575700
5,991833	0,5	0,577400
6,000167	0,5	0,575500
6,008500	0,5	0,585000
6,016833	0,5	0,588650
6,025167	0,5	0,592650
6,033500	0,5	0,594750
6,041833	0,5	0,601650
6,050167	0,5	0,610850
6,058500	0,5	0,620150
6,066833	0,5	0,639300
6,075167	0,5	0,654600
6,083500	0,5	0,675200
6,091833	0,5	0,698450
6,100167	0,5	0,717550
6,108500	0,5	0,737950
6,116833	0,5	0,760850
6,125167	0,5	0,766700
6,133500	0,5	0,773600
6,141833	0,5	0,771400
6,150167	0,5	0,776300
6,158500	0,5	0,772150
6,166833	0,5	0,750450
6,175167	0,5	0,728750
6,183500	0,5	0,703200
6,191833	0,5	0,682150
6,200167	0,5	0,653300
6,208500	0,5	0,627500
6,216833	0,5	0,601100
6,225167	0,5	0,580750
6,233500	0,5	0,560050
6,241833	0,5	0,548450
6,250167	0,5	0,527850
6,258500	0,5	0,520600
6,266833	0,5	0,518350
6,275167	0,5	0,504600
6,283500	0,5	0,494550
6,291833	0,5	0,488950
6,300167	0,5	0,488900
6,308500	0,5	0,495850
6,316833	0,5	0,490550
6,325167	0,5	0,492250
6,333500	0,5	0,495850
6,341833	0,5	0,501150
6,350167	0,5	0,505350
6,358500	0,5	0,509550
6,366833	0,5	0,516600
6,375167	0,5	0,520300
6,383500	0,5	0,529150
6,391833	0,5	0,530050
6,400167	0,5	0,532500
6,408500	0,5	0,531850
6,416833	0,5	0,527950
6,425167	0,5	0,523300
6,433500	0,5	0,517500
6,441833	0,5	0,516700
6,450167	0,5	0,524250
6,458500	0,5	0,526400
6,466833	0,5	0,526950
6,475167	0,5	0,527800
6,483500	0,5	0,541000
6,491833	0,5	0,549850
6,500167	0,5	0,566600
6,508500	0,5	0,584100
6,516833	0,5	0,603200
6,525167	0,5	0,617050
6,533500	0,5	0,626500
6,541833	0,5	0,636050
6,550167	0,5	0,629650
6,558500	0,5	0,621950
6,566833	0,5	0,602950
6,575167	0,5	0,580000
6,583500	0,5	0,562950
6,591833	0,5	0,550150
6,600167	0,5	0,546250
6,608500	0,5	0,544100
6,616833	0,5	0,534250
6,625167	0,5	0,534100
6,633500	0,5	0,530800
6,641833	0,5	0,536650
6,650167	0,5	0,532700
6,658500	0,5	0,537250
6,666833	0,5	0,540350
6,675167	0,5	0,546500
6,683500	0,5	0,549600
6,691833	0,5	0,549000
6,700167	0,5	0,550350
6,708500	0,5	0,558650
6,716833	0,5	0,552000
6,725167	0,5	0,551150
6,733500	0,5	0,546050
6,741833	0,5	0,550550
6,750167	0,5	0,557050
6,758500	0,5	0,553300
6,766833	0,5	0,551150
6,775167	0,5	0,545900
6,783500	0,5	0,543800
6,791833	0,5	0,538450
6,800167	0,5	0,536950
6,808500	0,5	0,533750
6,816833	0,5	0,537150
6,825167	0,5	0,537550
6,833500	0,5	0,539700
6,841833	0,5	0,535900
6,850167	0,5	0,547050
6,858500	0,5	0,553150
6,866833	0,5	0,561150
6,875167	0,5	0,570250
6,883500	0,5	0,593200
6,891833	0,5	0,624900
6,900167	0,5	0,669450
6,908500	0,5	0,726850
6,916833	0,5	0,792100
6,925167	0,5	0,874200
6,933500	0,5	0,960850
6,941833	0,5	1,051350
6,950167	0,5	1,119850
6,958500	0,5	1,165800
6,966833	0,5	1,175350
6,975167	0,5	1,156000
6,983500	0,5	1,094550
6,991833	0,5	1,016700
7,000167	0,5	0,934700
7,008500	0,5	0,846700
7,016833	0,5	0,766900
7,025167	0,5	0,702750
7,033500	0,5	0,654050
7,041833	0,5	0,626900
7,050167	0,5	0,602500
7,058500	0,5	0,581750
7,066833	0,5	0,566250
7,075167	0,5	0,556750
7,083500	0,5	0,546250
7,091833	0,5	0,539500
7,100167	0,5	0,533950
7,108500	0,5	0,531350
7,116833	0,5	0,527550
7,125167	0,5	0,526650
7,133500	0,5	0,524100
7,141833	0,5	0,521150
7,150167	0,5	0,525800
7,158500	0,5	0,518050
7,166833	0,5	0,518350
7,175167	0,5	0,514100
7,183500	0,5	0,520550
7,191833	0,5	0,527050
7,200167	0,5	0,525750
7,208500	0,5	0,524550
7,216833	0,5	0,526000
7,225167	0,5	0,529300
7,233500	0,5	0,533300
7,241833	0,5	0,535250
7,250167	0,5	0,532700
7,258500	0,5	0,534500
7,266833	0,5	0,535000
7,275167	0,5	0,540300
7,283500	0,5	0,537400
7,291833	0,5	0,538450
7,300167	0,5	0,544750
7,308500	0,5	0,546650
7,316833	0,5	0,547050
7,325167	0,5	0,550700
7,333500	0,5	0,556750
7,341833	0,5	0,562700
7,350167	0,5	0,560950
7,358500	0,5	0,555100
7,366833	0,5	0,549000
7,375167	0,5	0,547400
7,383500	0,5	0,545450
7,391833	0,5	0,545550
7,400167	0,5	0,545850
7,408500	0,5	0,557200
7,416833	0,5	0,568700
7,425167	0,5	0,587700
7,433500	0,5	0,618050
7,441833	0,5	0,653350
7,450167	0,5	0,687150
7,458500	0,5	0,717350
7,466833	0,5	0,730400
7,475167	0,5	0,734600
7,483500	0,5	0,725400
7,491833	0,5	0,704650
7,500167	0,5	0,674350
7,508500	0,5	0,644800
7,516833	0,5	0,624200
7,525167	0,5	0,610100
7,533500	0,5	0,600650
7,541833	0,5	0,590450
7,550167	0,5	0,586300
7,558500	0,5	0,581950
7,566833	0,5	0,584650
7,575167	0,5	0,585000
7,583500	0,5	0,587200
7,591833	0,5	0,594750
7,600167	0,5	0,602900
7,608500	0,5	0,608000
7,616833	0,5	0,616200
7,625167	0,5	0,624750
7,633500	0,5	0,636000
7,641833	0,5	0,641400
7,650167	0,5	0,646600
7,658500	0,5	0,646100
7,666833	0,5	0,643950
7,675167	0,5	0,639750
7,683500	0,5	0,636500
7,691833	0,5	0,635600
7,700167	0,5	0,632500
7,708500	0,5	0,630250
7,716833	0,5	0,625400
7,725167	0,5	0,626450
7,733500	0,5	0,622000
7,741833	0,5	0,619550
7,750167	0,5	0,611900
7,758500	0,5	0,604550
7,766833	0,5	0,595500
7,775167	0,5	0,593350
7,783500	0,5	0,593100
7,791833	0,5	0,593300
7,800167	0,5	0,596500
7,808500	0,5	0,595850
7,816833	0,5	0,595800
7,825167	0,5	0,599250
7,833500	0,5	0,603700
7,841833	0,5	0,607000
7,850167	0,5	0,611050
7,858500	0,5	0,612600
7,866833	0,5	0,614450
7,875167	0,5	0,611850
7,883500	0,5	0,614550
7,891833	0,5	0,621500
7,900167	0,5	0,622100
7,908500	0,5	0,628300
7,916833	0,5	0,630900
7,925167	0,5	0,640050
7,933500	0,5	0,650450
7,941833	0,5	0,662350
7,950167	0,5	0,672500
7,958500	0,5	0,681350
7,966833	0,5	0,690150
7,975167	0,5	0,693950
7,983500	0,5	0,697500
7,991833	0,5	0,698950
8,000167	0,5	0,702850
8,008500	0,5	0,712550
8,016833	0,5	0,726050
8,025167	0,5	0,743600
8,033500	0,5	0,761400
8,041833	0,5	0,784850
8,050167	0,5	0,796750
8,058500	0,5	0,810400
8,066833	0,5	0,812900
8,075167	0,5	0,816700
8,083500	0,5	0,812650
8,091833	0,5	0,810250
8,100167	0,5	0,817450
8,108500	0,5	0,838350
8,116833	0,5	0,865300
8,125167	0,5	0,899550
8,133500	0,5	0,927750
8,141833	0,5	0,948750
8,150167	0,5	0,951100
8,158500	0,5	0,942500
8,166833	0,5	0,928950
8,175167	0,5	0,913800
8,183500	0,5	0,910800
8,191833	0,5	0,917100
8,200167	0,5	0,933000
8,208500	0,5	0,959800
8,216833	0,5	1,000400
8,225167	0,5	1,051800
8,233500	0,5	1,108600
8,241833	0,5	1,173200
8,250167	0,5	1,249250
8,258500	0,5	1,333100
8,266833	0,5	1,429250
8,275167	0,5	1,528150
8,283500	0,5	1,641200
8,291833	0,5	1,762600
8,300167	0,5	1,893700
8,308500	0,5	2,030800
8,316833	0,5	2,175500
8,325167	0,5	2,319000
8,333500	0,5	2,456900
8,341833	0,5	2,581000
8,350167	0,5	2,678900
8,358500	0,5	2,744150
8,366833	0,5	2,766500
8,375167	0,5	2,733950
8,383500	0,5	2,641350
8,391833	0,5	2,491700
8,400167	0,5	2,304350
8,408500	0,5	2,092800
8,416833	0,5	1,882200
8,425167	0,5	1,693100
8,433500	0,5	1,533800
8,441833	0,5	1,410950
8,450167	0,5	1,331900
8,458500	0,5	1,273850
8,466833	0,5	1,234800
8,475167	0,5	1,205100
8,483500	0,5	1,180850
8,491833	0,5	1,164900
8,500167	0,5	1,154500
8,508500	0,5	1,158200
8,516833	0,5	1,180300
8,525167	0,5	1,218100
8,533500	0,5	1,271700
8,541833	0,5	1,333000
8,550167	0,5	1,402300
8,558500	0,5	1,467300
8,566833	0,5	1,520900
8,575167	0,5	1,548800
8,583500	0,5	1,550900
8,591833	0,5	1,523050
8,600167	0,5	1,472750
8,608500	0,5	1,410550
8,616833	0,5	1,346950
8,625167	0,5	1,288750
8,633500	0,5	1,243200
8,641833	0,5	1,195900
8,650167	0,5	1,161950
8,658500	0,5	1,131400
8,666833	0,5	1,116700
8,675167	0,5	1,104250
8,683500	0,5	1,096500
8,691833	0,5	1,088900
8,700167	0,5	1,082250
8,708500	0,5	1,072350
8,716833	0,5	1,064600
8,725167	0,5	1,053150
8,733500	0,5	1,043300
8,741833	0,5	1,030850
8,750167	0,5	1,027800
8,758500	0,5	1,024200
8,766833	0,5	1,021300
8,775167	0,5	1,021700
8,783500	0,5	1,025600
8,791833	0,5	1,031900
8,800167	0,5	1,042250
8,808500	0,5	1,058800
8,816833	0,5	1,078400
8,825167	0,5	1,097500
8,833500	0,5	1,113900
8,841833	0,5	1,121150
8,850167	0,5	1,122750
8,858500	0,5	1,114800
8,866833	0,5	1,108050
8,875167	0,5	1,103600
8,883500	0,5	1,097850
8,891833	0,5	1,102550
8,900167	0,5	1,114150
8,908500	0,5	1,136100
8,916833	0,5	1,171950
8,925167	0,5	1,219150
8,933500	0,5	1,288900
8,941833	0,5	1,371100
8,950167	0,5	1,464550
8,958500	0,5	1,571350
8,966833	0,5	1,672250
8,975167	0,5	1,762000
8,983500	0,5	1,818250
8,991833	0,5	1,839250
9,000167	0,5	1,814700
9,008500	0,5	1,752250
9,016833	0,5	1,657650
9,025167	0,5	1,552250
9,033500	0,5	1,447700
9,041833	0,5	1,355750
9,050167	0,5	1,284650
9,058500	0,5	1,230900
9,066833	0,5	1,196550
9,075167	0,5	1,171750
9,083500	0,5	1,148150
9,091833	0,5	1,120200
9,100167	0,5	1,100050
9,108500	0,5	1,080050
9,116833	0,5	1,071400
9,125167	0,5	1,067850
9,133500	0,5	1,071050
9,141833	0,5	1,085700
9,150167	0,5	1,104050
9,158500	0,5	1,127800
9,166833	0,5	1,150750
9,175167	0,5	1,170750
9,183500	0,5	1,182000
9,191833	0,5	1,185250
9,200167	0,5	1,182200
9,208500	0,5	1,168100
9,216833	0,5	1,150450
9,225167	0,5	1,138750
9,233500	0,5	1,127550
9,241833	0,5	1,119400
9,250167	0,5	1,117100
9,258500	0,5	1,119350
9,266833	0,5	1,118550
9,275167	0,5	1,112600
9,283500	0,5	1,102050
9,291833	0,5	1,090800
9,300167	0,5	1,073750
9,308500	0,5	1,058150
9,316833	0,5	1,043500
9,325167	0,5	1,034200
9,333500	0,5	1,025850
9,341833	0,5	1,020550
9,350167	0,5	1,013300
9,358500	0,5	1,006750
9,366833	0,5	1,003100
9,375167	0,5	0,996750
9,383500	0,5	0,989900
9,391833	0,5	0,982600
9,400167	0,5	0,984600
9,408500	0,5	0,983650
9,416833	0,5	0,997750
9,425167	0,5	1,008650
9,433500	0,5	1,028150
9,441833	0,5	1,049750
9,450167	0,5	1,073400
9,458500	0,5	1,089800
9,466833	0,5	1,098250
9,475167	0,5	1,090950
9,483500	0,5	1,080400
9,491833	0,5	1,062850
9,500167	0,5	1,042200
9,508500	0,5	1,026550
9,516833	0,5	1,016350
9,525167	0,5	1,004100
9,533500	0,5	0,994800
9,541833	0,5	0,984700
9,550167	0,5	0,973900
9,558500	0,5	0,963250
9,566833	0,5	0,957750
9,575167	0,5	0,947550
9,583500	0,5	0,941450
9,591833	0,5	0,936550
9,600167	0,5	0,934250
9,608500	0,5	0,930750
9,616833	0,5	0,931700
9,625167	0,5	0,939100
9,633500	0,5	0,948150
9,641833	0,5	0,960950
9,650167	0,5	0,973150
9,658500	0,5	0,986800
9,666833	0,5	1,000100
9,675167	0,5	1,015800
9,683500	0,5	1,029350
9,691833	0,5	1,041250
9,700167	0,5	1,050400
9,708500	0,5	1,055250
9,716833	0,5	1,052650
9,725167	0,5	1,046600
9,733500	0,5	1,036400
9,741833	0,5	1,020100
9,750167	0,5	1,009100
9,758500	0,5	0,997350
9,766833	0,5	0,994100
9,775167	0,5	0,991400
9,783500	0,5	0,993300
9,791833	0,5	1,001550
9,800167	0,5	1,005650
9,808500	0,5	1,001600
9,816833	0,5	0,995800
9,825167	0,5	0,980650
9,833500	0,5	0,963750
9,841833	0,5	0,946150
9,850167	0,5	0,933100
9,858500	0,5	0,920100
9,866833	0,5	0,914150
9,875167	0,5	0,913400
9,883500	0,5	0,914050
9,891833	0,5	0,916200
9,900167	0,5	0,916500
9,908500	0,5	0,919750
9,916833	0,5	0,915500
9,925167	0,5	0,919250
9,933500	0,5	0,919000
9,941833	0,5	0,918750
9,950167	0,5	0,919500
9,958500	0,5	0,930750
9,966833	0,5	0,939900
9,975167	0,5	0,948100
9,983500	0,5	0,952450
9,991833	0,5	0,951100
10,000167	0,5	0,949550
10,008500	0,5	0,937350
10,016833	0,5	0,923400
10,025167	0,5	0,909350
10,033500	0,5	0,900450
10,041833	0,5	0,890950
10,050167	0,5	0,880850
10,058500	0,5	0,874050
10,066833	0,5	0,872600
10,075167	0,5	0,867300
10,083500	0,5	0,872000
10,091833	0,5	0,870750
10,100167	0,5	0,870950
10,108500	0,5	0,881450
10,116833	0,5	0,883650
10,125167	0,5	0,890750
10,133500	0,5	0,906050
10,141833	0,5	0,924000
10,150167	0,5	0,955600
10,158500	0,5	0,980750
10,166833	0,5	1,001250
10,175167	0,5	1,009550
10,183500	0,5	1,007100
10,191833	0,5	0,985050
10,200167	0,5	0,963450
10,208500	0,5	0,933700
10,216833	0,5	0,908650
10,225167	0,5	0,885150
10,233500	0,5	0,865050
10,241833	0,5	0,844250
10,250167	0,5	0,829000
10,258500	0,5	0,817150
10,266833	0,5	0,806800
10,275167	0,5	0,798750
10,283500	0,5	0,788900
10,291833	0,5	0,786850
10,300167	0,5	0,783650
10,308500	0,5	0,782250
10,316833	0,5	0,776750
10,325167	0,5	0,772350
10,333500	0,5	0,768700
10,341833	0,5	0,763950
10,350167	0,5	0,759250
10,358500	0,5	0,761200
10,366833	0,5	0,757800
10,375167	0,5	0,759550
10,383500	0,5	0,759800
10,391833	0,5	0,760550
10,400167	0,5	0,762650
10,408500	0,5	0,766300
10,416833	0,5	0,764700
10,425167	0,5	0,754500
10,433500	0,5	0,747750
10,441833	0,5	0,737450
10,450167	0,5	0,729450
10,458500	0,5	0,721600
10,466833	0,5	0,719850
10,475167	0,5	0,719600
10,483500	0,5	0,726250
10,491833	0,5	0,735600
10,500167	0,5	0,749350
10,508500	0,5	0,771050
10,516833	0,5	0,802400
10,525167	0,5	0,831300
10,533500	0,5	0,855750
10,541833	0,5	0,869450
10,550167	0,5	0,878050
10,558500	0,5	0,877800
10,566833	0,5	0,874150
10,575167	0,5	0,869900
10,583500	0,5	0,876850
10,591833	0,5	0,890500
10,600167	0,5	0,913450
10,608500	0,5	0,933500
10,616833	0,5	0,955700
10,625167	0,5	0,969000
10,633500	0,5	0,964000
10,641833	0,5	0,961900
10,650167	0,5	0,949850
10,658500	0,5	0,937350
10,666833	0,5	0,919400
10,675167	0,5	0,907750
10,683500	0,5	0,890150
10,691833	0,5	0,877550
10,700167	0,5	0,857350
10,708500	0,5	0,841800
10,716833	0,5	0,817300
10,725167	0,5	0,791100
10,733500	0,5	0,766300
10,741833	0,5	0,741350
10,750167	0,5	0,724600
10,758500	0,5	0,703350
10,766833	0,5	0,686400
10,775167	0,5	0,669600
10,783500	0,5	0,651050
10,791833	0,5	0,641400
10,800167	0,5	0,623650
10,808500	0,5	0,615350
10,816833	0,5	0,613800
10,825167	0,5	0,620650
10,833500	0,5	0,629250
10,841833	0,5	0,648450
10,850167	0,5	0,670700
10,858500	0,5	0,687900
10,866833	0,5	0,700350
10,875167	0,5	0,699350
10,883500	0,5	0,695100
10,891833	0,5	0,690700
10,900167	0,5	0,677400
10,908500	0,5	0,662550
10,916833	0,5	0,651900
10,925167	0,5	0,639250
10,933500	0,5	0,623700
10,941833	0,5	0,617900
10,950167	0,5	0,604800
10,958500	0,5	0,593450
10,966833	0,5	0,587100
10,975167	0,5	0,579950
10,983500	0,5	0,565500
10,991833	0,5	0,564350
11,000167	0,5	0,557800
11,008500	0,5	0,554950
11,016833	0,5	0,552550
11,025167	0,5	0,549350
11,033500	0,5	0,558300
11,041833	0,5	0,563450
11,050167	0,5	0,560350
11,058500	0,5	0,564550
11,066833	0,5	0,562100
11,075167	0,5	0,565150
11,083500	0,5	0,562850
11,091833	0,5	0,556850
11,100167	0,5	0,552800
11,108500	0,5	0,548100
11,116833	0,5	0,554200
11,125167	0,5	0,558050
11,133500	0,5	0,559850
11,141833	0,5	0,575550
11,150167	0,5	0,587100
11,158500	0,5	0,588500
11,166833	0,5	0,589650
11,175167	0,5	0,581050
11,183500	0,5	0,575600
11,191833	0,5	0,555000
11,200167	0,5	0,540250
11,208500	0,5	0,524550
11,216833	0,5	0,510800
11,225167	0,5	0,497100
11,233500	0,5	0,488150
11,241833	0,5	0,479100
11,250167	0,5	0,469700
11,258500	0,5	0,461850
11,266833	0,5	0,458450
11,275167	0,5	0,453150
11,283500	0,5	0,452100
11,291833	0,5	0,453050
11,300167	0,5	0,451700
11,308500	0,5	0,453800
11,316833	0,5	0,458100
11,325167	0,5	0,463150
11,333500	0,5	0,467550
11,341833	0,5	0,465850
11,350167	0,5	0,461350
11,358500	0,5	0,456800
11,366833	0,5	0,451500
11,375167	0,5	0,451700
11,383500	0,5	0,449450
11,391833	0,5	0,451050
11,400167	0,5	0,457800
11,408500	0,5	0,471750
11,416833	0,5	0,480750
11,425167	0,5	0,478950
11,433500	0,5	0,477750
11,441833	0,5	0,474300
11,450167	0,5	0,458000
11,458500	0,5	0,444100
11,466833	0,5	0,430450
11,475167	0,5	0,420950
11,483500	0,5	0,416950
11,491833	0,5	0,408850
11,500167	0,5	0,403800
11,508500	0,5	0,397950
11,516833	0,5	0,391800
11,525167	0,5	0,386600
11,533500	0,5	0,383700
11,541833	0,5	0,373900
11,550167	0,5	0,375800
11,558500	0,5	0,372100
11,566833	0,5	0,379250
11,575167	0,5	0,377100
11,583500	0,5	0,389350
11,591833	0,5	0,390900
11,600167	0,5	0,393300
11,608500	0,5	0,391950
11,616833	0,5	0,390950
11,625167	0,5	0,389400
11,633500	0,5	0,388600
11,641833	0,5	0,385950
11,650167	0,5	0,382550
11,658500	0,5	0,382800
11,666833	0,5	0,381150
11,675167	0,5	0,385700
11,683500	0,5	0,387100
11,691833	0,5	0,389950
11,700167	0,5	0,390450
11,708500	0,5	0,400150
11,716833	0,5	0,394300
11,725167	0,5	0,390150
11,733500	0,5	0,387700
11,741833	0,5	0,377400
11,750167	0,5	0,365100
11,758500	0,5	0,351000
11,766833	0,5	0,338000
11,775167	0,5	0,333050
11,783500	0,5	0,325350
11,791833	0,5	0,316500
11,800167	0,5	0,307950
11,808500	0,5	0,307050
11,816833	0,5	0,302050
11,825167	0,5	0,305300
11,833500	0,5	0,302750
11,841833	0,5	0,298400
11,850167	0,5	0,302750
11,858500	0,5	0,306600
11,866833	0,5	0,297950
11,875167	0,5	0,304300
11,883500	0,5	0,307400
11,891833	0,5	0,302550
11,900167	0,5	0,305600
11,908500	0,5	0,296450
11,916833	0,5	0,299300
11,925167	0,5	0,299600
11,933500	0,5	0,300700
11,941833	0,5	0,301700
11,950167	0,5	0,309100
11,958500	0,5	0,311900
11,966833	0,5	0,317000
11,975167	0,5	0,316850
11,983500	0,5	0,317000
11,991833	0,5	0,315500
12,000167	0,5	0,307850
12,008500	0,5	0,304450
12,016833	0,5	0,292400
12,025167	0,5	0,291100
12,033500	0,5	0,282100
12,041833	0,5	0,271600
12,050167	0,5	0,265050
12,058500	0,5	0,254900
12,066833	0,5	0,253250
12,075167	0,5	0,250450
12,083500	0,5	0,243000
12,091833	0,5	0,242050
12,100167	0,5	0,240350
12,108500	0,5	0,238500
12,116833	0,5	0,237000
12,125167	0,5	0,238950
12,133500	0,5	0,237350
12,141833	0,5	0,237600
12,150167	0,5	0,238050
12,158500	0,5	0,236900
12,166833	0,5	0,237450
12,175167	0,5	0,245200
12,183500	0,5	0,245750
12,191833	0,5	0,244900
12,200167	0,5	0,248800
12,208500	0,5	0,249050
12,216833	0,5	0,259700
12,225167	0,5	0,255800
12,233500	0,5	0,255450
12,241833	0,5	0,251300
12,250167	0,5	0,247150
12,258500	0,5	0,234350
12,266833	0,5	0,235050
12,275167	0,5	0,229800
12,283500	0,5	0,221250
12,291833	0,5	0,218300
12,300167	0,5	0,218150
12,308500	0,5	0,208300
12,316833	0,5	0,213250
12,325167	0,5	0,210850
12,333500	0,5	0,205400
12,341833	0,5	0,200250
12,350167	0,5	0,192600
12,358500	0,5	0,193050
12,366833	0,5	0,192650
12,375167	0,5	0,187400
12,383500	0,5	0,176400
12,391833	0,5	0,173100
12,400167	0,5	0,166250
12,408500	0,5	0,155900
12,416833	0,5	0,143150
12,425167	0,5	0,112400
12,433500	0,5	0,043500
12,441833	0,5	-0,057700
12,450167	0,5	-0,180900
12,458500	0,5	-0,294500
12,466833	0,5	-0,377750
12,475167	0,5	-0,436100
12,483500	0,5	-0,480850
12,491833	0,5	-0,505900
12,500167	0,5	-0,527650
12,508500	0,5	-0,538450
12,516833	0,5	-0,545950
12,525167	0,5	-0,551450
12,533500	0,5	-0,560250
12,541833	0,5	-0,565100
12,550167	0,5	-0,571850
12,558500	0,5	-0,576850
12,566833	0,5	-0,579000
12,575167	0,5	-0,584050
12,583500	0,5	-0,587650
12,591833	0,5	-0,586750
12,600167	0,5	-0,585600
12,608500	0,5	-0,584750
12,616833	0,5	-0,575050
12,625167	0,5	-0,575000
12,633500	0,5	-0,575250
12,641833	0,5	-0,577300
12,650167	0,5	-0,579300
12,658500	0,5	-0,581450
12,666833	0,5	-0,576900
12,675167	0,5	-0,574800
12,683500	0,5	-0,572750
12,691833	0,5	-0,574150
12,700167	0,5	-0,569200
12,708500	0,5	-0,568800
12,716833	0,5	-0,567400
12,725167	0,5	-0,563600
12,733500	0,5	-0,559600
12,741833	0,5	-0,556300
12,750167	0,5	-0,560850
12,758500	0,5	-0,556150
12,766833	0,5	-0,550450
12,775167	0,5	-0,548350
12,783500	0,5	-0,551900
12,791833	0,5	-0,551700
12,800167	0,5	-0,550500
12,808500	0,5	-0,540900
12,816833	0,5	-0,540300
12,825167	0,5	-0,533450
12,833500	0,5	-0,534000
12,841833	0,5	-0,531800
12,850167	0,5	-0,524900
12,858500	0,5	-0,522450
12,866833	0,5	-0,524050
12,875167	0,5	-0,522050
12,883500	0,5	-0,512250
12,891833	0,5	-0,505850
12,900167	0,5	-0,511950
12,908500	0,5	-0,499600
12,916833	0,5	-0,489650
12,925167	0,5	-0,485500
12,933500	0,5	-0,475050
12,941833	0,5	-0,466700
12,950167	0,5	-0,453150
12,958500	0,5	-0,438600
12,966833	0,5	-0,418000
12,975167	0,5	-0,408000
12,983500	0,5	-0,384550
12,991833	0,5	-0,365500
13,000167	0,5	-0,339800
13,008500	0,5	-0,321350
13,016833	0,5	-0,301850
13,025167	0,5	-0,285450
13,033500	0,5	-0,263850
13,041833	0,5	-0,250400
13,050167	0,5	-0,240500
13,058500	0,5	-0,220600
13,066833	0,5	-0,209300
13,075167	0,5	-0,205650
13,083500	0,5	-0,200700
13,091833	0,5	-0,197550
13,100167	0,5	-0,185750
13,108500	0,5	-0,179150
13,116833	0,5	-0,178250
13,125167	0,5	-0,170000
13,133500	0,5	-0,164550
13,141833	0,5	-0,157900
13,150167	0,5	-0,150800
13,158500	0,5	-0,143950
13,166833	0,5	-0,139000
13,175167	0,5	-0,133950
13,183500	0,5	-0,122450
13,191833	0,5	-0,116750
13,200167	0,5	-0,107450
13,208500	0,5	-0,097050
13,216833	0,5	-0,086800
13,225167	0,5	-0,079100
13,233500	0,5	-0,072150
13,241833	0,5	-0,067300
13,250167	0,5	-0,045950
13,258500	0,5	-0,036150
13,266833	0,5	-0,023350
13,275167	0,5	-0,012600
13,283500	0,5	0,001900
13,291833	0,5	0,011550
13,300167	0,5	0,024800
13,308500	0,5	0,031950
13,316833	0,5	0,038150
13,325167	0,5	0,040750
13,333500	0,5	0,052350
13,341833	0,5	0,044650
13,350167	0,5	0,056100
13,358500	0,5	0,057550
13,366833	0,5	0,060000
13,375167	0,5	0,056300
13,383500	0,5	0,053700
13,391833	0,5	0,061500
13,400167	0,5	0,068500
13,408500	0,5	0,077800
13,416833	0,5	0,083800
13,425167	0,5	0,087850
13,433500	0,5	0,086800
13,441833	0,5	0,090900
13,450167	0,5	0,091850
13,458500	0,5	0,100300
13,466833	0,5	0,102150
13,475167	0,5	0,111250
13,483500	0,5	0,117700
13,491833	0,5	0,117200
13,500167	0,5	0,117050
13,508500	0,5	0,109900
13,516833	0,5	0,100950
13,525167	0,5	0,085650
13,533500	0,5	0,071650
13,541833	0,5	0,068700
13,550167	0,5	0,066150
13,558500	0,5	0,071050
13,566833	0,5	0,068800
13,575167	0,5	0,068000
13,583500	0,5	0,072250
13,591833	0,5	0,081150
13,600167	0,5	0,090950
13,608500	0,5	0,099550
13,616833	0,5	0,113250
13,625167	0,5	0,115950
13,633500	0,5	0,109450
13,641833	0,5	0,102050
13,650167	0,5	0,095900
13,658500	0,5	0,080400
13,666833	0,5	0,067850
13,675167	0,5	0,049150
13,683500	0,5	0,044350
13,691833	0,5	0,042050
13,700167	0,5	0,054450
13,708500	0,5	0,061450
13,716833	0,5	0,078350
13,725167	0,5	0,087000
13,733500	0,5	0,102300
13,741833	0,5	0,109550
13,750167	0,5	0,114050
13,758500	0,5	0,110850
13,766833	0,5	0,102400
13,775167	0,5	0,089650
13,783500	0,5	0,066750
13,791833	0,5	0,066850
13,800167	0,5	0,058600
13,808500	0,5	0,058250
13,816833	0,5	0,048600
13,825167	0,5	0,050900
13,833500	0,5	0,058150
13,841833	0,5	0,071200
13,850167	0,5	0,076050
13,858500	0,5	0,077850
13,866833	0,5	0,075500
13,875167	0,5	0,073350
13,883500	0,5	0,067750
13,891833	0,5	0,062000
13,900167	0,5	0,050150
13,908500	0,5	0,042650
13,916833	0,5	0,039450
13,925167	0,5	0,037900
13,933500	0,5	0,033600
13,941833	0,5	0,040900
13,950167	0,5	0,045400
13,958500	0,5	0,044600
13,966833	0,5	0,040300
13,975167	0,5	0,028800
13,983500	0,5	0,029800
13,991833	0,5	0,023200
14,000167	0,5	0,014950
14,008500	0,5	0,005500
14,016833	0,5	0,003000
14,025167	0,5	-0,004100
14,033500	0,5	-0,000400
14,041833	0,5	-0,010050
14,050167	0,5	-0,014600
14,058500	0,5	-0,016200
14,066833	0,5	-0,023350
14,075167	0,5	-0,035650
14,083500	0,5	-0,040950
14,091833	0,5	-0,042950
14,100167	0,5	-0,050100
14,108500	0,5	-0,060200
14,116833	0,5	-0,073400
14,125167	0,5	-0,078600
14,133500	0,5	-0,081250
14,141833	0,5	-0,078350
14,150167	0,5	-0,079400
14,158500	0,5	-0,082700
14,166833	0,5	-0,091850
14,175167	0,5	-0,091150
14,183500	0,5	-0,096700
14,191833	0,5	-0,100350
14,200167	0,5	-0,109500
14,208500	0,5	-0,119800
14,216833	0,5	-0,120000
14,225167	0,5	-0,130800
14,233500	0,5	-0,130350
14,241833	0,5	-0,129700
14,250167	0,5	-0,135050
14,258500	0,5	-0,140450
14,266833	0,5	-0,154900
14,275167	0,5	-0,151850
14,283500	0,5	-0,149650
14,291833	0,5	-0,151600
14,300167	0,5	-0,151450
14,308500	0,5	-0,155750
14,316833	0,5	-0,153750
14,325167	0,5	-0,156900
14,333500	0,5	-0,159600
14,341833	0,5	-0,160100
14,350167	0,5	-0,162550
14,358500	0,5	-0,162550
14,366833	0,5	-0,164000
14,375167	0,5	-0,178150
14,383500	0,5	-0,166450
14,391833	0,5	-0,173450
14,400167	0,5	-0,175750
14,408500	0,5	-0,185350
14,416833	0,5	-0,197150
14,425167	0,5	-0,194950
14,433500	0,5	-0,196300
14,441833	0,5	-0,196500
14,450167	0,5	-0,193950
14,458500	0,5	-0,196350
14,466833	0,5	-0,197250
14,475167	0,5	-0,194850
14,483500	0,5	-0,197800
14,491833	0,5	-0,199050
14,500167	0,5	-0,200450
14,508500	0,5	-0,198500
14,516833	0,5	-0,204800
14,525167	0,5	-0,213300
14,533500	0,5	-0,208650
14,541833	0,5	-0,211650
14,550167	0,5	-0,212150
14,558500	0,5	-0,220100
14,566833	0,5	-0,229050
14,575167	0,5	-0,226750
14,583500	0,5	-0,228050
14,591833	0,5	-0,223450
14,600167	0,5	-0,226300
14,608500	0,5	-0,224800
14,616833	0,5	-0,226800
14,625167	0,5	-0,225250
14,633500	0,5	-0,225450
14,641833	0,5	-0,227750
14,650167	0,5	-0,225650
14,658500	0,5	-0,230300
14,666833	0,5	-0,237050
14,675167	0,5	-0,236900
14,683500	0,5	-0,232900
14,691833	0,5	-0,240600
14,700167	0,5	-0,244650
14,708500	0,5	-0,257400
14,716833	0,5	-0,261000
14,725167	0,5	-0,259900
14,733500	0,5	-0,259050
14,741833	0,5	-0,261400
14,750167	0,5	-0,259450
14,758500	0,5	-0,266050
14,766833	0,5	-0,266950
14,775167	0,5	-0,263200
14,783500	0,5	-0,271200
14,791833	0,5	-0,269550
14,800167	0,5	-0,270250
14,808500	0,5	-0,276300
14,816833	0,5	-0,282900
14,825167	0,5	-0,277000
14,833500	0,5	-0,276750
14,841833	0,5	-0,279800
14,850167	0,5	-0,289600
14,858500	0,5	-0,302100
14,866833	0,5	-0,299800
14,875167	0,5	-0,296950
14,883500	0,5	-0,302950
14,891833	0,5	-0,305050
14,900167	0,5	-0,310100
14,908500	0,5	-0,309650
14,916833	0,5	-0,313150
14,925167	0,5	-0,317200
14,933500	0,5	-0,317700
14,941833	0,5	-0,319650
14,950167	0,5	-0,312650
14,958500	0,5	-0,331200
14,966833	0,5	-0,331450
14,975167	0,5	-0,325650
14,983500	0,5	-0,327900
14,991833	0,5	-0,331350
15,000167	0,5	-0,339200
15,008500	0,5	-0,345200
15,016833	0,5	-0,337950
15,025167	0,5	-0,344300
15,033500	0,5	-0,343800
15,041833	0,5	-0,347950
15,050167	0,5	-0,346100
15,058500	0,5	-0,355400
15,066833	0,5	-0,350600
15,075167	0,5	-0,350450
15,083500	0,5	-0,353700
15,091833	0,5	-0,351350
15,100167	0,5	-0,347150
15,108500	0,5	-0,362800
15,116833	0,5	-0,358550
15,125167	0,5	-0,360450
15,133500	0,5	-0,359350
15,141833	0,5	-0,366800
15,150167	0,5	-0,382300
15,158500	0,5	-0,379750
15,166833	0,5	-0,382050
15,175167	0,5	-0,373450
15,183500	0,5	-0,375900
15,191833	0,5	-0,373350
15,200167	0,5	-0,378550
15,208500	0,5	-0,374100
15,216833	0,5	-0,376100
15,225167	0,5	-0,376750
15,233500	0,5	-0,377350
15,241833	0,5	-0,374050
15,250167	0,5	-0,373100
15,258500	0,5	-0,388400
15,266833	0,5	-0,381250
15,275167	0,5	-0,383750
15,283500	0,5	-0,382250
15,291833	0,5	-0,390550
15,300167	0,5	-0,400100
15,308500	0,5	-0,399250
15,316833	0,5	-0,395550
15,325167	0,5	-0,397600
15,333500	0,5	-0,395100
15,341833	0,5	-0,395450
15,350167	0,5	-0,395300
15,358500	0,5	-0,397800
15,366833	0,5	-0,391150
15,375167	0,5	-0,396250
15,383500	0,5	-0,393000
15,391833	0,5	-0,391550
15,400167	0,5	-0,388900
15,408500	0,5	-0,401050
15,416833	0,5	-0,387550
15,425167	0,5	-0,391900
15,433500	0,5	-0,392350
15,441833	0,5	-0,404950
15,450167	0,5	-0,422550
15,458500	0,5	-0,415100
15,466833	0,5	-0,413250
15,475167	0,5	-0,415350
15,483500	0,5	-0,419850
15,491833	0,5	-0,423750
15,500167	0,5	-0,430500
15,508500	0,5	-0,430750
15,516833	0,5	-0,438600
15,525167	0,5	-0,442300
15,533500	0,5	-0,441750
15,541833	0,5	-0,440900
15,550167	0,5	-0,456300
15,558500	0,5	-0,454100
15,566833	0,5	-0,452500
15,575167	0,5	-0,458300
15,583500	0,5	-0,466250
15,591833	0,5	-0,474550
15,600167	0,5	-0,477400
15,608500	0,5	-0,476050
15,616833	0,5	-0,472900
15,625167	0,5	-0,477050
15,633500	0,5	-0,474600
15,641833	0,5	-0,474600
15,650167	0,5	-0,480200
15,658500	0,5	-0,481700
15,666833	0,5	-0,480600
15,675167	0,5	-0,482350
15,683500	0,5	-0,479450
15,691833	0,5	-0,485050
15,700167	0,5	-0,490300
15,708500	0,5	-0,488150
15,716833	0,5	-0,486400
15,725167	0,5	-0,488200
15,733500	0,5	-0,496300
15,741833	0,5	-0,506150
15,750167	0,5	-0,513050
15,758500	0,5	-0,514100
15,766833	0,5	-0,511200
15,775167	0,5	-0,515400
15,783500	0,5	-0,518100
15,791833	0,5	-0,517150
15,800167	0,5	-0,516550
15,808500	0,5	-0,521000
15,816833	0,5	-0,522400
15,825167	0,5	-0,522300
15,833500	0,5	-0,515400
15,841833	0,5	-0,523500
15,850167	0,5	-0,533100
15,858500	0,5	-0,522450
15,866833	0,5	-0,523450
15,875167	0,5	-0,530600
15,883500	0,5	-0,544550
15,891833	0,5	-0,548550
15,900167	0,5	-0,551100
15,908500	0,5	-0,547900
15,916833	0,5	-0,549300
15,925167	0,5	-0,550600
15,933500	0,5	-0,557800
15,941833	0,5	-0,556600
15,950167	0,5	-0,565100
15,958500	0,5	-0,560100
15,966833	0,5	-0,562900
15,975167	0,5	-0,566750
15,983500	0,5	-0,559950
15,991833	0,5	-0,575800
16,000167	0,5	-0,564750
16,008500	0,5	-0,560800
16,016833	0,5	-0,559100
16,025167	0,5	-0,565450
16,033500	0,5	-0,573500
16,041833	0,5	-0,574450
16,050167	0,5	-0,576300
16,058500	0,5	-0,578400
16,066833	0,5	-0,579050
16,075167	0,5	-0,583050
16,083500	0,5	-0,579600
16,091833	0,5	-0,583350
16,100167	0,5	-0,577450
16,108500	0,5	-0,579150
16,116833	0,5	-0,583250
16,125167	0,5	-0,577600
16,133500	0,5	-0,577150
16,141833	0,5	-0,590550
16,150167	0,5	-0,582550
16,158500	0,5	-0,587150
16,166833	0,5	-0,588800
16,175167	0,5	-0,593400
16,183500	0,5	-0,609550
16,191833	0,5	-0,603150
16,200167	0,5	-0,605900
16,208500	0,5	-0,604800
16,216833	0,5	-0,609050
16,225167	0,5	-0,607300
16,233500	0,5	-0,606900
16,241833	0,5	-0,610950
16,250167	0,5	-0,616150
16,258500	0,5	-0,611250
16,266833	0,5	-0,613650
16,275167	0,5	-0,612400
16,283500	0,5	-0,614050
16,291833	0,5	-0,614250
16,300167	0,5	-0,606600
16,308500	0,5	-0,608900
16,316833	0,5	-0,610150
16,325167	0,5	-0,618250
16,333500	0,5	-0,628800
16,341833	0,5	-0,633700
16,350167	0,5	-0,626450
16,358500	0,5	-0,629150
16,366833	0,5	-0,625100
16,375167	0,5	-0,627850
16,383500	0,5	-0,625650
16,391833	0,5	-0,628300
16,400167	0,5	-0,623750
16,408500	0,5	-0,629800
16,416833	0,5	-0,629850
16,425167	0,5	-0,631150
16,433500	0,5	-0,630250
16,441833	0,5	-0,631700
16,450167	0,5	-0,619550
16,458500	0,5	-0,619950
16,466833	0,5	-0,622600
16,475167	0,5	-0,635700
16,483500	0,5	-0,641250
16,491833	0,5	-0,636250
16,500167	0,5	-0,639700
16,508500	0,5	-0,634150
16,516833	0,5	-0,635200
16,525167	0,5	-0,629600
16,533500	0,5	-0,634550
16,541833	0,5	-0,635050
16,550167	0,5	-0,637900
16,558500	0,5	-0,634750
16,566833	0,5	-0,631350
16,575167	0,5	-0,628950
16,583500	0,5	-0,635350
16,591833	0,5	-0,622800
16,600167	0,5	-0,619350
16,608500	0,5	-0,617750
16,616833	0,5	-0,624500
16,625167	0,5	-0,632100
16,633500	0,5	-0,633050
16,641833	0,5	-0,634000
16,650167	0,5	-0,630800
16,658500	0,5	-0,630250
16,666833	0,5	-0,631300
16,675167	0,5	-0,634200
16,683500	0,5	-0,631350
16,691833	0,5	-0,635550
16,700167	0,5	-0,628650
16,708500	0,5	-0,630500
16,716833	0,5	-0,623950
16,725167	0,5	-0,630200
16,733500	0,5	-0,627850
16,741833	0,5	-0,623950
16,750167	0,5	-0,618700
16,758500	0,5	-0,621650
16,766833	0,5	-0,627800
16,775167	0,5	-0,627900
16,783500	0,5	-0,626400
16,791833	0,5	-0,624450
16,800167	0,5	-0,622150
16,808500	0,5	-0,617750
16,816833	0,5	-0,615800
16,825167	0,5	-0,613650
16,833500	0,5	-0,615000
16,841833	0,5	-0,611700
16,850167	0,5	-0,613400
16,858500	0,5	-0,606350
16,866833	0,5	-0,603500
16,875167	0,5	-0,611600
16,883500	0,5	-0,603700
16,891833	0,5	-0,596750
16,900167	0,5	-0,598600
16,908500	0,5	-0,597000
16,916833	0,5	-0,612650
16,925167	0,5	-0,601600
16,933500	0,5	-0,603350
16,941833	0,5	-0,598200
16,950167	0,5	-0,595900
16,958500	0,5	-0,590050
16,966833	0,5	-0,589300
16,975167	0,5	-0,587450
16,983500	0,5	-0,582100
16,991833	0,5	-0,580650
17,000167	0,5	-0,579400
17,008500	0,5	-0,574250
17,016833	0,5	-0,568150
17,025167	0,5	-0,578550
17,033500	0,5	-0,563800
17,041833	0,5	-0,561700
17,050167	0,5	-0,555950
17,058500	0,5	-0,558800
17,066833	0,5	-0,565300
17,075167	0,5	-0,553350
17,083500	0,5	-0,543150
17,091833	0,5	-0,546650
17,100167	0,5	-0,538900
17,108500	0,5	-0,532150
17,116833	0,5	-0,520450
17,125167	0,5	-0,513950
17,133500	0,5	-0,507500
17,141833	0,5	-0,499750
17,150167	0,5	-0,490950
17,158500	0,5	-0,476050
17,166833	0,5	-0,470100
17,175167	0,5	-0,467150
17,183500	0,5	-0,439000
17,191833	0,5	-0,417650
17,200167	0,5	-0,400850
17,208500	0,5	-0,380200
17,216833	0,5	-0,369450
17,225167	0,5	-0,342400
17,233500	0,5	-0,344450
17,241833	0,5	-0,346750
17,250167	0,5	-0,364350
17,258500	0,5	-0,385400
17,266833	0,5	-0,418500
17,275167	0,5	-0,441750
17,283500	0,5	-0,470200
17,291833	0,5	-0,488300
17,300167	0,5	-0,500950
17,308500	0,5	-0,507050
17,316833	0,5	-0,521400
17,325167	0,5	-0,527700
17,333500	0,5	-0,528000
17,341833	0,5	-0,532500
17,350167	0,5	-0,538200
17,358500	0,5	-0,555800
17,366833	0,5	-0,556400
17,375167	0,5	-0,558600
17,383500	0,5	-0,551800
17,391833	0,5	-0,558750
17,400167	0,5	-0,558700
17,408500	0,5	-0,561400
17,416833	0,5	-0,559850
17,425167	0,5	-0,562600
17,433500	0,5	-0,564850
17,441833	0,5	-0,566050
17,450167	0,5	-0,559000
17,458500	0,5	-0,565200
17,466833	0,5	-0,570450
17,475167	0,5	-0,565250
17,483500	0,5	-0,565950
17,491833	0,5	-0,571200
17,500167	0,5	-0,585150
17,508500	0,5	-0,593500
17,516833	0,5	-0,598300
17,525167	0,5	-0,598800
17,533500	0,5	-0,601450
17,541833	0,5	-0,596850
17,550167	0,5	-0,598850
17,558500	0,5	-0,599900
17,566833	0,5	-0,602250
17,575167	0,5	-0,599900
17,583500	0,5	-0,604800
17,591833	0,5	-0,606700
17,600167	0,5	-0,606100
17,608500	0,5	-0,612000
17,616833	0,5	-0,615900
17,625167	0,5	-0,612250
17,633500	0,5	-0,617650
17,641833	0,5	-0,621550
17,650167	0,5	-0,638650
17,658500	0,5	-0,645200
17,666833	0,5	-0,644000
17,675167	0,5	-0,649400
17,683500	0,5	-0,648700
17,691833	0,5	-0,647650
17,700167	0,5	-0,650800
17,708500	0,5	-0,654950
17,716833	0,5	-0,656850
17,725167	0,5	-0,661350
17,733500	0,5	-0,665500
17,741833	0,5	-0,661750
17,750167	0,5	-0,660250
17,758500	0,5	-0,676550
17,766833	0,5	-0,669400
17,775167	0,5	-0,673200
17,783500	0,5	-0,676500
17,791833	0,5	-0,685450
17,800167	0,5	-0,703150
17,808500	0,5	-0,706700
17,816833	0,5	-0,712200
17,825167	0,5	-0,716450
17,833500	0,5	-0,719050
17,841833	0,5	-0,721450
17,850167	0,5	-0,726400
17,858500	0,5	-0,726100
17,866833	0,5	-0,731350
17,875167	0,5	-0,736750
17,883500	0,5	-0,740550
17,891833	0,5	-0,736150
17,900167	0,5	-0,747550
17,908500	0,5	-0,757400
17,916833	0,5	-0,752400
17,925167	0,5	-0,754900
17,933500	0,5	-0,766350
17,941833	0,5	-0,772350
17,950167	0,5	-0,791250
17,958500	0,5	-0,789550
17,966833	0,5	-0,788850
17,975167	0,5	-0,789950
17,983500	0,5	-0,794900
17,991833	0,5	-0,797100
18,000167	0,5	-0,799150
18,008500	0,5	-0,799550
18,016833	0,5	-0,800600
18,025167	0,5	-0,806750
18,033500	0,5	-0,805750
18,041833	0,5	-0,800650
18,050167	0,5	-0,807250
18,058500	0,5	-0,810500
18,066833	0,5	-0,799500
18,075167	0,5	-0,800200
18,083500	0,5	-0,804750
18,091833	0,5	-0,815450
18,100167	0,5	-0,815250
18,108500	0,5	-0,810600
18,116833	0,5	-0,809900
18,125167	0,5	-0,813050
18,133500	0,5	-0,803950
18,141833	0,5	-0,803300
18,150167	0,5	-0,796750
18,158500	0,5	-0,790500
18,166833	0,5	-0,784600
18,175167	0,5	-0,778850
18,183500	0,5	-0,777300
18,191833	0,5	-0,767850
18,200167	0,5	-0,780400
18,208500	0,5	-0,768200
18,216833	0,5	-0,771750
18,225167	0,5	-0,771750
18,233500	0,5	-0,776900
18,241833	0,5	-0,792100
18,250167	0,5	-0,790300
18,258500	0,5	-0,788600
18,266833	0,5	-0,794100
18,275167	0,5	-0,790600
18,283500	0,5	-0,797550
18,291833	0,5	-0,794800
18,300167	0,5	-0,794050
18,308500	0,5	-0,801850
18,316833	0,5	-0,810550
18,325167	0,5	-0,814700
18,333500	0,5	-0,805400
18,341833	0,5	-0,804000
18,350167	0,5	-0,822250
18,358500	0,5	-0,814900
18,366833	0,5	-0,820750
18,375167	0,5	-0,823750
18,383500	0,5	-0,839250
18,391833	0,5	-0,853750
18,400167	0,5	-0,848250
18,408500	0,5	-0,849700
18,416833	0,5	-0,852700
18,425167	0,5	-0,853700
18,433500	0,5	-0,848350
18,441833	0,5	-0,854000
18,450167	0,5	-0,849750
18,458500	0,5	-0,851150
18,466833	0,5	-0,852950
18,475167	0,5	-0,851000
18,483500	0,5	-0,846400
18,491833	0,5	-0,855100
18,500167	0,5	-0,859150
18,508500	0,5	-0,850750
18,516833	0,5	-0,858700
18,525167	0,5	-0,860450
18,533500	0,5	-0,875300
18,541833	0,5	-0,885100
18,550167	0,5	-0,887350
18,558500	0,5	-0,879850
18,566833	0,5	-0,884450
18,575167	0,5	-0,878900
18,583500	0,5	-0,880800
18,591833	0,5	-0,876500
18,600167	0,5	-0,878100
18,608500	0,5	-0,877650
18,616833	0,5	-0,879550
18,625167	0,5	-0,872450
18,633500	0,5	-0,875350
18,641833	0,5	-0,877950
18,650167	0,5	-0,876250
18,658500	0,5	-0,865450
18,666833	0,5	-0,878000
18,675167	0,5	-0,887000
18,683500	0,5	-0,896150
18,691833	0,5	-0,900700
18,700167	0,5	-0,894050
18,708500	0,5	-0,902100
18,716833	0,5	-0,893950
18,725167	0,5	-0,900100
18,733500	0,5	-0,895800
18,741833	0,5	-0,898050
18,750167	0,5	-0,892650
18,758500	0,5	-0,894550
18,766833	0,5	-0,894050
18,775167	0,5	-0,889500
18,783500	0,5	-0,890950
18,791833	0,5	-0,899300
18,800167	0,5	-0,890800
18,808500	0,5	-0,895550
18,816833	0,5	-0,901000
18,825167	0,5	-0,910150
18,833500	0,5	-0,919300
18,841833	0,5	-0,916900
18,850167	0,5	-0,922500
18,858500	0,5	-0,923000
18,866833	0,5	-0,929200
18,875167	0,5	-0,926000
18,883500	0,5	-0,933900
18,891833	0,5	-0,927450
18,900167	0,5	-0,932000
18,908500	0,5	-0,940200
18,916833	0,5	-0,937450
18,925167	0,5	-0,927850
18,933500	0,5	-0,946650
18,941833	0,5	-0,942300
18,950167	0,5	-0,942950
18,958500	0,5	-0,946050
18,966833	0,5	-0,955700
18,975167	0,5	-0,976750
18,983500	0,5	-0,974800
18,991833	0,5	-0,977800
19,000167	0,5	-0,975950
19,008500	0,5	-0,988000
19,016833	0,5	-0,987350
19,025167	0,5	-0,992600
19,033500	0,5	-0,990050
19,041833	0,5	-0,995950
19,050167	0,5	-0,998000
19,058500	0,5	-1,005950
19,066833	0,5	-1,002750
19,075167	0,5	-1,001800
19,083500	0,5	-1,017600
19,091833	0,5	-1,010600
19,100167	0,5	-1,015300
19,108500	0,5	-1,029450
19,116833	0,5	-1,035050
19,125167	0,5	-1,054700
19,133500	0,5	-1,048950
19,141833	0,5	-1,051700
19,150167	0,5	-1,061650
19,158500	0,5	-1,060500
19,166833	0,5	-1,069350
19,175167	0,5	-1,061600
19,183500	0,5	-1,067000
19,191833	0,5	-1,066550
19,200167	0,5	-1,079150
19,208500	0,5	-1,082200
19,216833	0,5	-1,082950
19,225167	0,5	-1,081750
19,233500	0,5	-1,097650
19,241833	0,5	-1,087650
19,250167	0,5	-1,093650
19,258500	0,5	-1,103100
19,266833	0,5	-1,118550
19,275167	0,5	-1,134300
19,283500	0,5	-1,129050
19,291833	0,5	-1,132100
19,300167	0,5	-1,140300
19,308500	0,5	-1,140950
19,316833	0,5	-1,141850
19,325167	0,5	-1,145800
19,333500	0,5	-1,144400
19,341833	0,5	-1,149800
19,350167	0,5	-1,151500
19,358500	0,5	-1,150200
19,366833	0,5	-1,142750
19,375167	0,5	-1,153500
19,383500	0,5	-1,152350
19,391833	0,5	-1,153400
19,400167	0,5	-1,162350
19,408500	0,5	-1,171500
19,416833	0,5	-1,181700
19,425167	0,5	-1,187800
19,433500	0,5	-1,186600
19,441833	0,5	-1,184650
19,450167	0,5	-1,184700
19,458500	0,5	-1,185100
19,466833	0,5	-1,192600
19,475167	0,5	-1,192800
19,483500	0,5	-1,193800
19,491833	0,5	-1,193150
19,500167	0,5	-1,202900
19,508500	0,5	-1,194100
19,516833	0,5	-1,199050
19,525167	0,5	-1,206300
19,533500	0,5	-1,197350
19,541833	0,5	-1,199100
19,550167	0,5	-1,206950
19,558500	0,5	-1,219300
19,566833	0,5	-1,233850
19,575167	0,5	-1,235150
19,583500	0,5	-1,233800
19,591833	0,5	-1,235800
19,600167	0,5	-1,244100
19,608500	0,5	-1,239200
19,616833	0,5	-1,238150
19,625167	0,5	-1,238700
19,633500	0,5	-1,241100
19,641833	0,5	-1,246850
19,650167	0,5	-1,246150
19,658500	0,5	-1,239550
19,666833	0,5	-1,248850
19,675167	0,5	-1,246350
19,683500	0,5	-1,239950
19,691833	0,5	-1,247250
19,700167	0,5	-1,252850
19,708500	0,5	-1,269350
19,716833	0,5	-1,271600
19,725167	0,5	-1,272100
19,733500	0,5	-1,266150
19,741833	0,5	-1,270750
19,750167	0,5	-1,267500
19,758500	0,5	-1,269850
19,766833	0,5	-1,270250
19,775167	0,5	-1,268650
19,783500	0,5	-1,269950
19,791833	0,5	-1,272050
19,800167	0,5	-1,270450
19,808500	0,5	-1,262700
19,816833	0,5	-1,281450
19,825167	0,5	-1,269200
19,833500	0,5	-1,266350
19,841833	0,5	-1,270600
19,850167	0,5	-1,276500
19,858500	0,5	-1,287950
19,866833	0,5	-1,289250
19,875167	0,5	-1,284600
19,883500	0,5	-1,292450
19,891833	0,5	-1,292200
19,900167	0,5	-1,297550
19,908500	0,5	-1,294800
19,916833	0,5	-1,290450
19,925167	0,5	-1,290450
19,933500	0,5	-1,293650
19,941833	0,5	-1,293050
19,950167	0,5	-1,285100
19,958500	0,5	-1,287450
19,966833	0,5	-1,299450
19,975167	0,5	-1,293150
19,983500	0,5	-1,289200
19,991833	0,5	-1,302850
20,000167	0,5	-1,313650
20,008500	0,5	-1,323700
20,016833	0,5	-1,312800
20,025167	0,5	-1,317750
20,033500	0,5	-1,315500
20,041833	0,5	-1,316950
20,050167	0,5	-1,319050
20,058500	0,5	-1,319950
20,066833	0,5	-1,316950
20,075167	0,5	-1,318650
20,083500	0,5	-1,316900
20,091833	0,5	-1,317800
20,100167	0,5	-1,304100
20,108500	0,5	-1,316750
20,116833	0,5	-1,310600
20,125167	0,5	-1,304200
20,133500	0,5	-1,308650
20,141833	0,5	-1,308600
20,150167	0,5	-1,327400
20,158500	0,5	-1,319450
20,166833	0,5	-1,320700
20,175167	0,5	-1,315000
20,183500	0,5	-1,323050
20,191833	0,5	-1,327000
20,200167	0,5	-1,334800
20,208500	0,5	-1,324900
20,216833	0,5	-1,326350
20,225167	0,5	-1,323850
20,233500	0,5	-1,327150
20,241833	0,5	-1,323850
20,250167	0,5	-1,320150
20,258500	0,5	-1,333850
20,266833	0,5	-1,324850
20,275167	0,5	-1,329650
20,283500	0,5	-1,328600
20,291833	0,5	-1,346350
20,300167	0,5	-1,356550
20,308500	0,5	-1,356300
20,316833	0,5	-1,351100
20,325167	0,5	-1,357700
20,333500	0,5	-1,356700
20,341833	0,5	-1,360250
20,350167	0,5	-1,358500
20,358500	0,5	-1,364250
20,366833	0,5	-1,359300
20,375167	0,5	-1,360300
20,383500	0,5	-1,360650
20,391833	0,5	-1,355450
20,400167	0,5	-1,351350
20,408500	0,5	-1,362000
20,416833	0,5	-1,355050
20,425167	0,5	-1,362950
20,433500	0,5	-1,371150
20,441833	0,5	-1,385100
20,450167	0,5	-1,398500
20,458500	0,5	-1,392250
20,466833	0,5	-1,395900
20,475167	0,5	-1,389700
20,483500	0,5	-1,401600
20,491833	0,5	-1,397350
20,500167	0,5	-1,398000
20,508500	0,5	-1,392550
20,516833	0,5	-1,390450
20,525167	0,5	-1,390650
20,533500	0,5	-1,380850
20,541833	0,5	-1,372650
20,550167	0,5	-1,377850
20,558500	0,5	-1,379950
20,566833	0,5	-1,378100
20,575167	0,5	-1,384850
20,583500	0,5	-1,395250
20,591833	0,5	-1,412250
20,600167	0,5	-1,408850
20,608500	0,5	-1,409250
20,616833	0,5	-1,402050
20,625167	0,5	-1,402800
20,633500	0,5	-1,394550
20,641833	0,5	-1,395400
20,650167	0,5	-1,386350
20,658500	0,5	-1,387950
20,666833	0,5	-1,384650
20,675167	0,5	-1,382350
20,683500	0,5	-1,363350
20,691833	0,5	-1,359800
20,700167	0,5	-1,361900
20,708500	0,5	-1,361000
20,716833	0,5	-1,359300
20,725167	0,5	-1,367750
20,733500	0,5	-1,384550
20,741833	0,5	-1,384700
20,750167	0,5	-1,387300
20,758500	0,5	-1,376200
20,766833	0,5	-1,380450
20,775167	0,5	-1,374550
20,783500	0,5	-1,383800
20,791833	0,5	-1,379050
20,800167	0,5	-1,378000
20,808500	0,5	-1,371750
20,816833	0,5	-1,374550
20,825167	0,5	-1,357950
20,833500	0,5	-1,346350
20,841833	0,5	-1,340500
20,850167	0,5	-1,344500
20,858500	0,5	-1,345300
20,866833	0,5	-1,346600
20,875167	0,5	-1,353300
20,883500	0,5	-1,375850
20,891833	0,5	-1,369750
20,900167	0,5	-1,359200
20,908500	0,5	-1,364400
20,916833	0,5	-1,357900
20,925167	0,5	-1,361250
20,933500	0,5	-1,352800
20,941833	0,5	-1,352250
20,950167	0,5	-1,342550
20,958500	0,5	-1,341750
20,966833	0,5	-1,336900
20,975167	0,5	-1,316300
20,983500	0,5	-1,298600
20,991833	0,5	-1,305550
21,000167	0,5	-1,301400
21,008500	0,5	-1,300600
21,016833	0,5	-1,301950
21,025167	0,5	-1,310650
21,033500	0,5	-1,320300
21,041833	0,5	-1,311700
21,050167	0,5	-1,311000
21,058500	0,5	-1,305750
21,066833	0,5	-1,307000
21,075167	0,5	-1,300400
21,083500	0,5	-1,305900
21,091833	0,5	-1,300550
21,100167	0,5	-1,297550
21,108500	0,5	-1,296550
21,116833	0,5	-1,284800
21,125167	0,5	-1,263550
21,133500	0,5	-1,257000
21,141833	0,5	-1,263300
21,150167	0,5	-1,261700
21,158500	0,5	-1,265900
21,166833	0,5	-1,274900
21,175167	0,5	-1,285050
21,183500	0,5	-1,286000
21,191833	0,5	-1,277000
21,200167	0,5	-1,273950
21,208500	0,5	-1,270100
21,216833	0,5	-1,259800
21,225167	0,5	-1,257450
21,233500	0,5	-1,251000
21,241833	0,5	-1,246750
21,250167	0,5	-1,236150
21,258500	0,5	-1,233500
21,266833	0,5	-1,206200
21,275167	0,5	-1,189550
21,283500	0,5	-1,189250
21,291833	0,5	-1,192350
21,300167	0,5	-1,188650
21,308500	0,5	-1,189450
21,316833	0,5	-1,194350
21,325167	0,5	-1,201700
21,333500	0,5	-1,196600
21,341833	0,5	-1,181500
21,350167	0,5	-1,180900
21,358500	0,5	-1,165900
21,366833	0,5	-1,158550
21,375167	0,5	-1,147050
21,383500	0,5	-1,138400
21,391833	0,5	-1,120550
21,400167	0,5	-1,104800
21,408500	0,5	-1,074700
21,416833	0,5	-1,030100
21,425167	0,5	-0,996450
21,433500	0,5	-0,988550
21,441833	0,5	-0,983600
21,450167	0,5	-1,001350
21,458500	0,5	-1,011750
21,466833	0,5	-1,028100
21,475167	0,5	-1,043550
21,483500	0,5	-1,035950
21,491833	0,5	-1,027050
21,500167	0,5	-1,016600
21,508500	0,5	-1,017950
21,516833	0,5	-1,011700
21,525167	0,5	-1,009450
21,533500	0,5	-0,999850
21,541833	0,5	-0,998800
21,550167	0,5	-0,996300
21,558500	0,5	-0,975700
21,566833	0,5	-0,954750
21,575167	0,5	-0,949650
21,583500	0,5	-0,948200
21,591833	0,5	-0,947000
21,600167	0,5	-0,943250
21,608500	0,5	-0,945550
21,616833	0,5	-0,941250
21,625167	0,5	-0,927500
21,633500	0,5	-0,918050
21,641833	0,5	-0,897400
21,650167	0,5	-0,891700
21,658500	0,5	-0,873400
21,666833	0,5	-0,860700
21,675167	0,5	-0,853150
21,683500	0,5	-0,837050
21,691833	0,5	-0,825100
21,700167	0,5	-0,811450
21,708500	0,5	-0,778050
21,716833	0,5	-0,759400
21,725167	0,5	-0,749400
21,733500	0,5	-0,742000
21,741833	0,5	-0,734600
21,750167	0,5	-0,730250
21,758500	0,5	-0,731100
21,766833	0,5	-0,723350
21,775167	0,5	-0,719300
21,783500	0,5	-0,694150
21,791833	0,5	-0,684000
21,800167	0,5	-0,667750
21,808500	0,5	-0,651150
21,816833	0,5	-0,637100
21,825167	0,5	-0,622300
21,833500	0,5	-0,605400
21,841833	0,5	-0,588050
21,850167	0,5	-0,559550
21,858500	0,5	-0,534200
21,866833	0,5	-0,520400
21,875167	0,5	-0,512750
21,883500	0,5	-0,492750
21,891833	0,5	-0,484250
21,900167	0,5	-0,467750
21,908500	0,5	-0,463100
21,916833	0,5	-0,440000
21,925167	0,5	-0,410150
21,933500	0,5	-0,387700
21,941833	0,5	-0,357950
21,950167	0,5	-0,331800
21,958500	0,5	-0,299650
21,966833	0,5	-0,276300
21,975167	0,5	-0,240750
21,983500	0,5	-0,217500
21,991833	0,5	-0,189500
22,000167	0,5	-0,143000
22,008500	0,5	-0,128450
22,016833	0,5	-0,116050
22,025167	0,5	-0,102550
22,033500	0,5	-0,084900
22,041833	0,5	-0,080450
22,050167	0,5	-0,075400
22,058500	0,5	-0,065700
22,066833	0,5	-0,036750
22,075167	0,5	-0,016500
22,083500	0,5	0,011900
22,091833	0,5	0,032900
22,100167	0,5	0,065450
22,108500	0,5	0,084150
22,116833	0,5	0,115050
22,125167	0,5	0,135900
22,133500	0,5	0,166100
22,141833	0,5	0,201700
22,150167	0,5	0,239500
22,158500	0,5	0,253200
22,166833	0,5	0,298050
22,175167	0,5	0,331550
22,183500	0,5	0,369400
22,191833	0,5	0,399550
22,200167	0,5	0,419500
22,208500	0,5	0,460100
22,216833	0,5	0,493850
22,225167	0,5	0,527850
22,233500	0,5	0,560550
22,241833	0,5	0,603100
22,250167	0,5	0,638400
22,258500	0,5	0,682750
22,266833	0,5	0,714100
22,275167	0,5	0,762150
22,283500	0,5	0,802100
22,291833	0,5	0,833300
22,300167	0,5	0,876400
22,308500	0,5	0,917150
22,316833	0,5	0,971600
22,325167	0,5	1,008850
22,333500	0,5	1,049600
22,341833	0,5	1,086750
22,350167	0,5	1,121800
22,358500	0,5	1,164450
22,366833	0,5	1,221450
22,375167	0,5	1,267150
22,383500	0,5	1,324000
22,391833	0,5	1,373550
22,400167	0,5	1,427500
22,408500	0,5	1,480700
22,416833	0,5	1,537150
22,425167	0,5	1,587100
22,433500	0,5	1,637350
22,441833	0,5	1,690050
22,450167	0,5	1,744950
22,458500	0,5	1,807900
22,466833	0,5	1,875500
22,475167	0,5	1,927150
22,483500	0,5	1,979450
22,491833	0,5	2,027600
22,500167	0,5	2,076000
22,508500	0,5	2,076750
22,516833	0,5	2,202200
22,525167	0,5	2,266200
22,533500	0,5	2,322350
22,541833	0,5	2,389250
22,550167	0,5	2,447150
22,558500	0,5	2,513400
22,566833	0,5	2,571250
22,575167	0,5	2,640300
22,583500	0,5	2,673750
22,591833	0,5	2,735600
22,600167	0,5	2,798050
22,608500	0,5	2,866500
22,616833	0,5	2,914650
22,625167	0,5	2,958650
22,633500	0,5	2,987100
22,641833	0,5	3,022850
22,650167	0,5	3,060100
22,658500	0,5	3,096900
22,666833	0,5	3,132500
22,675167	0,5	3,158550
22,683500	0,5	3,182900
22,691833	0,5	3,196500
22,700167	0,5	3,209900
22,708500	0,5	3,206300
22,716833	0,5	3,201750
22,725167	0,5	3,171600
22,733500	0,5	3,141650
22,741833	0,5	3,107400
22,750167	0,5	3,093750
22,758500	0,5	3,046350
22,766833	0,5	2,990050
22,775167	0,5	2,916500
22,783500	0,5	2,821550
22,791833	0,5	2,738500
22,800167	0,5	2,649850
22,808500	0,5	2,558350
22,816833	0,5	2,458200
22,825167	0,5	2,356700
22,833500	0,5	2,253600
22,841833	0,5	2,142900
22,850167	0,5	2,026200
22,858500	0,5	1,903250
22,866833	0,5	1,776450
22,875167	0,5	1,618400
22,883500	0,5	1,480900
22,891833	0,5	1,357850
22,900167	0,5	1,226050
22,908500	0,5	1,074450
22,916833	0,5	0,929350
22,925167	0,5	0,783100
22,933500	0,5	0,642050
22,941833	0,5	0,497250
22,950167	0,5	0,357750
22,958500	0,5	0,228200
22,966833	0,5	0,099550
22,975167	0,5	-0,022850
22,983500	0,5	-0,145700
22,991833	0,5	-0,259700
23,000167	0,5	-0,379600
23,008500	0,5	-0,487200
23,016833	0,5	-0,588900
23,025167	0,5	-0,690750
23,033500	0,5	-0,801250
23,041833	0,5	-0,919600
23,050167	0,5	-1,043150
23,058500	0,5	-1,137600
23,066833	0,5	-1,219700
23,075167	0,5	-1,295100
23,083500	0,5	-1,378350
23,091833	0,5	-1,458800
23,100167	0,5	-1,518100
23,108500	0,5	-1,575550
23,116833	0,5	-1,626050
23,125167	0,5	-1,681000
23,133500	0,5	-1,723050
23,141833	0,5	-1,776150
23,150167	0,5	-1,815550
23,158500	0,5	-1,864300
23,166833	0,5	-1,873500
23,175167	0,5	-1,916000
23,183500	0,5	-1,965500
23,191833	0,5	-2,037400
23,200167	0,5	-2,075650
23,208500	0,5	-2,105850
23,216833	0,5	-2,122800
23,225167	0,5	-2,136200
23,233500	0,5	-2,154600
23,241833	0,5	-2,171550
23,250167	0,5	-2,178000
23,258500	0,5	-2,181700
23,266833	0,5	-2,177200
23,275167	0,5	-2,175400
23,283500	0,5	-2,174600
23,291833	0,5	-2,168350
23,300167	0,5	-2,172750
23,308500	0,5	-2,159800
23,316833	0,5	-2,160950
23,325167	0,5	-2,143050
23,333500	0,5	-2,138500
23,341833	0,5	-2,171850
23,350167	0,5	-2,180050
23,358500	0,5	-2,177950
23,366833	0,5	-2,169350
23,375167	0,5	-2,156000
23,383500	0,5	-2,147450
23,391833	0,5	-2,135650
23,400167	0,5	-2,122700
23,408500	0,5	-2,100950
23,416833	0,5	-2,085600
23,425167	0,5	-2,059150
23,433500	0,5	-2,038200
23,441833	0,5	-2,013100
23,450167	0,5	-1,990800
23,458500	0,5	-1,960750
23,466833	0,5	-1,983300
23,475167	0,5	-1,929050
23,483500	0,5	-1,897050
23,491833	0,5	-1,904750
23,500167	0,5	-1,890000
23,508500	0,5	-1,883800
23,516833	0,5	-1,859400
23,525167	0,5	-1,847250
23,533500	0,5	-1,830600
23,541833	0,5	-1,818600
23,550167	0,5	-1,801750
23,558500	0,5	-1,781950
23,566833	0,5	-1,760850
23,575167	0,5	-1,737900
23,583500	0,5	-1,714750
23,591833	0,5	-1,691950
23,600167	0,5	-1,670200
23,608500	0,5	-1,698250
23,616833	0,5	-1,676700
23,625167	0,5	-1,636950
23,633500	0,5	-1,581550
23,641833	0,5	-1,564650
23,650167	0,5	-1,550600
23,658500	0,5	-1,533950
23,666833	0,5	-1,514000
23,675167	0,5	-1,494700
23,683500	0,5	-1,479750
23,691833	0,5	-1,459950
23,700167	0,5	-1,441500
23,708500	0,5	-1,421600
23,716833	0,5	-1,402950
23,725167	0,5	-1,379400
23,733500	0,5	-1,364250
23,741833	0,5	-1,345350
23,750167	0,5	-1,336200
23,758500	0,5	-1,415000
23,766833	0,5	-1,378500
23,775167	0,5	-1,331750
23,783500	0,5	-1,273250
23,791833	0,5	-1,253550
23,800167	0,5	-1,238900
23,808500	0,5	-1,226400
23,816833	0,5	-1,216300
23,825167	0,5	-1,191300
23,833500	0,5	-1,172550
23,841833	0,5	-1,149450
23,850167	0,5	-1,130400
23,858500	0,5	-1,107350
23,866833	0,5	-1,085000
23,875167	0,5	-1,062400
23,883500	0,5	-1,042950
23,891833	0,5	-1,027950
23,900167	0,5	-1,068700
23,908500	0,5	-1,096850
23,916833	0,5	-1,082550
23,925167	0,5	-1,014150
23,933500	0,5	-0,971650
23,941833	0,5	-0,949600
23,950167	0,5	-0,938050
23,958500	0,5	-0,935650
23,966833	0,5	-0,918950
23,975167	0,5	-0,904800
23,983500	0,5	-0,882550
23,991833	0,5	-0,869600
24,000167	0,5	-0,850550
24,008500	0,5	-0,836600
24,016833	0,5	-0,818050
24,025167	0,5	-0,793200
24,033500	0,5	-0,772700
24,041833	0,5	-0,760850
24,050167	0,5	-0,853400
24,058500	0,5	-0,820450
24,066833	0,5	-0,787500
24,075167	0,5	-0,728450
24,083500	0,5	-0,691400
24,091833	0,5	-0,670600
24,100167	0,5	-0,658250
24,108500	0,5	-0,665150
24,116833	0,5	-0,655500
24,125167	0,5	-0,623850
24,133500	0,5	-0,607900
24,141833	0,5	-0,593700
24,150167	0,5	-0,578450
24,158500	0,5	-0,562400
24,166833	0,5	-0,548150
24,175167	0,5	-0,530600
24,183500	0,5	-0,524000
24,191833	0,5	-0,519000
24,200167	0,5	-0,609900
24,208500	0,5	-0,566900
24,216833	0,5	-0,544150
24,225167	0,5	-0,482100
24,233500	0,5	-0,463600
24,241833	0,5	-0,441250
24,250167	0,5	-0,437300
24,258500	0,5	-0,442650
24,266833	0,5	-0,421400
24,275167	0,5	-0,394650
24,283500	0,5	-0,380100
24,291833	0,5	-0,365350
24,300167	0,5	-0,349250
24,308500	0,5	-0,340900
24,316833	0,5	-0,323450
24,325167	0,5	-0,306150
24,333500	0,5	-0,293700
24,341833	0,5	-0,333900
24,350167	0,5	-0,352700
24,358500	0,5	-0,333800
24,366833	0,5	-0,300400
24,375167	0,5	-0,267000
24,383500	0,5	-0,254350
24,391833	0,5	-0,248350
24,400167	0,5	-0,247350
24,408500	0,5	-0,258300
24,416833	0,5	-0,238550
24,425167	0,5	-0,225150
24,433500	0,5	-0,210350
24,441833	0,5	-0,198300
24,450167	0,5	-0,180750
24,458500	0,5	-0,166050
24,466833	0,5	-0,152300
24,475167	0,5	-0,142900
24,483500	0,5	-0,136050
24,491833	0,5	-0,178100
24,500167	0,5	-0,175850
24,508500	0,5	-0,151050
24,516833	0,5	-0,123350
24,525167	0,5	-0,097600
24,533500	0,5	-0,096750
24,541833	0,5	-0,087750
24,550167	0,5	-0,093150
24,558500	0,5	-0,089450
24,566833	0,5	-0,083150
24,575167	0,5	-0,070600
24,583500	0,5	-0,060850
24,591833	0,5	-0,054900
24,600167	0,5	-0,052150
24,608500	0,5	-0,041400
24,616833	0,5	-0,032050
24,625167	0,5	-0,026500
24,633500	0,5	-0,016000
24,641833	0,5	-0,054800
24,650167	0,5	-0,039400
24,658500	0,5	-0,024450
24,666833	0,5	0,002200
24,675167	0,5	0,016500
24,683500	0,5	0,021600
24,691833	0,5	0,022400
24,700167	0,5	0,018950
24,708500	0,5	0,025150
24,716833	0,5	0,037350
24,725167	0,5	0,039200
24,733500	0,5	0,051700
24,741833	0,5	0,052200
24,750167	0,5	0,061800
24,758500	0,5	0,065450
24,766833	0,5	0,074300
24,775167	0,5	0,075600
24,783500	0,5	0,059800
24,791833	0,5	0,051800
24,800167	0,5	0,052800
24,808500	0,5	0,069150
24,816833	0,5	0,085750
24,825167	0,5	0,093800
24,833500	0,5	0,096100
24,841833	0,5	0,092000
24,850167	0,5	0,092300
24,858500	0,5	0,104250
24,866833	0,5	0,104650
24,875167	0,5	0,113150
24,883500	0,5	0,117650
24,891833	0,5	0,122050
24,900167	0,5	0,122800
24,908500	0,5	0,134600
24,916833	0,5	0,136950
24,925167	0,5	0,136900
24,933500	0,5	0,118450
24,941833	0,5	0,132500
24,950167	0,5	0,129550
24,958500	0,5	0,143850
24,966833	0,5	0,149550
24,975167	0,5	0,151700
24,983500	0,5	0,149350
24,991833	0,5	0,142500
25,000167	0,5	0,146150
25,008500	0,5	0,148950
25,016833	0,5	0,154800
25,025167	0,5	0,155250
25,033500	0,5	0,159750
25,041833	0,5	0,162900
25,050167	0,5	0,167150
25,058500	0,5	0,170900
25,066833	0,5	0,174350
25,075167	0,5	0,177300
25,083500	0,5	0,165900
25,091833	0,5	0,174400
25,100167	0,5	0,175650
25,108500	0,5	0,185250
25,116833	0,5	0,188300
25,125167	0,5	0,186750
25,133500	0,5	0,189400
25,141833	0,5	0,184700
25,150167	0,5	0,187150
25,158500	0,5	0,187800
25,166833	0,5	0,186050
25,175167	0,5	0,187350
25,183500	0,5	0,188700
25,191833	0,5	0,193300
25,200167	0,5	0,191050
25,208500	0,5	0,196150
25,216833	0,5	0,196000
25,225167	0,5	0,194200
25,233500	0,5	0,194750
25,241833	0,5	0,197950
25,250167	0,5	0,200950
25,258500	0,5	0,204000
25,266833	0,5	0,208350
25,275167	0,5	0,210600
25,283500	0,5	0,205100
25,291833	0,5	0,205900
25,300167	0,5	0,205900
25,308500	0,5	0,210550
25,316833	0,5	0,206200
25,325167	0,5	0,210050
25,333500	0,5	0,206800
25,341833	0,5	0,207450
25,350167	0,5	0,207350
25,358500	0,5	0,207300
25,366833	0,5	0,207350
25,375167	0,5	0,207050
25,383500	0,5	0,205150
25,391833	0,5	0,204700
25,400167	0,5	0,209900
25,408500	0,5	0,206000
25,416833	0,5	0,208300
25,425167	0,5	0,208400
25,433500	0,5	0,206850
25,441833	0,5	0,206450
25,450167	0,5	0,208150
25,458500	0,5	0,209100
25,466833	0,5	0,208500
25,475167	0,5	0,209150
25,483500	0,5	0,210000
25,491833	0,5	0,208300
25,500167	0,5	0,210200
25,508500	0,5	0,208400
25,516833	0,5	0,209300
25,525167	0,5	0,207650
25,533500	0,5	0,208850
25,541833	0,5	0,209250
25,550167	0,5	0,207150
25,558500	0,5	0,204500
25,566833	0,5	0,205500
25,575167	0,5	0,203000
25,583500	0,5	0,206100
25,591833	0,5	0,205350
25,600167	0,5	0,206600
25,608500	0,5	0,206600
25,616833	0,5	0,209400
25,625167	0,5	0,206450
25,633500	0,5	0,205050
25,641833	0,5	0,205600
25,650167	0,5	0,206100
25,658500	0,5	0,207150
25,666833	0,5	0,206300
25,675167	0,5	0,209500
25,683500	0,5	0,206200
25,691833	0,5	0,206700
25,700167	0,5	0,201600
25,708500	0,5	0,200900
25,716833	0,5	0,200800
25,725167	0,5	0,204350
25,733500	0,5	0,202600
25,741833	0,5	0,202750
25,750167	0,5	0,202200
25,758500	0,5	0,201050
25,766833	0,5	0,198500
25,775167	0,5	0,202300
25,783500	0,5	0,197550
25,791833	0,5	0,202100
25,800167	0,5	0,198400
25,808500	0,5	0,201900
25,816833	0,5	0,203000
25,825167	0,5	0,201600
25,833500	0,5	0,206050
25,841833	0,5	0,201950
25,850167	0,5	0,201250
25,858500	0,5	0,198000
25,866833	0,5	0,198950
25,875167	0,5	0,200650
25,883500	0,5	0,202800
25,891833	0,5	0,198550
25,900167	0,5	0,199600
25,908500	0,5	0,199650
25,916833	0,5	0,198900
25,925167	0,5	0,195350
25,933500	0,5	0,197400
25,941833	0,5	0,197450
25,950167	0,5	0,199900
25,958500	0,5	0,200200
25,966833	0,5	0,199400
25,975167	0,5	0,195450
25,983500	0,5	0,205650
25,991833	0,5	0,195350
26,000167	0,5	0,196650
