File Path	chrom://chromeleon01/ikbm_chromeleon/2022/ICS-5000/ED1/Esteban/20220612_Cell_7_4_eg.seq/705.smp/ED_1.channel/ED_1.chm
Channel	ED_1

Injection Information:
Data Vault	ikbm_chromeleon
Injection	7_24h-EGS_2
Injection Number	25
Position	RC3
Comment	
Processing Method	Stop sequence after Cell Death
Instrument Method	ICS5000_PA200_FullNative_Ox_26min_ED1
Type	Unknown
Status	Finished
Injection Date	13.06.2022
Injection Time	03:27:28
Injection Volume (µl)	5,0
Dilution Factor	1,0000
Weight	1,0000

Chromatogram Data Information:
Time Min. (min)	0,000167
Time Max. (min)	26,000167
Data Points	3121
Detector	EDet1
Generating Data System	Chromeleon 7.2.9.11323
Exporting Data System	Chromeleon 7.2.9.0
Operator	Instrument Controller
Signal Quantity	
Signal Unit	nC
Signal Min.	-1,595650
Signal Max.	777,763812
Channel	ED_1
Driver Name	DC-5000
Channel Type	Evaluation
Min. Step (s)	0,5
Max. Step (s)	0,5
Average Step (s)	0,5

Signal Parameter Information:
Signal Info	

Chromatogram Data:
Time (min)	Step (s)	Value (nC)
0,000167	n.a.	0,006600
0,008500	0,5	-0,046850
0,016833	0,5	-0,033300
0,025167	0,5	-0,028950
0,033500	0,5	-0,014650
0,041833	0,5	-0,014200
0,050167	0,5	-0,007150
0,058500	0,5	-0,004250
0,066833	0,5	-0,006300
0,075167	0,5	-0,002750
0,083500	0,5	-0,005450
0,091833	0,5	-0,009300
0,100167	0,5	0,000850
0,108500	0,5	0,004400
0,116833	0,5	-0,013200
0,125167	0,5	-0,013500
0,133500	0,5	-0,006500
0,141833	0,5	0,009350
0,150167	0,5	0,020850
0,158500	0,5	0,022700
0,166833	0,5	0,008750
0,175167	0,5	0,017200
0,183500	0,5	0,013350
0,191833	0,5	0,014450
0,200167	0,5	0,007500
0,208500	0,5	0,007600
0,216833	0,5	0,008750
0,225167	0,5	0,008750
0,233500	0,5	0,015500
0,241833	0,5	0,003100
0,250167	0,5	0,015350
0,258500	0,5	0,004350
0,266833	0,5	-0,005500
0,275167	0,5	-0,004500
0,283500	0,5	0,004150
0,291833	0,5	0,029150
0,300167	0,5	0,059050
0,308500	0,5	0,055350
0,316833	0,5	0,040200
0,325167	0,5	0,014700
0,333500	0,5	0,008450
0,341833	0,5	0,005850
0,350167	0,5	0,011150
0,358500	0,5	0,006500
0,366833	0,5	0,009300
0,375167	0,5	0,008800
0,383500	0,5	0,000700
0,391833	0,5	0,001950
0,400167	0,5	0,014300
0,408500	0,5	-0,004900
0,416833	0,5	-0,000700
0,425167	0,5	0,000550
0,433500	0,5	0,012700
0,441833	0,5	0,029900
0,450167	0,5	0,029950
0,458500	0,5	0,030100
0,466833	0,5	0,028450
0,475167	0,5	0,029100
0,483500	0,5	0,015100
0,491833	0,5	0,024400
0,500167	0,5	0,019300
0,508500	0,5	0,017200
0,516833	0,5	0,016400
0,525167	0,5	0,011550
0,533500	0,5	0,003150
0,541833	0,5	0,020850
0,550167	0,5	0,016750
0,558500	0,5	0,007250
0,566833	0,5	0,007550
0,575167	0,5	0,007250
0,583500	0,5	0,024750
0,591833	0,5	0,033750
0,600167	0,5	0,039750
0,608500	0,5	0,038600
0,616833	0,5	0,037750
0,625167	0,5	0,033250
0,633500	0,5	0,040100
0,641833	0,5	0,035700
0,650167	0,5	0,038150
0,658500	0,5	0,033300
0,666833	0,5	0,036900
0,675167	0,5	0,023900
0,683500	0,5	0,024650
0,691833	0,5	0,039900
0,700167	0,5	0,033450
0,708500	0,5	0,022050
0,716833	0,5	0,028500
0,725167	0,5	0,029700
0,733500	0,5	0,058400
0,741833	0,5	0,057850
0,750167	0,5	0,056450
0,758500	0,5	0,053300
0,766833	0,5	0,057700
0,775167	0,5	0,056700
0,783500	0,5	0,056150
0,791833	0,5	0,053600
0,800167	0,5	0,052800
0,808500	0,5	0,055100
0,816833	0,5	0,053000
0,825167	0,5	0,059550
0,833500	0,5	0,055250
0,841833	0,5	0,077600
0,850167	0,5	0,054250
0,858500	0,5	0,051700
0,866833	0,5	0,054050
0,875167	0,5	0,063850
0,883500	0,5	0,076300
0,891833	0,5	0,073850
0,900167	0,5	0,069450
0,908500	0,5	0,075400
0,916833	0,5	0,075050
0,925167	0,5	0,084100
0,933500	0,5	0,079800
0,941833	0,5	0,080450
0,950167	0,5	0,077850
0,958500	0,5	0,080850
0,966833	0,5	0,088150
0,975167	0,5	0,076700
0,983500	0,5	0,079750
0,991833	0,5	0,093150
1,000167	0,5	0,076200
1,008500	0,5	0,076700
1,016833	0,5	0,087550
1,025167	0,5	0,098850
1,033500	0,5	0,113850
1,041833	0,5	0,101650
1,050167	0,5	0,107300
1,058500	0,5	0,102350
1,066833	0,5	0,109050
1,075167	0,5	0,108200
1,083500	0,5	0,110150
1,091833	0,5	0,104900
1,100167	0,5	0,108000
1,108500	0,5	0,110500
1,116833	0,5	0,106950
1,125167	0,5	0,096250
1,133500	0,5	0,108500
1,141833	0,5	0,113200
1,150167	0,5	0,100600
1,158500	0,5	0,104400
1,166833	0,5	0,106900
1,175167	0,5	0,119600
1,183500	0,5	0,129150
1,191833	0,5	0,128900
1,200167	0,5	0,123050
1,208500	0,5	0,128450
1,216833	0,5	0,126200
1,225167	0,5	0,129200
1,233500	0,5	0,123050
1,241833	0,5	0,121250
1,250167	0,5	0,116500
1,258500	0,5	0,122700
1,266833	0,5	0,119050
1,275167	0,5	0,108950
1,283500	0,5	0,118400
1,291833	0,5	0,109700
1,300167	0,5	0,103800
1,308500	0,5	0,103150
1,316833	0,5	0,111250
1,325167	0,5	0,119850
1,333500	0,5	0,124850
1,341833	0,5	0,118550
1,350167	0,5	0,118250
1,358500	0,5	0,112400
1,366833	0,5	0,110250
1,375167	0,5	0,106650
1,383500	0,5	0,104550
1,391833	0,5	0,097350
1,400167	0,5	0,100900
1,408500	0,5	0,094800
1,416833	0,5	0,093850
1,425167	0,5	0,089450
1,433500	0,5	0,093700
1,441833	0,5	0,074150
1,450167	0,5	0,072500
1,458500	0,5	0,068450
1,466833	0,5	0,083650
1,475167	0,5	0,090350
1,483500	0,5	0,089450
1,491833	0,5	0,083150
1,500167	0,5	0,085000
1,508500	0,5	0,080400
1,516833	0,5	0,070200
1,525167	0,5	0,067350
1,533500	0,5	0,058350
1,541833	0,5	0,053900
1,550167	0,5	0,056500
1,558500	0,5	0,063300
1,566833	0,5	0,081950
1,575167	0,5	0,114800
1,583500	0,5	0,306650
1,591833	0,5	2,469600
1,600167	0,5	13,025450
1,608500	0,5	50,503201
1,616833	0,5	157,233702
1,625167	0,5	367,973705
1,633500	0,5	620,456509
1,641833	0,5	777,763812
1,650167	0,5	762,387411
1,658500	0,5	620,988509
1,666833	0,5	453,577257
1,675167	0,5	318,904455
1,683500	0,5	226,233553
1,691833	0,5	166,320902
1,700167	0,5	128,780652
1,708500	0,5	105,538802
1,716833	0,5	90,266151
1,725167	0,5	78,844351
1,733500	0,5	69,594451
1,741833	0,5	62,504701
1,750167	0,5	58,288201
1,758500	0,5	57,339301
1,766833	0,5	58,711501
1,775167	0,5	60,310301
1,783500	0,5	60,585951
1,791833	0,5	58,950551
1,800167	0,5	55,857701
1,808500	0,5	52,106001
1,816833	0,5	48,431151
1,825167	0,5	45,242801
1,833500	0,5	42,877351
1,841833	0,5	41,598701
1,850167	0,5	41,227651
1,858500	0,5	40,885601
1,866833	0,5	39,570751
1,875167	0,5	37,347751
1,883500	0,5	35,028151
1,891833	0,5	33,603751
1,900167	0,5	33,808101
1,908500	0,5	36,309651
1,916833	0,5	41,041451
1,925167	0,5	46,447951
1,933500	0,5	50,282351
1,941833	0,5	50,846251
1,950167	0,5	47,858951
1,958500	0,5	43,360901
1,966833	0,5	40,525751
1,975167	0,5	40,468401
1,983500	0,5	40,533551
1,991833	0,5	38,389451
2,000167	0,5	35,076051
2,008500	0,5	32,146150
2,016833	0,5	29,586600
2,025167	0,5	27,182350
2,033500	0,5	25,173050
2,041833	0,5	23,729850
2,050167	0,5	22,654350
2,058500	0,5	21,786600
2,066833	0,5	21,182100
2,075167	0,5	20,707150
2,083500	0,5	20,054500
2,091833	0,5	19,113250
2,100167	0,5	18,184350
2,108500	0,5	17,459300
2,116833	0,5	16,959950
2,125167	0,5	16,629900
2,133500	0,5	16,417400
2,141833	0,5	16,210700
2,150167	0,5	15,936000
2,158500	0,5	15,629500
2,166833	0,5	15,395150
2,175167	0,5	15,225800
2,183500	0,5	15,202200
2,191833	0,5	15,537150
2,200167	0,5	16,604350
2,208500	0,5	17,550950
2,216833	0,5	16,937400
2,225167	0,5	15,672650
2,233500	0,5	14,941300
2,241833	0,5	14,670150
2,250167	0,5	14,624000
2,258500	0,5	14,731700
2,266833	0,5	14,989200
2,275167	0,5	15,471650
2,283500	0,5	16,346850
2,291833	0,5	18,076800
2,300167	0,5	21,244750
2,308500	0,5	25,930400
2,316833	0,5	30,932700
2,325167	0,5	34,375701
2,333500	0,5	35,212451
2,341833	0,5	33,817951
2,350167	0,5	31,570000
2,358500	0,5	30,029450
2,366833	0,5	30,140400
2,375167	0,5	32,116350
2,383500	0,5	36,362351
2,391833	0,5	44,920651
2,400167	0,5	60,612751
2,408500	0,5	81,988701
2,416833	0,5	99,961701
2,425167	0,5	104,988952
2,433500	0,5	96,141201
2,441833	0,5	79,993351
2,450167	0,5	63,922551
2,458500	0,5	52,159401
2,466833	0,5	46,046651
2,475167	0,5	45,245801
2,483500	0,5	48,339451
2,491833	0,5	53,221051
2,500167	0,5	57,538401
2,508500	0,5	58,978101
2,516833	0,5	56,174651
2,525167	0,5	49,707951
2,533500	0,5	41,712251
2,541833	0,5	34,298201
2,550167	0,5	28,566700
2,558500	0,5	24,593850
2,566833	0,5	21,976150
2,575167	0,5	20,260500
2,583500	0,5	19,136700
2,591833	0,5	18,462750
2,600167	0,5	18,183800
2,608500	0,5	18,297350
2,616833	0,5	18,580150
2,625167	0,5	18,735650
2,633500	0,5	18,492300
2,641833	0,5	17,809300
2,650167	0,5	16,916600
2,658500	0,5	16,069300
2,666833	0,5	15,427800
2,675167	0,5	15,052350
2,683500	0,5	14,891200
2,691833	0,5	14,968950
2,700167	0,5	15,384200
2,708500	0,5	16,428550
2,716833	0,5	18,359800
2,725167	0,5	21,059150
2,733500	0,5	23,664750
2,741833	0,5	24,999350
2,750167	0,5	24,452600
2,758500	0,5	22,376600
2,766833	0,5	19,637450
2,775167	0,5	17,124950
2,783500	0,5	15,230550
2,791833	0,5	13,949700
2,800167	0,5	13,138500
2,808500	0,5	12,600400
2,816833	0,5	12,263300
2,825167	0,5	12,029700
2,833500	0,5	11,861950
2,841833	0,5	11,685550
2,850167	0,5	11,489550
2,858500	0,5	11,268500
2,866833	0,5	11,034600
2,875167	0,5	10,788150
2,883500	0,5	10,545350
2,891833	0,5	10,308750
2,900167	0,5	10,087450
2,908500	0,5	9,898100
2,916833	0,5	9,695400
2,925167	0,5	9,522450
2,933500	0,5	9,369400
2,941833	0,5	9,241950
2,950167	0,5	9,131450
2,958500	0,5	9,018800
2,966833	0,5	8,902650
2,975167	0,5	8,809000
2,983500	0,5	8,708250
2,991833	0,5	8,601900
3,000167	0,5	8,475400
3,008500	0,5	8,332700
3,016833	0,5	8,177050
3,025167	0,5	8,027650
3,033500	0,5	7,889350
3,041833	0,5	7,748550
3,050167	0,5	7,625750
3,058500	0,5	7,523350
3,066833	0,5	7,410750
3,075167	0,5	7,315550
3,083500	0,5	7,231750
3,091833	0,5	7,154050
3,100167	0,5	7,074600
3,108500	0,5	6,962200
3,116833	0,5	6,843150
3,125167	0,5	6,717850
3,133500	0,5	6,595250
3,141833	0,5	6,479800
3,150167	0,5	6,374650
3,158500	0,5	6,271050
3,166833	0,5	6,185700
3,175167	0,5	6,096450
3,183500	0,5	6,017000
3,191833	0,5	5,932000
3,200167	0,5	5,866100
3,208500	0,5	5,793550
3,216833	0,5	5,721650
3,225167	0,5	5,659500
3,233500	0,5	5,609750
3,241833	0,5	5,570300
3,250167	0,5	5,538400
3,258500	0,5	5,508500
3,266833	0,5	5,488550
3,275167	0,5	5,470300
3,283500	0,5	5,449950
3,291833	0,5	5,421100
3,300167	0,5	5,375400
3,308500	0,5	5,327650
3,316833	0,5	5,281300
3,325167	0,5	5,240150
3,333500	0,5	5,190800
3,341833	0,5	5,172700
3,350167	0,5	5,190500
3,358500	0,5	5,240650
3,366833	0,5	5,352050
3,375167	0,5	5,538650
3,383500	0,5	5,798300
3,391833	0,5	6,100900
3,400167	0,5	6,377900
3,408500	0,5	6,589150
3,416833	0,5	6,679000
3,425167	0,5	6,643150
3,433500	0,5	6,509000
3,441833	0,5	6,334700
3,450167	0,5	6,160850
3,458500	0,5	6,018700
3,466833	0,5	5,910300
3,475167	0,5	5,796300
3,483500	0,5	5,654850
3,491833	0,5	5,476150
3,500167	0,5	5,262400
3,508500	0,5	5,019050
3,516833	0,5	4,793000
3,525167	0,5	4,601250
3,533500	0,5	4,455000
3,541833	0,5	4,348800
3,550167	0,5	4,272400
3,558500	0,5	4,215400
3,566833	0,5	4,179800
3,575167	0,5	4,145150
3,583500	0,5	4,114650
3,591833	0,5	4,080300
3,600167	0,5	4,057650
3,608500	0,5	4,035500
3,616833	0,5	4,018250
3,625167	0,5	4,002250
3,633500	0,5	3,986650
3,641833	0,5	3,987950
3,650167	0,5	3,983650
3,658500	0,5	3,968500
3,666833	0,5	3,963150
3,675167	0,5	3,963150
3,683500	0,5	3,967500
3,691833	0,5	3,971200
3,700167	0,5	3,962650
3,708500	0,5	3,961150
3,716833	0,5	3,944750
3,725167	0,5	3,936950
3,733500	0,5	3,919800
3,741833	0,5	3,905000
3,750167	0,5	3,884600
3,758500	0,5	3,880650
3,766833	0,5	3,881800
3,775167	0,5	3,885000
3,783500	0,5	3,906750
3,791833	0,5	3,963100
3,800167	0,5	4,009100
3,808500	0,5	4,065550
3,816833	0,5	4,124300
3,825167	0,5	4,165900
3,833500	0,5	4,205600
3,841833	0,5	4,192300
3,850167	0,5	4,164050
3,858500	0,5	4,110550
3,866833	0,5	4,058000
3,875167	0,5	3,998950
3,883500	0,5	3,947900
3,891833	0,5	3,889200
3,900167	0,5	3,844150
3,908500	0,5	3,772550
3,916833	0,5	3,691350
3,925167	0,5	3,580600
3,933500	0,5	3,466100
3,941833	0,5	3,367100
3,950167	0,5	3,263850
3,958500	0,5	3,195550
3,966833	0,5	3,145550
3,975167	0,5	3,114800
3,983500	0,5	3,099400
3,991833	0,5	3,079350
4,000167	0,5	3,065450
4,008500	0,5	3,051250
4,016833	0,5	3,035200
4,025167	0,5	3,018850
4,033500	0,5	2,997700
4,041833	0,5	2,997550
4,050167	0,5	2,961500
4,058500	0,5	2,949400
4,066833	0,5	2,933350
4,075167	0,5	2,920100
4,083500	0,5	2,910800
4,091833	0,5	2,915950
4,100167	0,5	2,901400
4,108500	0,5	2,912100
4,116833	0,5	2,920700
4,125167	0,5	2,941650
4,133500	0,5	2,959500
4,141833	0,5	2,970150
4,150167	0,5	2,979300
4,158500	0,5	2,987250
4,166833	0,5	2,989400
4,175167	0,5	2,986300
4,183500	0,5	2,979350
4,191833	0,5	2,964850
4,200167	0,5	2,950000
4,208500	0,5	2,932350
4,216833	0,5	2,920900
4,225167	0,5	2,905400
4,233500	0,5	2,905300
4,241833	0,5	2,897700
4,250167	0,5	2,886500
4,258500	0,5	2,883700
4,266833	0,5	2,884350
4,275167	0,5	2,878600
4,283500	0,5	2,871350
4,291833	0,5	2,851550
4,300167	0,5	2,831100
4,308500	0,5	2,808950
4,316833	0,5	2,790750
4,325167	0,5	2,774500
4,333500	0,5	2,758050
4,341833	0,5	2,748700
4,350167	0,5	2,741300
4,358500	0,5	2,738150
4,366833	0,5	2,728550
4,375167	0,5	2,730650
4,383500	0,5	2,737650
4,391833	0,5	2,731900
4,400167	0,5	2,722300
4,408500	0,5	2,715950
4,416833	0,5	2,710600
4,425167	0,5	2,706750
4,433500	0,5	2,689700
4,441833	0,5	2,675650
4,450167	0,5	2,655000
4,458500	0,5	2,639450
4,466833	0,5	2,619850
4,475167	0,5	2,611850
4,483500	0,5	2,598500
4,491833	0,5	2,589200
4,500167	0,5	2,580950
4,508500	0,5	2,564950
4,516833	0,5	2,551450
4,525167	0,5	2,550450
4,533500	0,5	2,541850
4,541833	0,5	2,529450
4,550167	0,5	2,524550
4,558500	0,5	2,519750
4,566833	0,5	2,528650
4,575167	0,5	2,528850
4,583500	0,5	2,532350
4,591833	0,5	2,519300
4,600167	0,5	2,515350
4,608500	0,5	2,507250
4,616833	0,5	2,500050
4,625167	0,5	2,489200
4,633500	0,5	2,477450
4,641833	0,5	2,461500
4,650167	0,5	2,450950
4,658500	0,5	2,438750
4,666833	0,5	2,426250
4,675167	0,5	2,425400
4,683500	0,5	2,414350
4,691833	0,5	2,401200
4,700167	0,5	2,395350
4,708500	0,5	2,391450
4,716833	0,5	2,407900
4,725167	0,5	2,423850
4,733500	0,5	2,443800
4,741833	0,5	2,474800
4,750167	0,5	2,517750
4,758500	0,5	2,563500
4,766833	0,5	2,615150
4,775167	0,5	2,663650
4,783500	0,5	2,701000
4,791833	0,5	2,731500
4,800167	0,5	2,739900
4,808500	0,5	2,731150
4,816833	0,5	2,706700
4,825167	0,5	2,689800
4,833500	0,5	2,646600
4,841833	0,5	2,608100
4,850167	0,5	2,582800
4,858500	0,5	2,569400
4,866833	0,5	2,588500
4,875167	0,5	2,609600
4,883500	0,5	2,662150
4,891833	0,5	2,752000
4,900167	0,5	2,889350
4,908500	0,5	3,081950
4,916833	0,5	3,344150
4,925167	0,5	3,677300
4,933500	0,5	4,085500
4,941833	0,5	4,530850
4,950167	0,5	4,988050
4,958500	0,5	5,399500
4,966833	0,5	5,737750
4,975167	0,5	5,959900
4,983500	0,5	6,013250
4,991833	0,5	5,916450
5,000167	0,5	5,694550
5,008500	0,5	5,367050
5,016833	0,5	4,989400
5,025167	0,5	4,566850
5,033500	0,5	4,163500
5,041833	0,5	3,791450
5,050167	0,5	3,467900
5,058500	0,5	3,192600
5,066833	0,5	2,973100
5,075167	0,5	2,794000
5,083500	0,5	2,649600
5,091833	0,5	2,540900
5,100167	0,5	2,451450
5,108500	0,5	2,386350
5,116833	0,5	2,332150
5,125167	0,5	2,291800
5,133500	0,5	2,249650
5,141833	0,5	2,223500
5,150167	0,5	2,200150
5,158500	0,5	2,190000
5,166833	0,5	2,184700
5,175167	0,5	2,177600
5,183500	0,5	2,163250
5,191833	0,5	2,160150
5,200167	0,5	2,150250
5,208500	0,5	2,149750
5,216833	0,5	2,144350
5,225167	0,5	2,139450
5,233500	0,5	2,136100
5,241833	0,5	2,134100
5,250167	0,5	2,125000
5,258500	0,5	2,115050
5,266833	0,5	2,112800
5,275167	0,5	2,099900
5,283500	0,5	2,086000
5,291833	0,5	2,078450
5,300167	0,5	2,076300
5,308500	0,5	2,079800
5,316833	0,5	2,088550
5,325167	0,5	2,092050
5,333500	0,5	2,104900
5,341833	0,5	2,120000
5,350167	0,5	2,141300
5,358500	0,5	2,161200
5,366833	0,5	2,190100
5,375167	0,5	2,218250
5,383500	0,5	2,254650
5,391833	0,5	2,294650
5,400167	0,5	2,331950
5,408500	0,5	2,371600
5,416833	0,5	2,421200
5,425167	0,5	2,447550
5,433500	0,5	2,481050
5,441833	0,5	2,503950
5,450167	0,5	2,520450
5,458500	0,5	2,533400
5,466833	0,5	2,520200
5,475167	0,5	2,493700
5,483500	0,5	2,450300
5,491833	0,5	2,403350
5,500167	0,5	2,339750
5,508500	0,5	2,277450
5,516833	0,5	2,206500
5,525167	0,5	2,139800
5,533500	0,5	2,076200
5,541833	0,5	2,017950
5,550167	0,5	1,962650
5,558500	0,5	1,928000
5,566833	0,5	1,888650
5,575167	0,5	1,859350
5,583500	0,5	1,838200
5,591833	0,5	1,829000
5,600167	0,5	1,830400
5,608500	0,5	1,826250
5,616833	0,5	1,831100
5,625167	0,5	1,829250
5,633500	0,5	1,834100
5,641833	0,5	1,840900
5,650167	0,5	1,856500
5,658500	0,5	1,868000
5,666833	0,5	1,883350
5,675167	0,5	1,901500
5,683500	0,5	1,920400
5,691833	0,5	1,934350
5,700167	0,5	1,949400
5,708500	0,5	1,964500
5,716833	0,5	1,965650
5,725167	0,5	1,960100
5,733500	0,5	1,954650
5,741833	0,5	1,941800
5,750167	0,5	1,931000
5,758500	0,5	1,909500
5,766833	0,5	1,881800
5,775167	0,5	1,856900
5,783500	0,5	1,837150
5,791833	0,5	1,811450
5,800167	0,5	1,789700
5,808500	0,5	1,768350
5,816833	0,5	1,748200
5,825167	0,5	1,731900
5,833500	0,5	1,715900
5,841833	0,5	1,694450
5,850167	0,5	1,673550
5,858500	0,5	1,665350
5,866833	0,5	1,639450
5,875167	0,5	1,624650
5,883500	0,5	1,606500
5,891833	0,5	1,600600
5,900167	0,5	1,596600
5,908500	0,5	1,589850
5,916833	0,5	1,573800
5,925167	0,5	1,576950
5,933500	0,5	1,570550
5,941833	0,5	1,567350
5,950167	0,5	1,561800
5,958500	0,5	1,560550
5,966833	0,5	1,555100
5,975167	0,5	1,552500
5,983500	0,5	1,546800
5,991833	0,5	1,543450
6,000167	0,5	1,535900
6,008500	0,5	1,533550
6,016833	0,5	1,520550
6,025167	0,5	1,514350
6,033500	0,5	1,510150
6,041833	0,5	1,505000
6,050167	0,5	1,505500
6,058500	0,5	1,493250
6,066833	0,5	1,490900
6,075167	0,5	1,484850
6,083500	0,5	1,482950
6,091833	0,5	1,480100
6,100167	0,5	1,482150
6,108500	0,5	1,477400
6,116833	0,5	1,475800
6,125167	0,5	1,477150
6,133500	0,5	1,474050
6,141833	0,5	1,475700
6,150167	0,5	1,478550
6,158500	0,5	1,483100
6,166833	0,5	1,480700
6,175167	0,5	1,489650
6,183500	0,5	1,503350
6,191833	0,5	1,530850
6,200167	0,5	1,563100
6,208500	0,5	1,594400
6,216833	0,5	1,624250
6,225167	0,5	1,656300
6,233500	0,5	1,674400
6,241833	0,5	1,687650
6,250167	0,5	1,681100
6,258500	0,5	1,666200
6,266833	0,5	1,635050
6,275167	0,5	1,608500
6,283500	0,5	1,573150
6,291833	0,5	1,551050
6,300167	0,5	1,533050
6,308500	0,5	1,526900
6,316833	0,5	1,517700
6,325167	0,5	1,519250
6,333500	0,5	1,531450
6,341833	0,5	1,546850
6,350167	0,5	1,560400
6,358500	0,5	1,561400
6,366833	0,5	1,564800
6,375167	0,5	1,570050
6,383500	0,5	1,574400
6,391833	0,5	1,581700
6,400167	0,5	1,594450
6,408500	0,5	1,609300
6,416833	0,5	1,639900
6,425167	0,5	1,677500
6,433500	0,5	1,730400
6,441833	0,5	1,796650
6,450167	0,5	1,884500
6,458500	0,5	1,983950
6,466833	0,5	2,103400
6,475167	0,5	2,234450
6,483500	0,5	2,373300
6,491833	0,5	2,492900
6,500167	0,5	2,582350
6,508500	0,5	2,625700
6,516833	0,5	2,613600
6,525167	0,5	2,552600
6,533500	0,5	2,447450
6,541833	0,5	2,309100
6,550167	0,5	2,154850
6,558500	0,5	2,002250
6,566833	0,5	1,861300
6,575167	0,5	1,739800
6,583500	0,5	1,643200
6,591833	0,5	1,575650
6,600167	0,5	1,522350
6,608500	0,5	1,485250
6,616833	0,5	1,456500
6,625167	0,5	1,444750
6,633500	0,5	1,444650
6,641833	0,5	1,443200
6,650167	0,5	1,437850
6,658500	0,5	1,437050
6,666833	0,5	1,435900
6,675167	0,5	1,437700
6,683500	0,5	1,439600
6,691833	0,5	1,437500
6,700167	0,5	1,436100
6,708500	0,5	1,435300
6,716833	0,5	1,437450
6,725167	0,5	1,433650
6,733500	0,5	1,429000
6,741833	0,5	1,432150
6,750167	0,5	1,425750
6,758500	0,5	1,414450
6,766833	0,5	1,405600
6,775167	0,5	1,402100
6,783500	0,5	1,402700
6,791833	0,5	1,397250
6,800167	0,5	1,395500
6,808500	0,5	1,388000
6,816833	0,5	1,388600
6,825167	0,5	1,382900
6,833500	0,5	1,384650
6,841833	0,5	1,381650
6,850167	0,5	1,379000
6,858500	0,5	1,376500
6,866833	0,5	1,381050
6,875167	0,5	1,383600
6,883500	0,5	1,382400
6,891833	0,5	1,388300
6,900167	0,5	1,383000
6,908500	0,5	1,381100
6,916833	0,5	1,380500
6,925167	0,5	1,384200
6,933500	0,5	1,391800
6,941833	0,5	1,392050
6,950167	0,5	1,390500
6,958500	0,5	1,392350
6,966833	0,5	1,393500
6,975167	0,5	1,398900
6,983500	0,5	1,395350
6,991833	0,5	1,399200
7,000167	0,5	1,397900
7,008500	0,5	1,394800
7,016833	0,5	1,391550
7,025167	0,5	1,387750
7,033500	0,5	1,379400
7,041833	0,5	1,383900
7,050167	0,5	1,375100
7,058500	0,5	1,378050
7,066833	0,5	1,385400
7,075167	0,5	1,397850
7,083500	0,5	1,413050
7,091833	0,5	1,421000
7,100167	0,5	1,428950
7,108500	0,5	1,431250
7,116833	0,5	1,424550
7,125167	0,5	1,419900
7,133500	0,5	1,417900
7,141833	0,5	1,413200
7,150167	0,5	1,417200
7,158500	0,5	1,422850
7,166833	0,5	1,428050
7,175167	0,5	1,433350
7,183500	0,5	1,438950
7,191833	0,5	1,444550
7,200167	0,5	1,443800
7,208500	0,5	1,445000
7,216833	0,5	1,443400
7,225167	0,5	1,443400
7,233500	0,5	1,442850
7,241833	0,5	1,438050
7,250167	0,5	1,436550
7,258500	0,5	1,434200
7,266833	0,5	1,437100
7,275167	0,5	1,448800
7,283500	0,5	1,454800
7,291833	0,5	1,477850
7,300167	0,5	1,506350
7,308500	0,5	1,543650
7,316833	0,5	1,580650
7,325167	0,5	1,625350
7,333500	0,5	1,660050
7,341833	0,5	1,681150
7,350167	0,5	1,683300
7,358500	0,5	1,667200
7,366833	0,5	1,642350
7,375167	0,5	1,607500
7,383500	0,5	1,567700
7,391833	0,5	1,535150
7,400167	0,5	1,501750
7,408500	0,5	1,476650
7,416833	0,5	1,461450
7,425167	0,5	1,445450
7,433500	0,5	1,437950
7,441833	0,5	1,432550
7,450167	0,5	1,430850
7,458500	0,5	1,430800
7,466833	0,5	1,434050
7,475167	0,5	1,439350
7,483500	0,5	1,449300
7,491833	0,5	1,456100
7,500167	0,5	1,462850
7,508500	0,5	1,475200
7,516833	0,5	1,485450
7,525167	0,5	1,502200
7,533500	0,5	1,520800
7,541833	0,5	1,538700
7,550167	0,5	1,563250
7,558500	0,5	1,594550
7,566833	0,5	1,634600
7,575167	0,5	1,686250
7,583500	0,5	1,755250
7,591833	0,5	1,843400
7,600167	0,5	1,966500
7,608500	0,5	2,123350
7,616833	0,5	2,309350
7,625167	0,5	2,539250
7,633500	0,5	2,800550
7,641833	0,5	3,082500
7,650167	0,5	3,359050
7,658500	0,5	3,618300
7,666833	0,5	3,828500
7,675167	0,5	3,952100
7,683500	0,5	3,984800
7,691833	0,5	3,916050
7,700167	0,5	3,758550
7,708500	0,5	3,527250
7,716833	0,5	3,250500
7,725167	0,5	2,959100
7,733500	0,5	2,675150
7,741833	0,5	2,422150
7,750167	0,5	2,205200
7,758500	0,5	2,030000
7,766833	0,5	1,896400
7,775167	0,5	1,810600
7,783500	0,5	1,754950
7,791833	0,5	1,729150
7,800167	0,5	1,731300
7,808500	0,5	1,764350
7,816833	0,5	1,830150
7,825167	0,5	1,914900
7,833500	0,5	2,021850
7,841833	0,5	2,132100
7,850167	0,5	2,239350
7,858500	0,5	2,315850
7,866833	0,5	2,354450
7,875167	0,5	2,343650
7,883500	0,5	2,291850
7,891833	0,5	2,210000
7,900167	0,5	2,109750
7,908500	0,5	2,008150
7,916833	0,5	1,919450
7,925167	0,5	1,843050
7,933500	0,5	1,782550
7,941833	0,5	1,741200
7,950167	0,5	1,712800
7,958500	0,5	1,696250
7,966833	0,5	1,697000
7,975167	0,5	1,695600
7,983500	0,5	1,703100
7,991833	0,5	1,711200
8,000167	0,5	1,721600
8,008500	0,5	1,733200
8,016833	0,5	1,746050
8,025167	0,5	1,760250
8,033500	0,5	1,772350
8,041833	0,5	1,781300
8,050167	0,5	1,793350
8,058500	0,5	1,804450
8,066833	0,5	1,813500
8,075167	0,5	1,830650
8,083500	0,5	1,852950
8,091833	0,5	1,882100
8,100167	0,5	1,919150
8,108500	0,5	1,943950
8,116833	0,5	1,951750
8,125167	0,5	1,928600
8,133500	0,5	1,873850
8,141833	0,5	1,804200
8,150167	0,5	1,737000
8,158500	0,5	1,675900
8,166833	0,5	1,634150
8,175167	0,5	1,610350
8,183500	0,5	1,597600
8,191833	0,5	1,598050
8,200167	0,5	1,609500
8,208500	0,5	1,628200
8,216833	0,5	1,656350
8,225167	0,5	1,695250
8,233500	0,5	1,741100
8,241833	0,5	1,800750
8,250167	0,5	1,876100
8,258500	0,5	1,963650
8,266833	0,5	2,064900
8,275167	0,5	2,178550
8,283500	0,5	2,308800
8,291833	0,5	2,469200
8,300167	0,5	2,664950
8,308500	0,5	2,913450
8,316833	0,5	3,223000
8,325167	0,5	3,612150
8,333500	0,5	4,094400
8,341833	0,5	4,659650
8,350167	0,5	5,289850
8,358500	0,5	5,947650
8,366833	0,5	6,567100
8,375167	0,5	7,095250
8,383500	0,5	7,472500
8,391833	0,5	7,677850
8,400167	0,5	7,701850
8,408500	0,5	7,540500
8,416833	0,5	7,192600
8,425167	0,5	6,658200
8,433500	0,5	5,966850
8,441833	0,5	5,169300
8,450167	0,5	4,357450
8,458500	0,5	3,618450
8,466833	0,5	3,001200
8,475167	0,5	2,527450
8,483500	0,5	2,189550
8,491833	0,5	1,962300
8,500167	0,5	1,811350
8,508500	0,5	1,716750
8,516833	0,5	1,660850
8,525167	0,5	1,624550
8,533500	0,5	1,605100
8,541833	0,5	1,595950
8,550167	0,5	1,592550
8,558500	0,5	1,589950
8,566833	0,5	1,583300
8,575167	0,5	1,572000
8,583500	0,5	1,565300
8,591833	0,5	1,566900
8,600167	0,5	1,595150
8,608500	0,5	1,635300
8,616833	0,5	1,680900
8,625167	0,5	1,716150
8,633500	0,5	1,723550
8,641833	0,5	1,688900
8,650167	0,5	1,624350
8,658500	0,5	1,552750
8,666833	0,5	1,484450
8,675167	0,5	1,429150
8,683500	0,5	1,392850
8,691833	0,5	1,371650
8,700167	0,5	1,356900
8,708500	0,5	1,354900
8,716833	0,5	1,353750
8,725167	0,5	1,347850
8,733500	0,5	1,346250
8,741833	0,5	1,346050
8,750167	0,5	1,349700
8,758500	0,5	1,348650
8,766833	0,5	1,349400
8,775167	0,5	1,354850
8,783500	0,5	1,363900
8,791833	0,5	1,378400
8,800167	0,5	1,403100
8,808500	0,5	1,443600
8,816833	0,5	1,498550
8,825167	0,5	1,566500
8,833500	0,5	1,639750
8,841833	0,5	1,703950
8,850167	0,5	1,754700
8,858500	0,5	1,779750
8,866833	0,5	1,780950
8,875167	0,5	1,764950
8,883500	0,5	1,740350
8,891833	0,5	1,712050
8,900167	0,5	1,687450
8,908500	0,5	1,660300
8,916833	0,5	1,635600
8,925167	0,5	1,604100
8,933500	0,5	1,571700
8,941833	0,5	1,537500
8,950167	0,5	1,497050
8,958500	0,5	1,464950
8,966833	0,5	1,434700
8,975167	0,5	1,417050
8,983500	0,5	1,406650
8,991833	0,5	1,414150
9,000167	0,5	1,446500
9,008500	0,5	1,497650
9,016833	0,5	1,573050
9,025167	0,5	1,646050
9,033500	0,5	1,703800
9,041833	0,5	1,728100
9,050167	0,5	1,717950
9,058500	0,5	1,676550
9,066833	0,5	1,614000
9,075167	0,5	1,555750
9,083500	0,5	1,499750
9,091833	0,5	1,455700
9,100167	0,5	1,424300
9,108500	0,5	1,403600
9,116833	0,5	1,393900
9,125167	0,5	1,394850
9,133500	0,5	1,405200
9,141833	0,5	1,427450
9,150167	0,5	1,454350
9,158500	0,5	1,478000
9,166833	0,5	1,484400
9,175167	0,5	1,476100
9,183500	0,5	1,456050
9,191833	0,5	1,427850
9,200167	0,5	1,394950
9,208500	0,5	1,364200
9,216833	0,5	1,336400
9,225167	0,5	1,312250
9,233500	0,5	1,301600
9,241833	0,5	1,289150
9,250167	0,5	1,282050
9,258500	0,5	1,278250
9,266833	0,5	1,273400
9,275167	0,5	1,269550
9,283500	0,5	1,263100
9,291833	0,5	1,265800
9,300167	0,5	1,272600
9,308500	0,5	1,278200
9,316833	0,5	1,287750
9,325167	0,5	1,303450
9,333500	0,5	1,328550
9,341833	0,5	1,364100
9,350167	0,5	1,419500
9,358500	0,5	1,491750
9,366833	0,5	1,578500
9,375167	0,5	1,657600
9,383500	0,5	1,719900
9,391833	0,5	1,743100
9,400167	0,5	1,738600
9,408500	0,5	1,698200
9,416833	0,5	1,635500
9,425167	0,5	1,565850
9,433500	0,5	1,497100
9,441833	0,5	1,433450
9,450167	0,5	1,378200
9,458500	0,5	1,337100
9,466833	0,5	1,295150
9,475167	0,5	1,271150
9,483500	0,5	1,248450
9,491833	0,5	1,235450
9,500167	0,5	1,226300
9,508500	0,5	1,221600
9,516833	0,5	1,221800
9,525167	0,5	1,223000
9,533500	0,5	1,229100
9,541833	0,5	1,235200
9,550167	0,5	1,247700
9,558500	0,5	1,257550
9,566833	0,5	1,265400
9,575167	0,5	1,279150
9,583500	0,5	1,302300
9,591833	0,5	1,326750
9,600167	0,5	1,351650
9,608500	0,5	1,367550
9,616833	0,5	1,371950
9,625167	0,5	1,363500
9,633500	0,5	1,343200
9,641833	0,5	1,323150
9,650167	0,5	1,306900
9,658500	0,5	1,304800
9,666833	0,5	1,321000
9,675167	0,5	1,341100
9,683500	0,5	1,359700
9,691833	0,5	1,365350
9,700167	0,5	1,362000
9,708500	0,5	1,345450
9,716833	0,5	1,329800
9,725167	0,5	1,321900
9,733500	0,5	1,334650
9,741833	0,5	1,368550
9,750167	0,5	1,428200
9,758500	0,5	1,513250
9,766833	0,5	1,621200
9,775167	0,5	1,744350
9,783500	0,5	1,877650
9,791833	0,5	2,025300
9,800167	0,5	2,203550
9,808500	0,5	2,420500
9,816833	0,5	2,691400
9,825167	0,5	3,000450
9,833500	0,5	3,298800
9,841833	0,5	3,548100
9,850167	0,5	3,710800
9,858500	0,5	3,767450
9,866833	0,5	3,723050
9,875167	0,5	3,594600
9,883500	0,5	3,412250
9,891833	0,5	3,199750
9,900167	0,5	2,970200
9,908500	0,5	2,735450
9,916833	0,5	2,513300
9,925167	0,5	2,312350
9,933500	0,5	2,126950
9,941833	0,5	1,973600
9,950167	0,5	1,845100
9,958500	0,5	1,739200
9,966833	0,5	1,654300
9,975167	0,5	1,584650
9,983500	0,5	1,520000
9,991833	0,5	1,462000
10,000167	0,5	1,407800
10,008500	0,5	1,352850
10,016833	0,5	1,301450
10,025167	0,5	1,261750
10,033500	0,5	1,239500
10,041833	0,5	1,237450
10,050167	0,5	1,257850
10,058500	0,5	1,291000
10,066833	0,5	1,351800
10,075167	0,5	1,416350
10,083500	0,5	1,489550
10,091833	0,5	1,539700
10,100167	0,5	1,566550
10,108500	0,5	1,567400
10,116833	0,5	1,548850
10,125167	0,5	1,518850
10,133500	0,5	1,488750
10,141833	0,5	1,457400
10,150167	0,5	1,429950
10,158500	0,5	1,398550
10,166833	0,5	1,367450
10,175167	0,5	1,346500
10,183500	0,5	1,336450
10,191833	0,5	1,334600
10,200167	0,5	1,347950
10,208500	0,5	1,377650
10,216833	0,5	1,421500
10,225167	0,5	1,477100
10,233500	0,5	1,537500
10,241833	0,5	1,600100
10,250167	0,5	1,648650
10,258500	0,5	1,685700
10,266833	0,5	1,717250
10,275167	0,5	1,754900
10,283500	0,5	1,801150
10,291833	0,5	1,862700
10,300167	0,5	1,914950
10,308500	0,5	1,939800
10,316833	0,5	1,909400
10,325167	0,5	1,826050
10,333500	0,5	1,729350
10,341833	0,5	1,637950
10,350167	0,5	1,578900
10,358500	0,5	1,565400
10,366833	0,5	1,608950
10,375167	0,5	1,743600
10,383500	0,5	2,042400
10,391833	0,5	2,601650
10,400167	0,5	3,232900
10,408500	0,5	3,613050
10,416833	0,5	3,621700
10,425167	0,5	3,332950
10,433500	0,5	2,700900
10,441833	0,5	1,867250
10,450167	0,5	1,180850
10,458500	0,5	0,783100
10,466833	0,5	0,566200
10,475167	0,5	0,448100
10,483500	0,5	0,371400
10,491833	0,5	0,321450
10,500167	0,5	0,291050
10,508500	0,5	0,266600
10,516833	0,5	0,244750
10,525167	0,5	0,224150
10,533500	0,5	0,200050
10,541833	0,5	0,177350
10,550167	0,5	0,149600
10,558500	0,5	0,126150
10,566833	0,5	0,099350
10,575167	0,5	0,068950
10,583500	0,5	0,049900
10,591833	0,5	0,028100
10,600167	0,5	0,006000
10,608500	0,5	-0,011650
10,616833	0,5	-0,033650
10,625167	0,5	-0,038550
10,633500	0,5	-0,045550
10,641833	0,5	-0,047450
10,650167	0,5	-0,051700
10,658500	0,5	-0,047900
10,666833	0,5	-0,041600
10,675167	0,5	-0,031050
10,683500	0,5	-0,020950
10,691833	0,5	-0,009500
10,700167	0,5	-0,000700
10,708500	0,5	0,009500
10,716833	0,5	0,012250
10,725167	0,5	0,006650
10,733500	0,5	0,002350
10,741833	0,5	-0,006700
10,750167	0,5	-0,019600
10,758500	0,5	-0,042950
10,766833	0,5	-0,061100
10,775167	0,5	-0,078150
10,783500	0,5	-0,097000
10,791833	0,5	-0,115700
10,800167	0,5	-0,132400
10,808500	0,5	-0,147000
10,816833	0,5	-0,159350
10,825167	0,5	-0,172100
10,833500	0,5	-0,178100
10,841833	0,5	-0,184700
10,850167	0,5	-0,191700
10,858500	0,5	-0,192200
10,866833	0,5	-0,192450
10,875167	0,5	-0,195400
10,883500	0,5	-0,190450
10,891833	0,5	-0,189550
10,900167	0,5	-0,193350
10,908500	0,5	-0,191900
10,916833	0,5	-0,191100
10,925167	0,5	-0,186700
10,933500	0,5	-0,183500
10,941833	0,5	-0,182100
10,950167	0,5	-0,182450
10,958500	0,5	-0,183100
10,966833	0,5	-0,181350
10,975167	0,5	-0,181050
10,983500	0,5	-0,180350
10,991833	0,5	-0,182300
11,000167	0,5	-0,182500
11,008500	0,5	-0,183850
11,016833	0,5	-0,186700
11,025167	0,5	-0,185000
11,033500	0,5	-0,186800
11,041833	0,5	-0,189450
11,050167	0,5	-0,192950
11,058500	0,5	-0,199500
11,066833	0,5	-0,201250
11,075167	0,5	-0,200600
11,083500	0,5	-0,203500
11,091833	0,5	-0,206600
11,100167	0,5	-0,209800
11,108500	0,5	-0,217650
11,116833	0,5	-0,221300
11,125167	0,5	-0,228100
11,133500	0,5	-0,232950
11,141833	0,5	-0,239600
11,150167	0,5	-0,243250
11,158500	0,5	-0,248450
11,166833	0,5	-0,250450
11,175167	0,5	-0,249550
11,183500	0,5	-0,251600
11,191833	0,5	-0,255950
11,200167	0,5	-0,261900
11,208500	0,5	-0,263800
11,216833	0,5	-0,264600
11,225167	0,5	-0,262850
11,233500	0,5	-0,264000
11,241833	0,5	-0,261750
11,250167	0,5	-0,264000
11,258500	0,5	-0,261150
11,266833	0,5	-0,260800
11,275167	0,5	-0,260050
11,283500	0,5	-0,258350
11,291833	0,5	-0,260000
11,300167	0,5	-0,257450
11,308500	0,5	-0,256500
11,316833	0,5	-0,258400
11,325167	0,5	-0,250450
11,333500	0,5	-0,248300
11,341833	0,5	-0,252350
11,350167	0,5	-0,253600
11,358500	0,5	-0,251850
11,366833	0,5	-0,247850
11,375167	0,5	-0,243250
11,383500	0,5	-0,241100
11,391833	0,5	-0,239150
11,400167	0,5	-0,234900
11,408500	0,5	-0,229300
11,416833	0,5	-0,226650
11,425167	0,5	-0,225650
11,433500	0,5	-0,222750
11,441833	0,5	-0,217850
11,450167	0,5	-0,212250
11,458500	0,5	-0,210850
11,466833	0,5	-0,204500
11,475167	0,5	-0,194100
11,483500	0,5	-0,189550
11,491833	0,5	-0,184450
11,500167	0,5	-0,179050
11,508500	0,5	-0,170800
11,516833	0,5	-0,156650
11,525167	0,5	-0,146500
11,533500	0,5	-0,136100
11,541833	0,5	-0,134450
11,550167	0,5	-0,123000
11,558500	0,5	-0,115300
11,566833	0,5	-0,107600
11,575167	0,5	-0,104650
11,583500	0,5	-0,098300
11,591833	0,5	-0,092400
11,600167	0,5	-0,093450
11,608500	0,5	-0,096250
11,616833	0,5	-0,092800
11,625167	0,5	-0,095350
11,633500	0,5	-0,099100
11,641833	0,5	-0,097850
11,650167	0,5	-0,110200
11,658500	0,5	-0,104700
11,666833	0,5	-0,109300
11,675167	0,5	-0,110850
11,683500	0,5	-0,115750
11,691833	0,5	-0,118650
11,700167	0,5	-0,125000
11,708500	0,5	-0,124750
11,716833	0,5	-0,129250
11,725167	0,5	-0,131450
11,733500	0,5	-0,134550
11,741833	0,5	-0,137900
11,750167	0,5	-0,142450
11,758500	0,5	-0,147650
11,766833	0,5	-0,142950
11,775167	0,5	-0,145400
11,783500	0,5	-0,148900
11,791833	0,5	-0,153050
11,800167	0,5	-0,154800
11,808500	0,5	-0,151050
11,816833	0,5	-0,149450
11,825167	0,5	-0,149250
11,833500	0,5	-0,148350
11,841833	0,5	-0,149650
11,850167	0,5	-0,144350
11,858500	0,5	-0,142350
11,866833	0,5	-0,140750
11,875167	0,5	-0,136100
11,883500	0,5	-0,134750
11,891833	0,5	-0,128250
11,900167	0,5	-0,123100
11,908500	0,5	-0,117550
11,916833	0,5	-0,110850
11,925167	0,5	-0,106300
11,933500	0,5	-0,099550
11,941833	0,5	-0,099100
11,950167	0,5	-0,085300
11,958500	0,5	-0,070900
11,966833	0,5	-0,062400
11,975167	0,5	-0,049200
11,983500	0,5	-0,041500
11,991833	0,5	-0,028100
12,000167	0,5	-0,015700
12,008500	0,5	-0,003000
12,016833	0,5	0,010600
12,025167	0,5	0,023750
12,033500	0,5	0,035600
12,041833	0,5	0,051500
12,050167	0,5	0,055850
12,058500	0,5	0,074600
12,066833	0,5	0,091400
12,075167	0,5	0,103050
12,083500	0,5	0,112700
12,091833	0,5	0,127350
12,100167	0,5	0,144000
12,108500	0,5	0,167500
12,116833	0,5	0,188000
12,125167	0,5	0,209700
12,133500	0,5	0,232850
12,141833	0,5	0,257050
12,150167	0,5	0,285950
12,158500	0,5	0,316100
12,166833	0,5	0,344500
12,175167	0,5	0,376350
12,183500	0,5	0,415800
12,191833	0,5	0,445050
12,200167	0,5	0,479300
12,208500	0,5	0,522800
12,216833	0,5	0,563350
12,225167	0,5	0,604450
12,233500	0,5	0,642800
12,241833	0,5	0,689700
12,250167	0,5	0,741700
12,258500	0,5	0,784650
12,266833	0,5	0,826650
12,275167	0,5	0,859150
12,283500	0,5	0,889500
12,291833	0,5	0,907850
12,300167	0,5	0,922250
12,308500	0,5	0,927350
12,316833	0,5	0,925200
12,325167	0,5	0,925350
12,333500	0,5	0,919750
12,341833	0,5	0,915550
12,350167	0,5	0,918300
12,358500	0,5	0,918200
12,366833	0,5	0,920800
12,375167	0,5	0,921700
12,383500	0,5	0,919900
12,391833	0,5	0,922000
12,400167	0,5	0,928450
12,408500	0,5	0,939250
12,416833	0,5	0,942550
12,425167	0,5	0,946500
12,433500	0,5	0,955500
12,441833	0,5	0,965650
12,450167	0,5	0,975600
12,458500	0,5	0,986400
12,466833	0,5	0,997700
12,475167	0,5	1,006350
12,483500	0,5	1,019450
12,491833	0,5	1,025350
12,500167	0,5	1,040600
12,508500	0,5	1,047350
12,516833	0,5	1,054600
12,525167	0,5	1,057200
12,533500	0,5	1,060200
12,541833	0,5	1,072000
12,550167	0,5	1,081650
12,558500	0,5	1,092850
12,566833	0,5	1,109200
12,575167	0,5	1,127600
12,583500	0,5	1,149100
12,591833	0,5	1,172050
12,600167	0,5	1,194650
12,608500	0,5	1,214200
12,616833	0,5	1,228850
12,625167	0,5	1,238900
12,633500	0,5	1,239350
12,641833	0,5	1,231200
12,650167	0,5	1,231550
12,658500	0,5	1,221250
12,666833	0,5	1,210250
12,675167	0,5	1,200400
12,683500	0,5	1,187450
12,691833	0,5	1,188200
12,700167	0,5	1,185500
12,708500	0,5	1,184500
12,716833	0,5	1,185800
12,725167	0,5	1,184400
12,733500	0,5	1,188500
12,741833	0,5	1,199100
12,750167	0,5	1,208050
12,758500	0,5	1,216050
12,766833	0,5	1,227150
12,775167	0,5	1,236600
12,783500	0,5	1,244800
12,791833	0,5	1,245800
12,800167	0,5	1,251300
12,808500	0,5	1,249350
12,816833	0,5	1,246700
12,825167	0,5	1,242150
12,833500	0,5	1,245350
12,841833	0,5	1,262500
12,850167	0,5	1,272950
12,858500	0,5	1,278050
12,866833	0,5	1,289550
12,875167	0,5	1,291350
12,883500	0,5	1,294750
12,891833	0,5	1,288400
12,900167	0,5	1,281550
12,908500	0,5	1,269550
12,916833	0,5	1,265650
12,925167	0,5	1,256250
12,933500	0,5	1,251650
12,941833	0,5	1,248250
12,950167	0,5	1,248250
12,958500	0,5	1,244700
12,966833	0,5	1,242950
12,975167	0,5	1,237750
12,983500	0,5	1,238750
12,991833	0,5	1,246700
13,000167	0,5	1,249150
13,008500	0,5	1,251150
13,016833	0,5	1,250600
13,025167	0,5	1,247550
13,033500	0,5	1,249700
13,041833	0,5	1,255400
13,050167	0,5	1,253150
13,058500	0,5	1,256050
13,066833	0,5	1,261400
13,075167	0,5	1,268600
13,083500	0,5	1,263400
13,091833	0,5	1,270250
13,100167	0,5	1,266300
13,108500	0,5	1,260550
13,116833	0,5	1,246000
13,125167	0,5	1,234750
13,133500	0,5	1,227800
13,141833	0,5	1,229600
13,150167	0,5	1,223850
13,158500	0,5	1,220700
13,166833	0,5	1,217750
13,175167	0,5	1,219200
13,183500	0,5	1,217750
13,191833	0,5	1,215750
13,200167	0,5	1,214250
13,208500	0,5	1,211750
13,216833	0,5	1,215850
13,225167	0,5	1,213250
13,233500	0,5	1,212200
13,241833	0,5	1,214200
13,250167	0,5	1,213050
13,258500	0,5	1,208550
13,266833	0,5	1,198750
13,275167	0,5	1,196000
13,283500	0,5	1,201300
13,291833	0,5	1,200000
13,300167	0,5	1,204150
13,308500	0,5	1,201750
13,316833	0,5	1,200800
13,325167	0,5	1,201100
13,333500	0,5	1,199550
13,341833	0,5	1,200800
13,350167	0,5	1,196750
13,358500	0,5	1,194550
13,366833	0,5	1,195150
13,375167	0,5	1,182700
13,383500	0,5	1,182050
13,391833	0,5	1,180950
13,400167	0,5	1,175500
13,408500	0,5	1,172400
13,416833	0,5	1,162500
13,425167	0,5	1,169950
13,433500	0,5	1,173350
13,441833	0,5	1,177450
13,450167	0,5	1,178600
13,458500	0,5	1,183100
13,466833	0,5	1,184800
13,475167	0,5	1,181900
13,483500	0,5	1,181950
13,491833	0,5	1,177800
13,500167	0,5	1,172850
13,508500	0,5	1,165850
13,516833	0,5	1,157350
13,525167	0,5	1,146300
13,533500	0,5	1,154800
13,541833	0,5	1,152350
13,550167	0,5	1,151600
13,558500	0,5	1,150550
13,566833	0,5	1,151150
13,575167	0,5	1,158000
13,583500	0,5	1,167750
13,591833	0,5	1,165100
13,600167	0,5	1,169500
13,608500	0,5	1,154300
13,616833	0,5	1,148300
13,625167	0,5	1,140900
13,633500	0,5	1,137350
13,641833	0,5	1,132650
13,650167	0,5	1,129800
13,658500	0,5	1,136100
13,666833	0,5	1,134050
13,675167	0,5	1,131500
13,683500	0,5	1,129800
13,691833	0,5	1,125100
13,700167	0,5	1,109450
13,708500	0,5	1,097750
13,716833	0,5	1,092700
13,725167	0,5	1,105350
13,733500	0,5	1,114600
13,741833	0,5	1,134400
13,750167	0,5	1,153500
13,758500	0,5	1,173050
13,766833	0,5	1,178150
13,775167	0,5	1,176300
13,783500	0,5	1,161100
13,791833	0,5	1,138450
13,800167	0,5	1,113700
13,808500	0,5	1,095500
13,816833	0,5	1,072750
13,825167	0,5	1,074300
13,833500	0,5	1,085550
13,841833	0,5	1,098550
13,850167	0,5	1,107800
13,858500	0,5	1,116450
13,866833	0,5	1,125150
13,875167	0,5	1,138550
13,883500	0,5	1,151250
13,891833	0,5	1,168800
13,900167	0,5	1,199800
13,908500	0,5	1,233600
13,916833	0,5	1,270050
13,925167	0,5	1,287000
13,933500	0,5	1,289200
13,941833	0,5	1,259900
13,950167	0,5	1,219400
13,958500	0,5	1,169400
13,966833	0,5	1,123150
13,975167	0,5	1,091100
13,983500	0,5	1,068300
13,991833	0,5	1,056700
14,000167	0,5	1,057300
14,008500	0,5	1,064150
14,016833	0,5	1,089450
14,025167	0,5	1,120300
14,033500	0,5	1,155600
14,041833	0,5	1,189300
14,050167	0,5	1,227800
14,058500	0,5	1,260500
14,066833	0,5	1,277100
14,075167	0,5	1,272550
14,083500	0,5	1,242450
14,091833	0,5	1,196500
14,100167	0,5	1,137050
14,108500	0,5	1,088100
14,116833	0,5	1,041000
14,125167	0,5	1,023450
14,133500	0,5	1,013750
14,141833	0,5	1,020400
14,150167	0,5	1,035850
14,158500	0,5	1,062450
14,166833	0,5	1,109000
14,175167	0,5	1,148200
14,183500	0,5	1,179850
14,191833	0,5	1,197000
14,200167	0,5	1,195450
14,208500	0,5	1,177550
14,216833	0,5	1,146400
14,225167	0,5	1,102050
14,233500	0,5	1,057600
14,241833	0,5	1,015350
14,250167	0,5	0,985900
14,258500	0,5	0,955900
14,266833	0,5	0,956350
14,275167	0,5	0,962900
14,283500	0,5	0,977850
14,291833	0,5	0,994100
14,300167	0,5	1,008250
14,308500	0,5	1,022200
14,316833	0,5	1,031650
14,325167	0,5	1,026050
14,333500	0,5	1,017000
14,341833	0,5	0,986200
14,350167	0,5	0,960350
14,358500	0,5	0,932350
14,366833	0,5	0,915300
14,375167	0,5	0,907450
14,383500	0,5	0,911350
14,391833	0,5	0,930300
14,400167	0,5	0,944000
14,408500	0,5	0,955550
14,416833	0,5	0,978850
14,425167	0,5	0,988850
14,433500	0,5	0,980100
14,441833	0,5	0,965600
14,450167	0,5	0,935650
14,458500	0,5	0,914300
14,466833	0,5	0,886350
14,475167	0,5	0,866650
14,483500	0,5	0,844850
14,491833	0,5	0,837350
14,500167	0,5	0,829850
14,508500	0,5	0,833100
14,516833	0,5	0,835600
14,525167	0,5	0,833600
14,533500	0,5	0,833250
14,541833	0,5	0,829950
14,550167	0,5	0,814650
14,558500	0,5	0,807850
14,566833	0,5	0,802450
14,575167	0,5	0,798250
14,583500	0,5	0,785400
14,591833	0,5	0,773850
14,600167	0,5	0,766100
14,608500	0,5	0,768550
14,616833	0,5	0,771300
14,625167	0,5	0,769250
14,633500	0,5	0,775100
14,641833	0,5	0,768700
14,650167	0,5	0,763800
14,658500	0,5	0,759750
14,666833	0,5	0,754500
14,675167	0,5	0,745650
14,683500	0,5	0,731700
14,691833	0,5	0,730150
14,700167	0,5	0,714400
14,708500	0,5	0,717350
14,716833	0,5	0,718450
14,725167	0,5	0,714350
14,733500	0,5	0,708300
14,741833	0,5	0,700300
14,750167	0,5	0,703400
14,758500	0,5	0,707650
14,766833	0,5	0,700350
14,775167	0,5	0,697850
14,783500	0,5	0,688000
14,791833	0,5	0,680450
14,800167	0,5	0,671650
14,808500	0,5	0,667800
14,816833	0,5	0,665100
14,825167	0,5	0,664250
14,833500	0,5	0,664950
14,841833	0,5	0,671350
14,850167	0,5	0,661650
14,858500	0,5	0,680100
14,866833	0,5	0,681050
14,875167	0,5	0,679050
14,883500	0,5	0,668150
14,891833	0,5	0,641250
14,900167	0,5	0,645000
14,908500	0,5	0,641300
14,916833	0,5	0,634750
14,925167	0,5	0,627850
14,933500	0,5	0,628350
14,941833	0,5	0,626550
14,950167	0,5	0,630900
14,958500	0,5	0,623200
14,966833	0,5	0,628350
14,975167	0,5	0,617950
14,983500	0,5	0,617550
14,991833	0,5	0,607800
15,000167	0,5	0,600950
15,008500	0,5	0,609350
15,016833	0,5	0,607550
15,025167	0,5	0,610900
15,033500	0,5	0,609900
15,041833	0,5	0,601500
15,050167	0,5	0,606700
15,058500	0,5	0,609750
15,066833	0,5	0,607400
15,075167	0,5	0,605250
15,083500	0,5	0,600450
15,091833	0,5	0,593550
15,100167	0,5	0,587550
15,108500	0,5	0,583000
15,116833	0,5	0,577100
15,125167	0,5	0,574800
15,133500	0,5	0,566200
15,141833	0,5	0,559800
15,150167	0,5	0,561750
15,158500	0,5	0,564000
15,166833	0,5	0,559500
15,175167	0,5	0,556100
15,183500	0,5	0,540650
15,191833	0,5	0,538250
15,200167	0,5	0,543250
15,208500	0,5	0,543850
15,216833	0,5	0,544900
15,225167	0,5	0,544850
15,233500	0,5	0,546700
15,241833	0,5	0,541950
15,250167	0,5	0,541450
15,258500	0,5	0,533350
15,266833	0,5	0,531300
15,275167	0,5	0,527500
15,283500	0,5	0,520700
15,291833	0,5	0,512100
15,300167	0,5	0,521700
15,308500	0,5	0,523650
15,316833	0,5	0,520800
15,325167	0,5	0,509850
15,333500	0,5	0,500900
15,341833	0,5	0,502100
15,350167	0,5	0,507500
15,358500	0,5	0,508050
15,366833	0,5	0,516100
15,375167	0,5	0,514900
15,383500	0,5	0,514200
15,391833	0,5	0,516950
15,400167	0,5	0,517350
15,408500	0,5	0,519400
15,416833	0,5	0,522700
15,425167	0,5	0,528950
15,433500	0,5	0,529600
15,441833	0,5	0,531900
15,450167	0,5	0,538300
15,458500	0,5	0,543050
15,466833	0,5	0,541700
15,475167	0,5	0,536200
15,483500	0,5	0,528000
15,491833	0,5	0,536100
15,500167	0,5	0,534650
15,508500	0,5	0,536550
15,516833	0,5	0,535050
15,525167	0,5	0,530700
15,533500	0,5	0,530600
15,541833	0,5	0,531100
15,550167	0,5	0,536050
15,558500	0,5	0,537500
15,566833	0,5	0,543050
15,575167	0,5	0,549100
15,583500	0,5	0,540850
15,591833	0,5	0,560350
15,600167	0,5	0,571150
15,608500	0,5	0,567550
15,616833	0,5	0,568450
15,625167	0,5	0,557350
15,633500	0,5	0,565250
15,641833	0,5	0,574500
15,650167	0,5	0,588950
15,658500	0,5	0,594050
15,666833	0,5	0,600950
15,675167	0,5	0,594100
15,683500	0,5	0,585600
15,691833	0,5	0,570250
15,700167	0,5	0,548850
15,708500	0,5	0,535550
15,716833	0,5	0,512700
15,725167	0,5	0,504600
15,733500	0,5	0,487250
15,741833	0,5	0,492750
15,750167	0,5	0,486800
15,758500	0,5	0,484100
15,766833	0,5	0,477400
15,775167	0,5	0,462400
15,783500	0,5	0,468850
15,791833	0,5	0,478850
15,800167	0,5	0,473250
15,808500	0,5	0,472100
15,816833	0,5	0,471050
15,825167	0,5	0,474850
15,833500	0,5	0,472800
15,841833	0,5	0,476900
15,850167	0,5	0,474550
15,858500	0,5	0,476850
15,866833	0,5	0,479200
15,875167	0,5	0,476550
15,883500	0,5	0,471050
15,891833	0,5	0,473200
15,900167	0,5	0,466550
15,908500	0,5	0,459950
15,916833	0,5	0,445400
15,925167	0,5	0,425350
15,933500	0,5	0,429200
15,941833	0,5	0,423400
15,950167	0,5	0,425450
15,958500	0,5	0,420000
15,966833	0,5	0,427500
15,975167	0,5	0,417300
15,983500	0,5	0,424150
15,991833	0,5	0,423950
16,000167	0,5	0,422400
16,008500	0,5	0,420300
16,016833	0,5	0,422300
16,025167	0,5	0,416150
16,033500	0,5	0,422150
16,041833	0,5	0,421500
16,050167	0,5	0,417550
16,058500	0,5	0,411200
16,066833	0,5	0,397850
16,075167	0,5	0,391700
16,083500	0,5	0,396700
16,091833	0,5	0,397050
16,100167	0,5	0,396250
16,108500	0,5	0,399850
16,116833	0,5	0,397550
16,125167	0,5	0,403250
16,133500	0,5	0,403050
16,141833	0,5	0,399050
16,150167	0,5	0,396700
16,158500	0,5	0,398200
16,166833	0,5	0,395550
16,175167	0,5	0,391300
16,183500	0,5	0,403100
16,191833	0,5	0,408000
16,200167	0,5	0,411600
16,208500	0,5	0,412450
16,216833	0,5	0,413750
16,225167	0,5	0,422900
16,233500	0,5	0,441450
16,241833	0,5	0,454150
16,250167	0,5	0,463900
16,258500	0,5	0,470250
16,266833	0,5	0,473100
16,275167	0,5	0,476300
16,283500	0,5	0,481350
16,291833	0,5	0,475800
16,300167	0,5	0,480100
16,308500	0,5	0,481450
16,316833	0,5	0,483750
16,325167	0,5	0,487100
16,333500	0,5	0,496400
16,341833	0,5	0,494700
16,350167	0,5	0,489250
16,358500	0,5	0,468700
16,366833	0,5	0,457650
16,375167	0,5	0,457300
16,383500	0,5	0,461150
16,391833	0,5	0,455250
16,400167	0,5	0,457050
16,408500	0,5	0,457400
16,416833	0,5	0,456050
16,425167	0,5	0,456900
16,433500	0,5	0,455700
16,441833	0,5	0,459450
16,450167	0,5	0,457250
16,458500	0,5	0,460200
16,466833	0,5	0,441850
16,475167	0,5	0,454100
16,483500	0,5	0,456900
16,491833	0,5	0,458000
16,500167	0,5	0,450400
16,508500	0,5	0,441400
16,516833	0,5	0,443800
16,525167	0,5	0,448250
16,533500	0,5	0,442750
16,541833	0,5	0,452300
16,550167	0,5	0,451900
16,558500	0,5	0,449950
16,566833	0,5	0,448000
16,575167	0,5	0,451300
16,583500	0,5	0,452150
16,591833	0,5	0,452050
16,600167	0,5	0,461750
16,608500	0,5	0,461800
16,616833	0,5	0,447000
16,625167	0,5	0,461450
16,633500	0,5	0,463800
16,641833	0,5	0,460800
16,650167	0,5	0,461250
16,658500	0,5	0,447100
16,666833	0,5	0,463450
16,675167	0,5	0,468050
16,683500	0,5	0,477300
16,691833	0,5	0,478000
16,700167	0,5	0,490450
16,708500	0,5	0,492200
16,716833	0,5	0,502450
16,725167	0,5	0,507400
16,733500	0,5	0,507100
16,741833	0,5	0,503400
16,750167	0,5	0,509400
16,758500	0,5	0,501500
16,766833	0,5	0,493150
16,775167	0,5	0,498650
16,783500	0,5	0,498300
16,791833	0,5	0,494350
16,800167	0,5	0,484400
16,808500	0,5	0,487200
16,816833	0,5	0,496800
16,825167	0,5	0,504550
16,833500	0,5	0,502550
16,841833	0,5	0,502500
16,850167	0,5	0,494900
16,858500	0,5	0,482200
16,866833	0,5	0,465600
16,875167	0,5	0,460200
16,883500	0,5	0,447400
16,891833	0,5	0,433250
16,900167	0,5	0,425200
16,908500	0,5	0,407550
16,916833	0,5	0,404800
16,925167	0,5	0,403850
16,933500	0,5	0,396850
16,941833	0,5	0,380850
16,950167	0,5	0,371200
16,958500	0,5	0,355250
16,966833	0,5	0,363400
16,975167	0,5	0,357550
16,983500	0,5	0,360850
16,991833	0,5	0,357700
17,000167	0,5	0,357400
17,008500	0,5	0,350150
17,016833	0,5	0,351300
17,025167	0,5	0,342900
17,033500	0,5	0,344200
17,041833	0,5	0,346750
17,050167	0,5	0,344500
17,058500	0,5	0,325950
17,066833	0,5	0,337150
17,075167	0,5	0,327900
17,083500	0,5	0,324100
17,091833	0,5	0,312000
17,100167	0,5	0,299350
17,108500	0,5	0,300450
17,116833	0,5	0,296100
17,125167	0,5	0,299250
17,133500	0,5	0,294000
17,141833	0,5	0,294050
17,150167	0,5	0,285650
17,158500	0,5	0,287900
17,166833	0,5	0,286450
17,175167	0,5	0,287850
17,183500	0,5	0,285100
17,191833	0,5	0,290000
17,200167	0,5	0,278950
17,208500	0,5	0,279750
17,216833	0,5	0,279200
17,225167	0,5	0,275500
17,233500	0,5	0,271150
17,241833	0,5	0,259200
17,250167	0,5	0,246400
17,258500	0,5	0,245250
17,266833	0,5	0,250500
17,275167	0,5	0,246250
17,283500	0,5	0,249050
17,291833	0,5	0,248250
17,300167	0,5	0,252700
17,308500	0,5	0,250200
17,316833	0,5	0,250450
17,325167	0,5	0,246750
17,333500	0,5	0,250250
17,341833	0,5	0,242800
17,350167	0,5	0,230750
17,358500	0,5	0,230700
17,366833	0,5	0,238100
17,375167	0,5	0,231450
17,383500	0,5	0,227450
17,391833	0,5	0,211200
17,400167	0,5	0,209500
17,408500	0,5	0,210450
17,416833	0,5	0,206900
17,425167	0,5	0,203300
17,433500	0,5	0,199950
17,441833	0,5	0,194050
17,450167	0,5	0,188400
17,458500	0,5	0,187450
17,466833	0,5	0,182550
17,475167	0,5	0,181250
17,483500	0,5	0,182550
17,491833	0,5	0,178200
17,500167	0,5	0,165900
17,508500	0,5	0,170250
17,516833	0,5	0,167750
17,525167	0,5	0,160300
17,533500	0,5	0,148600
17,541833	0,5	0,134400
17,550167	0,5	0,137400
17,558500	0,5	0,139550
17,566833	0,5	0,135650
17,575167	0,5	0,133000
17,583500	0,5	0,133000
17,591833	0,5	0,129900
17,600167	0,5	0,130850
17,608500	0,5	0,127400
17,616833	0,5	0,127300
17,625167	0,5	0,125850
17,633500	0,5	0,133050
17,641833	0,5	0,120850
17,650167	0,5	0,119350
17,658500	0,5	0,127600
17,666833	0,5	0,126900
17,675167	0,5	0,120450
17,683500	0,5	0,117450
17,691833	0,5	0,114850
17,700167	0,5	0,123200
17,708500	0,5	0,123850
17,716833	0,5	0,128800
17,725167	0,5	0,133050
17,733500	0,5	0,139000
17,741833	0,5	0,140950
17,750167	0,5	0,151200
17,758500	0,5	0,157800
17,766833	0,5	0,160100
17,775167	0,5	0,174850
17,783500	0,5	0,185800
17,791833	0,5	0,179250
17,800167	0,5	0,192700
17,808500	0,5	0,203250
17,816833	0,5	0,207500
17,825167	0,5	0,202150
17,833500	0,5	0,192650
17,841833	0,5	0,196250
17,850167	0,5	0,203550
17,858500	0,5	0,212000
17,866833	0,5	0,210600
17,875167	0,5	0,217050
17,883500	0,5	0,217050
17,891833	0,5	0,223750
17,900167	0,5	0,225000
17,908500	0,5	0,228850
17,916833	0,5	0,231100
17,925167	0,5	0,232050
17,933500	0,5	0,236250
17,941833	0,5	0,224250
17,950167	0,5	0,233100
17,958500	0,5	0,224850
17,966833	0,5	0,221700
17,975167	0,5	0,203100
17,983500	0,5	0,183200
17,991833	0,5	0,175950
18,000167	0,5	0,172350
18,008500	0,5	0,158700
18,016833	0,5	0,156250
18,025167	0,5	0,146500
18,033500	0,5	0,137750
18,041833	0,5	0,131800
18,050167	0,5	0,125050
18,058500	0,5	0,118200
18,066833	0,5	0,113050
18,075167	0,5	0,112700
18,083500	0,5	0,100350
18,091833	0,5	0,092350
18,100167	0,5	0,093050
18,108500	0,5	0,084600
18,116833	0,5	0,075600
18,125167	0,5	0,065950
18,133500	0,5	0,046800
18,141833	0,5	0,052250
18,150167	0,5	0,046200
18,158500	0,5	0,049550
18,166833	0,5	0,043900
18,175167	0,5	0,043550
18,183500	0,5	0,036300
18,191833	0,5	0,040050
18,200167	0,5	0,032450
18,208500	0,5	0,032350
18,216833	0,5	0,039300
18,225167	0,5	0,036850
18,233500	0,5	0,019750
18,241833	0,5	0,024400
18,250167	0,5	0,027750
18,258500	0,5	0,020650
18,266833	0,5	0,013900
18,275167	0,5	-0,001600
18,283500	0,5	0,003150
18,291833	0,5	-0,001300
18,300167	0,5	0,000000
18,308500	0,5	-0,003600
18,316833	0,5	0,002650
18,325167	0,5	0,000900
18,333500	0,5	0,003400
18,341833	0,5	0,000850
18,350167	0,5	0,007500
18,358500	0,5	0,005950
18,366833	0,5	0,013350
18,375167	0,5	0,005900
18,383500	0,5	0,004100
18,391833	0,5	0,005900
18,400167	0,5	0,007650
18,408500	0,5	0,004950
18,416833	0,5	-0,006250
18,425167	0,5	-0,015750
18,433500	0,5	-0,013450
18,441833	0,5	-0,011350
18,450167	0,5	-0,007600
18,458500	0,5	-0,008050
18,466833	0,5	-0,010550
18,475167	0,5	-0,007500
18,483500	0,5	-0,013650
18,491833	0,5	-0,011000
18,500167	0,5	-0,017300
18,508500	0,5	-0,014250
18,516833	0,5	-0,010200
18,525167	0,5	-0,023350
18,533500	0,5	-0,020900
18,541833	0,5	-0,016100
18,550167	0,5	-0,019700
18,558500	0,5	-0,023300
18,566833	0,5	-0,036350
18,575167	0,5	-0,032950
18,583500	0,5	-0,028500
18,591833	0,5	-0,028000
18,600167	0,5	-0,028850
18,608500	0,5	-0,030650
18,616833	0,5	-0,029850
18,625167	0,5	-0,037500
18,633500	0,5	-0,030350
18,641833	0,5	-0,028750
18,650167	0,5	-0,031050
18,658500	0,5	-0,027700
18,666833	0,5	-0,020450
18,675167	0,5	-0,040300
18,683500	0,5	-0,027900
18,691833	0,5	-0,029300
18,700167	0,5	-0,027600
18,708500	0,5	-0,039300
18,716833	0,5	-0,055000
18,725167	0,5	-0,055350
18,733500	0,5	-0,052850
18,741833	0,5	-0,052500
18,750167	0,5	-0,061100
18,758500	0,5	-0,057600
18,766833	0,5	-0,059000
18,775167	0,5	-0,058150
18,783500	0,5	-0,065550
18,791833	0,5	-0,060950
18,800167	0,5	-0,064800
18,808500	0,5	-0,055600
18,816833	0,5	-0,059400
18,825167	0,5	-0,074100
18,833500	0,5	-0,060800
18,841833	0,5	-0,064850
18,850167	0,5	-0,069750
18,858500	0,5	-0,074900
18,866833	0,5	-0,084850
18,875167	0,5	-0,080950
18,883500	0,5	-0,078100
18,891833	0,5	-0,075600
18,900167	0,5	-0,075600
18,908500	0,5	-0,078200
18,916833	0,5	-0,083950
18,925167	0,5	-0,087250
18,933500	0,5	-0,088000
18,941833	0,5	-0,089450
18,950167	0,5	-0,085200
18,958500	0,5	-0,090350
18,966833	0,5	-0,094550
18,975167	0,5	-0,096250
18,983500	0,5	-0,091550
18,991833	0,5	-0,094150
19,000167	0,5	-0,096200
19,008500	0,5	-0,109500
19,016833	0,5	-0,116650
19,025167	0,5	-0,117500
19,033500	0,5	-0,112600
19,041833	0,5	-0,112550
19,050167	0,5	-0,110200
19,058500	0,5	-0,112850
19,066833	0,5	-0,115300
19,075167	0,5	-0,113800
19,083500	0,5	-0,118650
19,091833	0,5	-0,117200
19,100167	0,5	-0,115750
19,108500	0,5	-0,117800
19,116833	0,5	-0,133350
19,125167	0,5	-0,119650
19,133500	0,5	-0,121650
19,141833	0,5	-0,124950
19,150167	0,5	-0,136100
19,158500	0,5	-0,141400
19,166833	0,5	-0,145400
19,175167	0,5	-0,139650
19,183500	0,5	-0,138650
19,191833	0,5	-0,133900
19,200167	0,5	-0,136150
19,208500	0,5	-0,134300
19,216833	0,5	-0,137250
19,225167	0,5	-0,135850
19,233500	0,5	-0,129850
19,241833	0,5	-0,125600
19,250167	0,5	-0,112350
19,258500	0,5	-0,119450
19,266833	0,5	-0,120050
19,275167	0,5	-0,114950
19,283500	0,5	-0,112350
19,291833	0,5	-0,113900
19,300167	0,5	-0,122000
19,308500	0,5	-0,125200
19,316833	0,5	-0,119450
19,325167	0,5	-0,116050
19,333500	0,5	-0,103500
19,341833	0,5	-0,100200
19,350167	0,5	-0,095850
19,358500	0,5	-0,090750
19,366833	0,5	-0,093550
19,375167	0,5	-0,092400
19,383500	0,5	-0,098450
19,391833	0,5	-0,094150
19,400167	0,5	-0,090250
19,408500	0,5	-0,110950
19,416833	0,5	-0,101750
19,425167	0,5	-0,097600
19,433500	0,5	-0,094700
19,441833	0,5	-0,102400
19,450167	0,5	-0,118550
19,458500	0,5	-0,115900
19,466833	0,5	-0,115300
19,475167	0,5	-0,111800
19,483500	0,5	-0,114450
19,491833	0,5	-0,108050
19,500167	0,5	-0,110250
19,508500	0,5	-0,108000
19,516833	0,5	-0,110450
19,525167	0,5	-0,106750
19,533500	0,5	-0,105200
19,541833	0,5	-0,097900
19,550167	0,5	-0,101000
19,558500	0,5	-0,103850
19,566833	0,5	-0,095850
19,575167	0,5	-0,099050
19,583500	0,5	-0,099050
19,591833	0,5	-0,111000
19,600167	0,5	-0,116300
19,608500	0,5	-0,111700
19,616833	0,5	-0,102700
19,625167	0,5	-0,108900
19,633500	0,5	-0,102300
19,641833	0,5	-0,108900
19,650167	0,5	-0,103700
19,658500	0,5	-0,105200
19,666833	0,5	-0,101050
19,675167	0,5	-0,101200
19,683500	0,5	-0,096750
19,691833	0,5	-0,086350
19,700167	0,5	-0,094950
19,708500	0,5	-0,094650
19,716833	0,5	-0,089750
19,725167	0,5	-0,084900
19,733500	0,5	-0,091350
19,741833	0,5	-0,100100
19,750167	0,5	-0,105300
19,758500	0,5	-0,091250
19,766833	0,5	-0,098050
19,775167	0,5	-0,092300
19,783500	0,5	-0,093800
19,791833	0,5	-0,086150
19,800167	0,5	-0,085800
19,808500	0,5	-0,085450
19,816833	0,5	-0,085800
19,825167	0,5	-0,081800
19,833500	0,5	-0,072350
19,841833	0,5	-0,065250
19,850167	0,5	-0,075750
19,858500	0,5	-0,064250
19,866833	0,5	-0,064300
19,875167	0,5	-0,065650
19,883500	0,5	-0,067400
19,891833	0,5	-0,081050
19,900167	0,5	-0,072750
19,908500	0,5	-0,081850
19,916833	0,5	-0,067400
19,925167	0,5	-0,066300
19,933500	0,5	-0,059750
19,941833	0,5	-0,058100
19,950167	0,5	-0,051350
19,958500	0,5	-0,051350
19,966833	0,5	-0,045550
19,975167	0,5	-0,045650
19,983500	0,5	-0,035100
19,991833	0,5	-0,046550
20,000167	0,5	-0,048400
20,008500	0,5	-0,044550
20,016833	0,5	-0,046350
20,025167	0,5	-0,047800
20,033500	0,5	-0,064800
20,041833	0,5	-0,063900
20,050167	0,5	-0,065300
20,058500	0,5	-0,057900
20,066833	0,5	-0,060650
20,075167	0,5	-0,054350
20,083500	0,5	-0,054750
20,091833	0,5	-0,047750
20,100167	0,5	-0,052450
20,108500	0,5	-0,049800
20,116833	0,5	-0,051850
20,125167	0,5	-0,039450
20,133500	0,5	-0,036250
20,141833	0,5	-0,035400
20,150167	0,5	-0,033200
20,158500	0,5	-0,025350
20,166833	0,5	-0,028100
20,175167	0,5	-0,035300
20,183500	0,5	-0,045600
20,191833	0,5	-0,057600
20,200167	0,5	-0,058450
20,208500	0,5	-0,061050
20,216833	0,5	-0,056550
20,225167	0,5	-0,057400
20,233500	0,5	-0,055000
20,241833	0,5	-0,057850
20,250167	0,5	-0,049150
20,258500	0,5	-0,051450
20,266833	0,5	-0,049000
20,275167	0,5	-0,040550
20,283500	0,5	-0,039050
20,291833	0,5	-0,047450
20,300167	0,5	-0,041900
20,308500	0,5	-0,042250
20,316833	0,5	-0,044300
20,325167	0,5	-0,058100
20,333500	0,5	-0,059300
20,341833	0,5	-0,052900
20,350167	0,5	-0,055050
20,358500	0,5	-0,053300
20,366833	0,5	-0,053000
20,375167	0,5	-0,045950
20,383500	0,5	-0,042700
20,391833	0,5	-0,038450
20,400167	0,5	-0,045500
20,408500	0,5	-0,034000
20,416833	0,5	-0,031100
20,425167	0,5	-0,017000
20,433500	0,5	-0,030600
20,441833	0,5	-0,021950
20,450167	0,5	-0,022550
20,458500	0,5	-0,013950
20,466833	0,5	-0,016300
20,475167	0,5	-0,027650
20,483500	0,5	-0,022650
20,491833	0,5	-0,021900
20,500167	0,5	-0,017400
20,508500	0,5	-0,015700
20,516833	0,5	-0,008450
20,525167	0,5	-0,011250
20,533500	0,5	-0,003500
20,541833	0,5	-0,000900
20,550167	0,5	0,001900
20,558500	0,5	0,002750
20,566833	0,5	0,018950
20,575167	0,5	0,026300
20,583500	0,5	0,019000
20,591833	0,5	0,023500
20,600167	0,5	0,024400
20,608500	0,5	0,020000
20,616833	0,5	0,018700
20,625167	0,5	0,007900
20,633500	0,5	0,017200
20,641833	0,5	0,020900
20,650167	0,5	0,025150
20,658500	0,5	0,026250
20,666833	0,5	0,033800
20,675167	0,5	0,040750
20,683500	0,5	0,046200
20,691833	0,5	0,046200
20,700167	0,5	0,052450
20,708500	0,5	0,066350
20,716833	0,5	0,079550
20,725167	0,5	0,089900
20,733500	0,5	0,083450
20,741833	0,5	0,090200
20,750167	0,5	0,092700
20,758500	0,5	0,089850
20,766833	0,5	0,080350
20,775167	0,5	0,081950
20,783500	0,5	0,094100
20,791833	0,5	0,089850
20,800167	0,5	0,105500
20,808500	0,5	0,111550
20,816833	0,5	0,120950
20,825167	0,5	0,126550
20,833500	0,5	0,133800
20,841833	0,5	0,139100
20,850167	0,5	0,144450
20,858500	0,5	0,158550
20,866833	0,5	0,173800
20,875167	0,5	0,171000
20,883500	0,5	0,175250
20,891833	0,5	0,169650
20,900167	0,5	0,173250
20,908500	0,5	0,168650
20,916833	0,5	0,160850
20,925167	0,5	0,166650
20,933500	0,5	0,178050
20,941833	0,5	0,184850
20,950167	0,5	0,195250
20,958500	0,5	0,205100
20,966833	0,5	0,218600
20,975167	0,5	0,234600
20,983500	0,5	0,241900
20,991833	0,5	0,249900
21,000167	0,5	0,263200
21,008500	0,5	0,287000
21,016833	0,5	0,299150
21,025167	0,5	0,297500
21,033500	0,5	0,303850
21,041833	0,5	0,304400
21,050167	0,5	0,301450
21,058500	0,5	0,292200
21,066833	0,5	0,288900
21,075167	0,5	0,294950
21,083500	0,5	0,301550
21,091833	0,5	0,306200
21,100167	0,5	0,318850
21,108500	0,5	0,327250
21,116833	0,5	0,339000
21,125167	0,5	0,347200
21,133500	0,5	0,363150
21,141833	0,5	0,368000
21,150167	0,5	0,391100
21,158500	0,5	0,411150
21,166833	0,5	0,420050
21,175167	0,5	0,424250
21,183500	0,5	0,433850
21,191833	0,5	0,428750
21,200167	0,5	0,433500
21,208500	0,5	0,430800
21,216833	0,5	0,445350
21,225167	0,5	0,455950
21,233500	0,5	0,475050
21,241833	0,5	0,493200
21,250167	0,5	0,523700
21,258500	0,5	0,550450
21,266833	0,5	0,573750
21,275167	0,5	0,598900
21,283500	0,5	0,604350
21,291833	0,5	0,612150
21,300167	0,5	0,630750
21,308500	0,5	0,633600
21,316833	0,5	0,617750
21,325167	0,5	0,615350
21,333500	0,5	0,609900
21,341833	0,5	0,603650
21,350167	0,5	0,590350
21,358500	0,5	0,594700
21,366833	0,5	0,608000
21,375167	0,5	0,624350
21,383500	0,5	0,627350
21,391833	0,5	0,642100
21,400167	0,5	0,655500
21,408500	0,5	0,662050
21,416833	0,5	0,670950
21,425167	0,5	0,675350
21,433500	0,5	0,692600
21,441833	0,5	0,710600
21,450167	0,5	0,736550
21,458500	0,5	0,751000
21,466833	0,5	0,763950
21,475167	0,5	0,773900
21,483500	0,5	0,778550
21,491833	0,5	0,784900
21,500167	0,5	0,789000
21,508500	0,5	0,803150
21,516833	0,5	0,819150
21,525167	0,5	0,830100
21,533500	0,5	0,839250
21,541833	0,5	0,853200
21,550167	0,5	0,866700
21,558500	0,5	0,878100
21,566833	0,5	0,886850
21,575167	0,5	0,908450
21,583500	0,5	0,914300
21,591833	0,5	0,950450
21,600167	0,5	0,971850
21,608500	0,5	0,977900
21,616833	0,5	0,986000
21,625167	0,5	0,995800
21,633500	0,5	0,990050
21,641833	0,5	0,997000
21,650167	0,5	1,000150
21,658500	0,5	1,021700
21,666833	0,5	1,036600
21,675167	0,5	1,052750
21,683500	0,5	1,063750
21,691833	0,5	1,086250
21,700167	0,5	1,110400
21,708500	0,5	1,124300
21,716833	0,5	1,148050
21,725167	0,5	1,162000
21,733500	0,5	1,192000
21,741833	0,5	1,223500
21,750167	0,5	1,244050
21,758500	0,5	1,262950
21,766833	0,5	1,285350
21,775167	0,5	1,303950
21,783500	0,5	1,317200
21,791833	0,5	1,332700
21,800167	0,5	1,364100
21,808500	0,5	1,396500
21,816833	0,5	1,428850
21,825167	0,5	1,459050
21,833500	0,5	1,491200
21,841833	0,5	1,516200
21,850167	0,5	1,544600
21,858500	0,5	1,574000
21,866833	0,5	1,592100
21,875167	0,5	1,608600
21,883500	0,5	1,641300
21,891833	0,5	1,670650
21,900167	0,5	1,679600
21,908500	0,5	1,699900
21,916833	0,5	1,708300
21,925167	0,5	1,724550
21,933500	0,5	1,729750
21,941833	0,5	1,740100
21,950167	0,5	1,766400
21,958500	0,5	1,785650
21,966833	0,5	1,813500
21,975167	0,5	1,831450
21,983500	0,5	1,857300
21,991833	0,5	1,880350
22,000167	0,5	1,908650
22,008500	0,5	1,930850
22,016833	0,5	1,958900
22,025167	0,5	1,986400
22,033500	0,5	2,026550
22,041833	0,5	2,042150
22,050167	0,5	2,079450
22,058500	0,5	2,113800
22,066833	0,5	2,139900
22,075167	0,5	2,161700
22,083500	0,5	2,188650
22,091833	0,5	2,220450
22,100167	0,5	2,251050
22,108500	0,5	2,274650
22,116833	0,5	2,301700
22,125167	0,5	2,329100
22,133500	0,5	2,361100
22,141833	0,5	2,393000
22,150167	0,5	2,421700
22,158500	0,5	2,459050
22,166833	0,5	2,481150
22,175167	0,5	2,519400
22,183500	0,5	2,538850
22,191833	0,5	2,579100
22,200167	0,5	2,619600
22,208500	0,5	2,656950
22,216833	0,5	2,685600
22,225167	0,5	2,716350
22,233500	0,5	2,749800
22,241833	0,5	2,792950
22,250167	0,5	2,841800
22,258500	0,5	2,885200
22,266833	0,5	2,926400
22,275167	0,5	2,972650
22,283500	0,5	3,021700
22,291833	0,5	3,073000
22,300167	0,5	3,125150
22,308500	0,5	3,173100
22,316833	0,5	3,226550
22,325167	0,5	3,264450
22,333500	0,5	3,315450
22,341833	0,5	3,382900
22,350167	0,5	3,435100
22,358500	0,5	3,472200
22,366833	0,5	3,509200
22,375167	0,5	3,538850
22,383500	0,5	3,591150
22,391833	0,5	3,637750
22,400167	0,5	3,686750
22,408500	0,5	3,735350
22,416833	0,5	3,780500
22,425167	0,5	3,833000
22,433500	0,5	3,881700
22,441833	0,5	3,939050
22,450167	0,5	3,988100
22,458500	0,5	4,043400
22,466833	0,5	4,091450
22,475167	0,5	4,145350
22,483500	0,5	4,203200
22,491833	0,5	4,289750
22,500167	0,5	4,347400
22,508500	0,5	4,400150
22,516833	0,5	4,444750
22,525167	0,5	4,481850
22,533500	0,5	4,535800
22,541833	0,5	4,579750
22,550167	0,5	4,617750
22,558500	0,5	4,651400
22,566833	0,5	4,685700
22,575167	0,5	4,724650
22,583500	0,5	4,758250
22,591833	0,5	4,779800
22,600167	0,5	4,803800
22,608500	0,5	4,801200
22,616833	0,5	4,800150
22,625167	0,5	4,806300
22,633500	0,5	4,836650
22,641833	0,5	4,838250
22,650167	0,5	4,825750
22,658500	0,5	4,797750
22,666833	0,5	4,768450
22,675167	0,5	4,742950
22,683500	0,5	4,714150
22,691833	0,5	4,677100
22,700167	0,5	4,634900
22,708500	0,5	4,588000
22,716833	0,5	4,534050
22,725167	0,5	4,478300
22,733500	0,5	4,418850
22,741833	0,5	4,348200
22,750167	0,5	4,269350
22,758500	0,5	4,141550
22,766833	0,5	4,066100
22,775167	0,5	3,994350
22,783500	0,5	3,913850
22,791833	0,5	3,808000
22,800167	0,5	3,698250
22,808500	0,5	3,576950
22,816833	0,5	3,459450
22,825167	0,5	3,339650
22,833500	0,5	3,222200
22,841833	0,5	3,105150
22,850167	0,5	2,979850
22,858500	0,5	2,856950
22,866833	0,5	2,728800
22,875167	0,5	2,602950
22,883500	0,5	2,471400
22,891833	0,5	2,344000
22,900167	0,5	2,213500
22,908500	0,5	2,036550
22,916833	0,5	1,933500
22,925167	0,5	1,801000
22,933500	0,5	1,649450
22,941833	0,5	1,514200
22,950167	0,5	1,375600
22,958500	0,5	1,247150
22,966833	0,5	1,113600
22,975167	0,5	0,982900
22,983500	0,5	0,856350
22,991833	0,5	0,737200
23,000167	0,5	0,622850
23,008500	0,5	0,514400
23,016833	0,5	0,407750
23,025167	0,5	0,302000
23,033500	0,5	0,203950
23,041833	0,5	0,108000
23,050167	0,5	0,044950
23,058500	0,5	-0,056850
23,066833	0,5	-0,142500
23,075167	0,5	-0,263600
23,083500	0,5	-0,350600
23,091833	0,5	-0,426050
23,100167	0,5	-0,491600
23,108500	0,5	-0,562750
23,116833	0,5	-0,633100
23,125167	0,5	-0,701350
23,133500	0,5	-0,760550
23,141833	0,5	-0,814650
23,150167	0,5	-0,871800
23,158500	0,5	-0,919750
23,166833	0,5	-0,971400
23,175167	0,5	-1,012200
23,183500	0,5	-1,057900
23,191833	0,5	-1,089100
23,200167	0,5	-1,128450
23,208500	0,5	-1,159400
23,216833	0,5	-1,185450
23,225167	0,5	-1,252900
23,233500	0,5	-1,293100
23,241833	0,5	-1,324400
23,250167	0,5	-1,348350
23,258500	0,5	-1,371150
23,266833	0,5	-1,398100
23,275167	0,5	-1,417600
23,283500	0,5	-1,433850
23,291833	0,5	-1,448600
23,300167	0,5	-1,465550
23,308500	0,5	-1,471650
23,316833	0,5	-1,489000
23,325167	0,5	-1,501150
23,333500	0,5	-1,503800
23,341833	0,5	-1,506700
23,350167	0,5	-1,549900
23,358500	0,5	-1,527650
23,366833	0,5	-1,520500
23,375167	0,5	-1,552650
23,383500	0,5	-1,565300
23,391833	0,5	-1,573100
23,400167	0,5	-1,565200
23,408500	0,5	-1,572750
23,416833	0,5	-1,576900
23,425167	0,5	-1,577350
23,433500	0,5	-1,571050
23,441833	0,5	-1,571150
23,450167	0,5	-1,564650
23,458500	0,5	-1,562450
23,466833	0,5	-1,558500
23,475167	0,5	-1,548900
23,483500	0,5	-1,546400
23,491833	0,5	-1,595650
23,500167	0,5	-1,563700
23,508500	0,5	-1,543050
23,516833	0,5	-1,510700
23,525167	0,5	-1,515400
23,533500	0,5	-1,520350
23,541833	0,5	-1,514350
23,550167	0,5	-1,511200
23,558500	0,5	-1,506450
23,566833	0,5	-1,506300
23,575167	0,5	-1,497500
23,583500	0,5	-1,494350
23,591833	0,5	-1,480900
23,600167	0,5	-1,478600
23,608500	0,5	-1,471200
23,616833	0,5	-1,460900
23,625167	0,5	-1,450600
23,633500	0,5	-1,451350
23,641833	0,5	-1,541950
23,650167	0,5	-1,487000
23,658500	0,5	-1,443500
23,666833	0,5	-1,405700
23,675167	0,5	-1,401200
23,683500	0,5	-1,394000
23,691833	0,5	-1,388500
23,700167	0,5	-1,382000
23,708500	0,5	-1,369400
23,716833	0,5	-1,363500
23,725167	0,5	-1,354150
23,733500	0,5	-1,345150
23,741833	0,5	-1,331600
23,750167	0,5	-1,323300
23,758500	0,5	-1,312650
23,766833	0,5	-1,302500
23,775167	0,5	-1,293750
23,783500	0,5	-1,361150
23,791833	0,5	-1,387950
23,800167	0,5	-1,344500
23,808500	0,5	-1,286450
23,816833	0,5	-1,258150
23,825167	0,5	-1,246250
23,833500	0,5	-1,236900
23,841833	0,5	-1,230800
23,850167	0,5	-1,217850
23,858500	0,5	-1,206000
23,866833	0,5	-1,192250
23,875167	0,5	-1,178500
23,883500	0,5	-1,161650
23,891833	0,5	-1,150900
23,900167	0,5	-1,135100
23,908500	0,5	-1,123100
23,916833	0,5	-1,112100
23,925167	0,5	-1,101950
23,933500	0,5	-1,224300
23,941833	0,5	-1,183250
23,950167	0,5	-1,131800
23,958500	0,5	-1,084850
23,966833	0,5	-1,054400
23,975167	0,5	-1,042400
23,983500	0,5	-1,032450
23,991833	0,5	-1,031300
24,000167	0,5	-1,024900
24,008500	0,5	-1,010700
24,016833	0,5	-0,999200
24,025167	0,5	-0,981700
24,033500	0,5	-0,969150
24,041833	0,5	-0,952000
24,050167	0,5	-0,939400
24,058500	0,5	-0,920400
24,066833	0,5	-0,912200
24,075167	0,5	-0,917500
24,083500	0,5	-1,009650
24,091833	0,5	-0,959100
24,100167	0,5	-0,913550
24,108500	0,5	-0,869700
24,116833	0,5	-0,850000
24,125167	0,5	-0,834600
24,133500	0,5	-0,834500
24,141833	0,5	-0,822100
24,150167	0,5	-0,807900
24,158500	0,5	-0,789950
24,166833	0,5	-0,778400
24,175167	0,5	-0,768200
24,183500	0,5	-0,751050
24,191833	0,5	-0,744350
24,200167	0,5	-0,723950
24,208500	0,5	-0,720150
24,216833	0,5	-0,703650
24,225167	0,5	-0,776500
24,233500	0,5	-0,769800
24,241833	0,5	-0,753300
24,250167	0,5	-0,700250
24,258500	0,5	-0,671550
24,266833	0,5	-0,650200
24,275167	0,5	-0,637050
24,283500	0,5	-0,637450
24,291833	0,5	-0,627350
24,300167	0,5	-0,611550
24,308500	0,5	-0,601100
24,316833	0,5	-0,589700
24,325167	0,5	-0,576800
24,333500	0,5	-0,561100
24,341833	0,5	-0,546100
24,350167	0,5	-0,537600
24,358500	0,5	-0,526700
24,366833	0,5	-0,524150
24,375167	0,5	-0,593950
24,383500	0,5	-0,567600
24,391833	0,5	-0,543850
24,400167	0,5	-0,509250
24,408500	0,5	-0,490000
24,416833	0,5	-0,481150
24,425167	0,5	-0,470550
24,433500	0,5	-0,477700
24,441833	0,5	-0,460100
24,450167	0,5	-0,449100
24,458500	0,5	-0,435200
24,466833	0,5	-0,430400
24,475167	0,5	-0,419500
24,483500	0,5	-0,411050
24,491833	0,5	-0,398050
24,500167	0,5	-0,390050
24,508500	0,5	-0,384800
24,516833	0,5	-0,395000
24,525167	0,5	-0,436150
24,533500	0,5	-0,404000
24,541833	0,5	-0,387150
24,550167	0,5	-0,360250
24,558500	0,5	-0,345850
24,566833	0,5	-0,339700
24,575167	0,5	-0,336750
24,583500	0,5	-0,337000
24,591833	0,5	-0,329500
24,600167	0,5	-0,324100
24,608500	0,5	-0,319650
24,616833	0,5	-0,310300
24,625167	0,5	-0,304650
24,633500	0,5	-0,294600
24,641833	0,5	-0,291200
24,650167	0,5	-0,282300
24,658500	0,5	-0,274950
24,666833	0,5	-0,319550
24,675167	0,5	-0,306650
24,683500	0,5	-0,292850
24,691833	0,5	-0,272100
24,700167	0,5	-0,254250
24,708500	0,5	-0,245100
24,716833	0,5	-0,240650
24,725167	0,5	-0,242400
24,733500	0,5	-0,245000
24,741833	0,5	-0,231200
24,750167	0,5	-0,229050
24,758500	0,5	-0,221500
24,766833	0,5	-0,220500
24,775167	0,5	-0,215800
24,783500	0,5	-0,213150
24,791833	0,5	-0,205850
24,800167	0,5	-0,204100
24,808500	0,5	-0,201850
24,816833	0,5	-0,233100
24,825167	0,5	-0,215900
24,833500	0,5	-0,206550
24,841833	0,5	-0,189700
24,850167	0,5	-0,180650
24,858500	0,5	-0,176900
24,866833	0,5	-0,174300
24,875167	0,5	-0,176800
24,883500	0,5	-0,174150
24,891833	0,5	-0,172200
24,900167	0,5	-0,165150
24,908500	0,5	-0,163600
24,916833	0,5	-0,152900
24,925167	0,5	-0,152750
24,933500	0,5	-0,147400
24,941833	0,5	-0,142450
24,950167	0,5	-0,139200
24,958500	0,5	-0,143750
24,966833	0,5	-0,158900
24,975167	0,5	-0,149100
24,983500	0,5	-0,141100
24,991833	0,5	-0,131350
25,000167	0,5	-0,128200
25,008500	0,5	-0,123000
25,016833	0,5	-0,124050
25,025167	0,5	-0,127700
25,033500	0,5	-0,122000
25,041833	0,5	-0,118200
25,050167	0,5	-0,117200
25,058500	0,5	-0,112750
25,066833	0,5	-0,108850
25,075167	0,5	-0,106300
25,083500	0,5	-0,106750
25,091833	0,5	-0,102000
25,100167	0,5	-0,099400
25,108500	0,5	-0,107700
25,116833	0,5	-0,107700
25,125167	0,5	-0,098150
25,133500	0,5	-0,097900
25,141833	0,5	-0,090600
25,150167	0,5	-0,091100
25,158500	0,5	-0,086900
25,166833	0,5	-0,091300
25,175167	0,5	-0,091050
25,183500	0,5	-0,091250
25,191833	0,5	-0,087100
25,200167	0,5	-0,086000
25,208500	0,5	-0,082100
25,216833	0,5	-0,084450
25,225167	0,5	-0,083750
25,233500	0,5	-0,079500
25,241833	0,5	-0,077250
25,250167	0,5	-0,077200
25,258500	0,5	-0,080100
25,266833	0,5	-0,075000
25,275167	0,5	-0,075100
25,283500	0,5	-0,069700
25,291833	0,5	-0,070850
25,300167	0,5	-0,064200
25,308500	0,5	-0,065650
25,316833	0,5	-0,068300
25,325167	0,5	-0,068800
25,333500	0,5	-0,069350
25,341833	0,5	-0,070000
25,350167	0,5	-0,068250
25,358500	0,5	-0,070650
25,366833	0,5	-0,068750
25,375167	0,5	-0,069850
25,383500	0,5	-0,067600
25,391833	0,5	-0,067900
25,400167	0,5	-0,064650
25,408500	0,5	-0,063450
25,416833	0,5	-0,060600
25,425167	0,5	-0,061750
25,433500	0,5	-0,059300
25,441833	0,5	-0,058650
25,450167	0,5	-0,059050
25,458500	0,5	-0,057550
25,466833	0,5	-0,056650
25,475167	0,5	-0,054250
25,483500	0,5	-0,058300
25,491833	0,5	-0,057500
25,500167	0,5	-0,058100
25,508500	0,5	-0,057700
25,516833	0,5	-0,057200
25,525167	0,5	-0,056400
25,533500	0,5	-0,056700
25,541833	0,5	-0,056350
25,550167	0,5	-0,052950
25,558500	0,5	-0,052150
25,566833	0,5	-0,048950
25,575167	0,5	-0,051550
25,583500	0,5	-0,052850
25,591833	0,5	-0,053850
25,600167	0,5	-0,052700
25,608500	0,5	-0,049500
25,616833	0,5	-0,050500
25,625167	0,5	-0,048800
25,633500	0,5	-0,047500
25,641833	0,5	-0,049700
25,650167	0,5	-0,048650
25,658500	0,5	-0,047100
25,666833	0,5	-0,049900
25,675167	0,5	-0,049000
25,683500	0,5	-0,049000
25,691833	0,5	-0,049200
25,700167	0,5	-0,041750
25,708500	0,5	-0,040550
25,716833	0,5	-0,040250
25,725167	0,5	-0,048050
25,733500	0,5	-0,046900
25,741833	0,5	-0,048950
25,750167	0,5	-0,046450
25,758500	0,5	-0,042800
25,766833	0,5	-0,040150
25,775167	0,5	-0,042450
25,783500	0,5	-0,039900
25,791833	0,5	-0,040000
25,800167	0,5	-0,038450
25,808500	0,5	-0,042100
25,816833	0,5	-0,040050
25,825167	0,5	-0,040000
25,833500	0,5	-0,038050
25,841833	0,5	-0,038050
25,850167	0,5	-0,032750
25,858500	0,5	-0,030400
25,866833	0,5	-0,029800
25,875167	0,5	-0,037000
25,883500	0,5	-0,037000
25,891833	0,5	-0,034200
25,900167	0,5	-0,032950
25,908500	0,5	-0,028250
25,916833	0,5	-0,026750
25,925167	0,5	-0,028150
25,933500	0,5	-0,031100
25,941833	0,5	-0,027500
25,950167	0,5	-0,028150
25,958500	0,5	-0,026050
25,966833	0,5	-0,028150
25,975167	0,5	-0,027650
25,983500	0,5	-0,027750
25,991833	0,5	-0,024900
26,000167	0,5	-0,020750
