File Path	chrom://chromeleon01/ikbm_chromeleon/2022/ICS-5000/ED1/Esteban/20220612_Cell_7_4_eg.seq/127.smp/ED_1.channel/ED_1.chm
Channel	ED_1

Injection Information:
Data Vault	ikbm_chromeleon
Injection	7_24h-EGI_1
Injection Number	56
Position	GA4
Comment	
Processing Method	Stop sequence after Cell Death
Instrument Method	ICS5000_PA200_FullNative_Ox_26min_ED1
Type	Unknown
Status	Finished
Injection Date	13.06.2022
Injection Time	18:13:51
Injection Volume (µl)	5,0
Dilution Factor	1,0000
Weight	1,0000

Chromatogram Data Information:
Time Min. (min)	0,000333
Time Max. (min)	26,000333
Data Points	3121
Detector	EDet1
Generating Data System	Chromeleon 7.2.9.11323
Exporting Data System	Chromeleon 7.2.9.0
Operator	Instrument Controller
Signal Quantity	
Signal Unit	nC
Signal Min.	-1,781000
Signal Max.	1 771,623626
Channel	ED_1
Driver Name	DC-5000
Channel Type	Evaluation
Min. Step (s)	0,5
Max. Step (s)	0,5
Average Step (s)	0,5

Signal Parameter Information:
Signal Info	

Chromatogram Data:
Time (min)	Step (s)	Value (nC)
0,000333	n.a.	-0,054400
0,008667	0,5	-0,045800
0,017000	0,5	-0,043900
0,025333	0,5	-0,028850
0,033667	0,5	-0,024850
0,042000	0,5	-0,038500
0,050333	0,5	-0,035400
0,058667	0,5	-0,021000
0,067000	0,5	-0,001650
0,075333	0,5	0,015800
0,083667	0,5	0,011400
0,092000	0,5	0,013200
0,100333	0,5	0,013200
0,108667	0,5	0,014950
0,117000	0,5	0,013350
0,125333	0,5	0,018200
0,133667	0,5	0,013950
0,142000	0,5	0,005050
0,150333	0,5	0,011300
0,158667	0,5	-0,012150
0,167000	0,5	-0,012250
0,175333	0,5	0,008000
0,183667	0,5	0,000900
0,192000	0,5	-0,014200
0,200333	0,5	-0,005550
0,208667	0,5	-0,004250
0,217000	0,5	0,025150
0,225333	0,5	0,029700
0,233667	0,5	0,038450
0,242000	0,5	0,027150
0,250333	0,5	0,028550
0,258667	0,5	0,022600
0,267000	0,5	0,022900
0,275333	0,5	0,018950
0,283667	0,5	0,020700
0,292000	0,5	0,049450
0,300333	0,5	0,071350
0,308667	0,5	0,044900
0,317000	0,5	0,015500
0,325333	0,5	0,011150
0,333667	0,5	-0,006250
0,342000	0,5	-0,009500
0,350333	0,5	-0,004800
0,358667	0,5	0,008100
0,367000	0,5	0,023850
0,375333	0,5	0,028550
0,383667	0,5	0,019750
0,392000	0,5	0,025600
0,400333	0,5	0,019500
0,408667	0,5	0,032300
0,417000	0,5	0,026650
0,425333	0,5	0,024450
0,433667	0,5	0,017300
0,442000	0,5	0,021500
0,450333	0,5	0,019650
0,458667	0,5	0,011550
0,467000	0,5	0,018100
0,475333	0,5	0,029400
0,483667	0,5	0,009600
0,492000	0,5	0,006450
0,500333	0,5	0,013550
0,508667	0,5	0,031100
0,517000	0,5	0,045600
0,525333	0,5	0,030700
0,533667	0,5	0,039300
0,542000	0,5	0,040050
0,550333	0,5	0,047150
0,558667	0,5	0,037900
0,567000	0,5	0,043100
0,575333	0,5	0,037050
0,583667	0,5	0,043100
0,592000	0,5	0,041200
0,600333	0,5	0,040250
0,608667	0,5	0,025200
0,617000	0,5	0,049250
0,625333	0,5	0,040300
0,633667	0,5	0,033100
0,642000	0,5	0,034300
0,650333	0,5	0,044600
0,658667	0,5	0,064500
0,667000	0,5	0,069450
0,675333	0,5	0,064350
0,683667	0,5	0,062050
0,692000	0,5	0,065400
0,700333	0,5	0,071050
0,708667	0,5	0,074750
0,717000	0,5	0,067500
0,725333	0,5	0,069250
0,733667	0,5	0,066150
0,742000	0,5	0,074150
0,750333	0,5	0,067050
0,758667	0,5	0,065400
0,767000	0,5	0,083900
0,775333	0,5	0,068400
0,783667	0,5	0,067100
0,792000	0,5	0,071050
0,800333	0,5	0,083550
0,808667	0,5	0,107900
0,817000	0,5	0,105600
0,825333	0,5	0,103700
0,833667	0,5	0,103150
0,842000	0,5	0,108450
0,850333	0,5	0,108500
0,858667	0,5	0,107950
0,867000	0,5	0,110750
0,875333	0,5	0,102250
0,883667	0,5	0,109300
0,892000	0,5	0,113600
0,900333	0,5	0,123800
0,908667	0,5	0,115250
0,917000	0,5	0,133700
0,925333	0,5	0,108100
0,933667	0,5	0,112400
0,942000	0,5	0,112200
0,950333	0,5	0,130400
0,958667	0,5	0,149850
0,967000	0,5	0,157250
0,975333	0,5	0,148500
0,983667	0,5	0,158700
0,992000	0,5	0,156700
1,000333	0,5	0,158750
1,008667	0,5	0,156300
1,017000	0,5	0,153900
1,025333	0,5	0,158800
1,033667	0,5	0,162150
1,042000	0,5	0,162000
1,050333	0,5	0,157950
1,058667	0,5	0,167500
1,067000	0,5	0,169500
1,075333	0,5	0,157300
1,083667	0,5	0,164500
1,092000	0,5	0,171300
1,100333	0,5	0,189150
1,108667	0,5	0,204550
1,117000	0,5	0,199350
1,125333	0,5	0,206200
1,133667	0,5	0,201950
1,142000	0,5	0,211400
1,150333	0,5	0,207700
1,158667	0,5	0,213450
1,167000	0,5	0,204850
1,175333	0,5	0,207650
1,183667	0,5	0,215050
1,192000	0,5	0,202750
1,200333	0,5	0,203350
1,208667	0,5	0,222650
1,217000	0,5	0,215150
1,225333	0,5	0,204550
1,233667	0,5	0,211500
1,242000	0,5	0,218050
1,250333	0,5	0,242850
1,258667	0,5	0,247800
1,267000	0,5	0,257250
1,275333	0,5	0,259350
1,283667	0,5	0,263900
1,292000	0,5	0,252800
1,300333	0,5	0,258050
1,308667	0,5	0,249100
1,317000	0,5	0,255100
1,325333	0,5	0,252750
1,333667	0,5	0,256700
1,342000	0,5	0,248200
1,350333	0,5	0,257050
1,358667	0,5	0,262800
1,367000	0,5	0,252550
1,375333	0,5	0,251050
1,383667	0,5	0,253450
1,392000	0,5	0,262450
1,400333	0,5	0,277300
1,408667	0,5	0,278700
1,417000	0,5	0,271800
1,425333	0,5	0,275550
1,433667	0,5	0,273150
1,442000	0,5	0,277250
1,450333	0,5	0,269500
1,458667	0,5	0,271350
1,467000	0,5	0,278200
1,475333	0,5	0,281050
1,483667	0,5	0,281100
1,492000	0,5	0,272400
1,500333	0,5	0,277100
1,508667	0,5	0,284000
1,517000	0,5	0,263450
1,525333	0,5	0,260900
1,533667	0,5	0,260950
1,542000	0,5	0,274600
1,550333	0,5	0,298350
1,558667	0,5	0,333550
1,567000	0,5	0,456300
1,575333	0,5	0,720150
1,583667	0,5	2,289650
1,592000	0,5	11,420900
1,600333	0,5	49,117851
1,608667	0,5	175,960803
1,617000	0,5	506,304108
1,625333	0,5	1 057,650116
1,633667	0,5	1 551,541273
1,642000	0,5	1 771,623626
1,650333	0,5	1 645,622925
1,658667	0,5	1 292,697819
1,667000	0,5	894,054613
1,675333	0,5	602,132909
1,683667	0,5	420,478406
1,692000	0,5	311,946005
1,700333	0,5	246,502454
1,708667	0,5	210,717353
1,717000	0,5	186,524053
1,725333	0,5	161,973602
1,733667	0,5	135,990652
1,742000	0,5	112,925202
1,750333	0,5	96,039601
1,758667	0,5	86,305101
1,767000	0,5	82,959201
1,775333	0,5	83,865901
1,783667	0,5	86,548351
1,792000	0,5	89,141301
1,800333	0,5	89,818451
1,808667	0,5	87,141551
1,817000	0,5	81,729251
1,825333	0,5	75,366101
1,833667	0,5	69,324351
1,842000	0,5	64,124701
1,850333	0,5	59,939851
1,858667	0,5	57,005651
1,867000	0,5	55,601401
1,875333	0,5	56,274901
1,883667	0,5	58,673001
1,892000	0,5	60,292601
1,900333	0,5	58,980751
1,908667	0,5	56,859901
1,917000	0,5	59,279951
1,925333	0,5	73,515501
1,933667	0,5	114,753502
1,942000	0,5	212,177153
1,950333	0,5	372,603006
1,958667	0,5	510,719408
1,967000	0,5	521,622408
1,975333	0,5	420,600056
1,983667	0,5	297,092054
1,992000	0,5	204,129103
2,000333	0,5	146,144002
2,008667	0,5	113,408102
2,017000	0,5	99,483551
2,025333	0,5	100,010701
2,033667	0,5	104,756902
2,042000	0,5	101,717252
2,050333	0,5	89,807001
2,058667	0,5	75,836451
2,067000	0,5	64,446151
2,075333	0,5	56,151851
2,083667	0,5	50,482551
2,092000	0,5	46,972851
2,100333	0,5	44,894301
2,108667	0,5	43,657751
2,117000	0,5	42,566401
2,125333	0,5	40,878701
2,133667	0,5	38,889001
2,142000	0,5	37,193051
2,150333	0,5	35,642501
2,158667	0,5	33,977051
2,167000	0,5	32,360300
2,175333	0,5	31,078100
2,183667	0,5	30,129350
2,192000	0,5	29,461600
2,200333	0,5	29,019650
2,208667	0,5	28,797300
2,217000	0,5	28,615850
2,225333	0,5	28,310200
2,233667	0,5	27,956350
2,242000	0,5	27,757100
2,250333	0,5	27,632050
2,258667	0,5	27,664900
2,267000	0,5	28,588100
2,275333	0,5	32,874250
2,283667	0,5	37,720101
2,292000	0,5	37,184451
2,300333	0,5	33,780201
2,308667	0,5	31,438500
2,317000	0,5	30,282200
2,325333	0,5	29,744300
2,333667	0,5	29,623700
2,342000	0,5	29,873750
2,350333	0,5	30,623300
2,358667	0,5	32,121700
2,367000	0,5	34,688001
2,375333	0,5	38,321501
2,383667	0,5	42,573551
2,392000	0,5	46,745801
2,400333	0,5	50,416151
2,408667	0,5	53,493001
2,417000	0,5	55,657601
2,425333	0,5	56,404201
2,433667	0,5	55,992601
2,442000	0,5	56,257551
2,450333	0,5	60,981201
2,458667	0,5	73,888601
2,467000	0,5	96,594251
2,475333	0,5	131,730202
2,483667	0,5	196,195703
2,492000	0,5	361,613905
2,500333	0,5	746,103811
2,508667	0,5	1 224,707618
2,517000	0,5	1 515,775373
2,525333	0,5	1 569,841823
2,533667	0,5	1 452,469022
2,542000	0,5	1 244,043719
2,550333	0,5	1 017,737765
2,558667	0,5	811,005212
2,567000	0,5	641,160460
2,575333	0,5	510,926508
2,583667	0,5	412,805106
2,592000	0,5	334,751155
2,600333	0,5	276,653254
2,608667	0,5	237,719504
2,617000	0,5	217,001353
2,625333	0,5	209,840003
2,633667	0,5	207,265353
2,642000	0,5	199,872903
2,650333	0,5	183,301503
2,658667	0,5	159,580552
2,667000	0,5	134,019302
2,675333	0,5	111,021302
2,683667	0,5	92,701151
2,692000	0,5	79,020251
2,700333	0,5	69,130701
2,708667	0,5	61,980901
2,717000	0,5	56,718651
2,725333	0,5	52,673001
2,733667	0,5	49,388151
2,742000	0,5	46,620051
2,750333	0,5	44,308201
2,758667	0,5	42,412351
2,767000	0,5	40,936901
2,775333	0,5	39,747601
2,783667	0,5	38,641351
2,792000	0,5	37,352201
2,800333	0,5	35,753001
2,808667	0,5	33,903651
2,817000	0,5	31,988350
2,825333	0,5	30,189000
2,833667	0,5	28,645400
2,842000	0,5	27,332950
2,850333	0,5	26,280850
2,858667	0,5	25,487350
2,867000	0,5	25,030100
2,875333	0,5	25,102500
2,883667	0,5	25,952400
2,892000	0,5	27,846000
2,900333	0,5	30,543900
2,908667	0,5	33,122750
2,917000	0,5	34,379051
2,925333	0,5	33,747801
2,933667	0,5	31,476900
2,942000	0,5	28,350200
2,950333	0,5	25,193200
2,958667	0,5	22,556250
2,967000	0,5	20,610350
2,975333	0,5	19,266100
2,983667	0,5	18,335300
2,992000	0,5	17,636150
3,000333	0,5	17,101350
3,008667	0,5	16,656050
3,017000	0,5	16,284750
3,025333	0,5	15,951500
3,033667	0,5	15,660250
3,042000	0,5	15,387150
3,050333	0,5	15,144650
3,058667	0,5	14,876450
3,067000	0,5	14,586400
3,075333	0,5	14,257750
3,083667	0,5	13,924700
3,092000	0,5	13,598600
3,100333	0,5	13,298500
3,108667	0,5	13,030950
3,117000	0,5	12,782600
3,125333	0,5	12,563150
3,133667	0,5	12,349100
3,142000	0,5	12,161050
3,150333	0,5	12,033300
3,158667	0,5	11,971050
3,167000	0,5	11,996750
3,175333	0,5	12,066600
3,183667	0,5	12,134000
3,192000	0,5	12,173500
3,200333	0,5	12,133950
3,208667	0,5	11,999050
3,217000	0,5	11,764100
3,225333	0,5	11,478550
3,233667	0,5	11,171800
3,242000	0,5	10,890200
3,250333	0,5	10,639600
3,258667	0,5	10,426050
3,267000	0,5	10,252200
3,275333	0,5	10,132350
3,283667	0,5	10,018450
3,292000	0,5	9,950050
3,300333	0,5	9,921100
3,308667	0,5	9,930200
3,317000	0,5	9,982350
3,325333	0,5	10,054300
3,333667	0,5	10,152700
3,342000	0,5	10,265150
3,350333	0,5	10,363300
3,358667	0,5	10,442750
3,367000	0,5	10,509800
3,375333	0,5	10,568300
3,383667	0,5	10,645750
3,392000	0,5	10,727050
3,400333	0,5	10,814250
3,408667	0,5	10,853000
3,417000	0,5	10,871250
3,425333	0,5	10,842750
3,433667	0,5	10,747350
3,442000	0,5	10,613400
3,450333	0,5	10,461350
3,458667	0,5	10,285850
3,467000	0,5	10,109500
3,475333	0,5	9,894400
3,483667	0,5	9,691400
3,492000	0,5	9,486700
3,500333	0,5	9,296050
3,508667	0,5	9,098500
3,517000	0,5	8,914150
3,525333	0,5	8,740250
3,533667	0,5	8,574450
3,542000	0,5	8,431200
3,550333	0,5	8,293850
3,558667	0,5	8,173250
3,567000	0,5	8,085300
3,575333	0,5	8,021600
3,583667	0,5	7,970800
3,592000	0,5	7,970400
3,600333	0,5	8,007300
3,608667	0,5	8,091200
3,617000	0,5	8,193700
3,625333	0,5	8,314100
3,633667	0,5	8,446000
3,642000	0,5	8,597450
3,650333	0,5	8,739050
3,658667	0,5	8,897450
3,667000	0,5	9,043950
3,675333	0,5	9,211150
3,683667	0,5	9,413900
3,692000	0,5	9,662650
3,700333	0,5	9,972400
3,708667	0,5	10,318750
3,717000	0,5	10,747400
3,725333	0,5	11,195300
3,733667	0,5	11,680900
3,742000	0,5	12,241200
3,750333	0,5	12,968300
3,758667	0,5	13,993400
3,767000	0,5	15,445500
3,775333	0,5	17,407900
3,783667	0,5	19,861150
3,792000	0,5	22,538950
3,800333	0,5	25,069250
3,808667	0,5	26,970500
3,817000	0,5	27,878200
3,825333	0,5	27,598600
3,833667	0,5	26,216650
3,842000	0,5	23,988900
3,850333	0,5	21,280900
3,858667	0,5	18,481650
3,867000	0,5	15,902950
3,875333	0,5	13,671800
3,883667	0,5	11,923400
3,892000	0,5	10,640800
3,900333	0,5	9,761750
3,908667	0,5	9,210500
3,917000	0,5	8,856300
3,925333	0,5	8,630200
3,933667	0,5	8,447200
3,942000	0,5	8,276050
3,950333	0,5	8,066250
3,958667	0,5	7,837350
3,967000	0,5	7,586450
3,975333	0,5	7,343100
3,983667	0,5	7,121150
3,992000	0,5	6,946200
4,000333	0,5	6,805250
4,008667	0,5	6,716900
4,017000	0,5	6,644500
4,025333	0,5	6,577850
4,033667	0,5	6,510450
4,042000	0,5	6,437200
4,050333	0,5	6,361900
4,058667	0,5	6,275050
4,067000	0,5	6,178750
4,075333	0,5	6,079250
4,083667	0,5	6,008950
4,092000	0,5	5,956500
4,100333	0,5	5,934600
4,108667	0,5	5,933400
4,117000	0,5	5,956900
4,125333	0,5	5,985950
4,133667	0,5	6,012700
4,142000	0,5	6,015350
4,150333	0,5	5,994950
4,158667	0,5	5,955450
4,167000	0,5	5,880500
4,175333	0,5	5,778000
4,183667	0,5	5,687650
4,192000	0,5	5,585750
4,200333	0,5	5,506200
4,208667	0,5	5,424350
4,217000	0,5	5,336450
4,225333	0,5	5,262600
4,233667	0,5	5,200000
4,242000	0,5	5,147750
4,250333	0,5	5,105150
4,258667	0,5	5,069550
4,267000	0,5	5,036500
4,275333	0,5	5,017650
4,283667	0,5	5,005900
4,292000	0,5	5,001800
4,300333	0,5	4,988050
4,308667	0,5	5,004400
4,317000	0,5	4,981950
4,325333	0,5	4,968000
4,333667	0,5	4,958900
4,342000	0,5	4,950950
4,350333	0,5	4,944600
4,358667	0,5	4,923400
4,367000	0,5	4,896850
4,375333	0,5	4,876400
4,383667	0,5	4,858100
4,392000	0,5	4,831900
4,400333	0,5	4,806750
4,408667	0,5	4,791550
4,417000	0,5	4,782350
4,425333	0,5	4,774900
4,433667	0,5	4,779850
4,442000	0,5	4,773550
4,450333	0,5	4,782300
4,458667	0,5	4,800950
4,467000	0,5	4,797550
4,475333	0,5	4,804600
4,483667	0,5	4,826050
4,492000	0,5	4,846850
4,500333	0,5	4,885050
4,508667	0,5	4,903100
4,517000	0,5	4,943850
4,525333	0,5	4,987500
4,533667	0,5	5,054450
4,542000	0,5	5,128950
4,550333	0,5	5,218550
4,558667	0,5	5,310550
4,567000	0,5	5,408850
4,575333	0,5	5,509250
4,583667	0,5	5,591050
4,592000	0,5	5,648550
4,600333	0,5	5,697500
4,608667	0,5	5,716250
4,617000	0,5	5,713500
4,625333	0,5	5,696900
4,633667	0,5	5,678200
4,642000	0,5	5,666000
4,650333	0,5	5,656000
4,658667	0,5	5,650000
4,667000	0,5	5,655500
4,675333	0,5	5,684300
4,683667	0,5	5,708750
4,692000	0,5	5,744650
4,700333	0,5	5,757600
4,708667	0,5	5,751050
4,717000	0,5	5,709050
4,725333	0,5	5,632200
4,733667	0,5	5,525400
4,742000	0,5	5,379900
4,750333	0,5	5,239350
4,758667	0,5	5,077700
4,767000	0,5	4,929950
4,775333	0,5	4,806050
4,783667	0,5	4,698400
4,792000	0,5	4,609400
4,800333	0,5	4,529800
4,808667	0,5	4,446700
4,817000	0,5	4,377400
4,825333	0,5	4,308450
4,833667	0,5	4,249150
4,842000	0,5	4,190350
4,850333	0,5	4,143150
4,858667	0,5	4,098650
4,867000	0,5	4,063350
4,875333	0,5	4,034900
4,883667	0,5	4,005700
4,892000	0,5	3,973900
4,900333	0,5	3,970100
4,908667	0,5	3,947250
4,917000	0,5	3,938150
4,925333	0,5	3,937900
4,933667	0,5	3,952250
4,942000	0,5	3,974100
4,950333	0,5	3,992650
4,958667	0,5	4,008450
4,967000	0,5	4,026900
4,975333	0,5	4,051950
4,983667	0,5	4,062700
4,992000	0,5	4,067650
5,000333	0,5	4,056600
5,008667	0,5	4,040750
5,017000	0,5	4,011050
5,025333	0,5	3,975250
5,033667	0,5	3,923350
5,042000	0,5	3,888000
5,050333	0,5	3,846150
5,058667	0,5	3,799250
5,067000	0,5	3,766150
5,075333	0,5	3,742150
5,083667	0,5	3,727150
5,092000	0,5	3,717050
5,100333	0,5	3,703550
5,108667	0,5	3,694450
5,117000	0,5	3,682550
5,125333	0,5	3,674700
5,133667	0,5	3,669700
5,142000	0,5	3,662200
5,150333	0,5	3,662050
5,158667	0,5	3,659550
5,167000	0,5	3,668000
5,175333	0,5	3,669550
5,183667	0,5	3,682550
5,192000	0,5	3,717550
5,200333	0,5	3,754450
5,208667	0,5	3,800750
5,217000	0,5	3,870600
5,225333	0,5	3,946900
5,233667	0,5	4,039300
5,242000	0,5	4,115450
5,250333	0,5	4,172350
5,258667	0,5	4,207350
5,267000	0,5	4,227650
5,275333	0,5	4,231000
5,283667	0,5	4,232650
5,292000	0,5	4,239050
5,300333	0,5	4,266950
5,308667	0,5	4,325000
5,317000	0,5	4,411050
5,325333	0,5	4,533850
5,333667	0,5	4,677500
5,342000	0,5	4,852850
5,350333	0,5	5,003050
5,358667	0,5	5,151300
5,367000	0,5	5,268350
5,375333	0,5	5,348150
5,383667	0,5	5,372500
5,392000	0,5	5,324700
5,400333	0,5	5,204400
5,408667	0,5	5,035900
5,417000	0,5	4,826500
5,425333	0,5	4,592650
5,433667	0,5	4,355100
5,442000	0,5	4,136150
5,450333	0,5	3,946600
5,458667	0,5	3,793700
5,467000	0,5	3,681950
5,475333	0,5	3,594000
5,483667	0,5	3,537650
5,492000	0,5	3,518150
5,500333	0,5	3,503500
5,508667	0,5	3,516350
5,517000	0,5	3,554900
5,525333	0,5	3,621250
5,533667	0,5	3,717250
5,542000	0,5	3,819500
5,550333	0,5	3,938100
5,558667	0,5	4,062300
5,567000	0,5	4,190750
5,575333	0,5	4,283000
5,583667	0,5	4,354550
5,592000	0,5	4,382450
5,600333	0,5	4,382650
5,608667	0,5	4,354650
5,617000	0,5	4,300900
5,625333	0,5	4,236200
5,633667	0,5	4,180600
5,642000	0,5	4,120950
5,650333	0,5	4,060450
5,658667	0,5	4,011850
5,667000	0,5	3,969900
5,675333	0,5	3,933600
5,683667	0,5	3,896300
5,692000	0,5	3,853000
5,700333	0,5	3,809800
5,708667	0,5	3,777250
5,717000	0,5	3,736000
5,725333	0,5	3,701550
5,733667	0,5	3,668150
5,742000	0,5	3,643100
5,750333	0,5	3,620100
5,758667	0,5	3,610600
5,767000	0,5	3,605850
5,775333	0,5	3,612100
5,783667	0,5	3,630450
5,792000	0,5	3,653850
5,800333	0,5	3,681150
5,808667	0,5	3,714000
5,817000	0,5	3,749850
5,825333	0,5	3,782950
5,833667	0,5	3,797450
5,842000	0,5	3,785400
5,850333	0,5	3,762900
5,858667	0,5	3,724650
5,867000	0,5	3,689850
5,875333	0,5	3,645550
5,883667	0,5	3,617000
5,892000	0,5	3,594550
5,900333	0,5	3,596800
5,908667	0,5	3,609100
5,917000	0,5	3,629750
5,925333	0,5	3,657450
5,933667	0,5	3,692450
5,942000	0,5	3,702250
5,950333	0,5	3,708900
5,958667	0,5	3,701350
5,967000	0,5	3,691100
5,975333	0,5	3,669900
5,983667	0,5	3,635100
5,992000	0,5	3,593400
6,000333	0,5	3,551250
6,008667	0,5	3,504900
6,017000	0,5	3,462050
6,025333	0,5	3,421350
6,033667	0,5	3,376900
6,042000	0,5	3,338100
6,050333	0,5	3,299300
6,058667	0,5	3,273000
6,067000	0,5	3,245550
6,075333	0,5	3,235000
6,083667	0,5	3,225850
6,092000	0,5	3,220600
6,100333	0,5	3,225200
6,108667	0,5	3,233700
6,117000	0,5	3,250700
6,125333	0,5	3,272850
6,133667	0,5	3,290250
6,142000	0,5	3,299700
6,150333	0,5	3,302550
6,158667	0,5	3,310100
6,167000	0,5	3,306500
6,175333	0,5	3,305700
6,183667	0,5	3,308650
6,192000	0,5	3,324000
6,200333	0,5	3,352650
6,208667	0,5	3,387850
6,217000	0,5	3,423400
6,225333	0,5	3,464850
6,233667	0,5	3,480300
6,242000	0,5	3,475900
6,250333	0,5	3,453450
6,258667	0,5	3,413800
6,267000	0,5	3,371050
6,275333	0,5	3,311350
6,283667	0,5	3,256900
6,292000	0,5	3,199750
6,300333	0,5	3,161050
6,308667	0,5	3,123200
6,317000	0,5	3,098250
6,325333	0,5	3,076350
6,333667	0,5	3,055000
6,342000	0,5	3,038900
6,350333	0,5	3,027250
6,358667	0,5	3,018350
6,367000	0,5	3,007500
6,375333	0,5	3,006650
6,383667	0,5	2,993850
6,392000	0,5	2,989500
6,400333	0,5	2,993600
6,408667	0,5	3,002250
6,417000	0,5	3,019650
6,425333	0,5	3,032900
6,433667	0,5	3,045800
6,442000	0,5	3,070000
6,450333	0,5	3,088650
6,458667	0,5	3,118950
6,467000	0,5	3,146300
6,475333	0,5	3,190600
6,483667	0,5	3,243750
6,492000	0,5	3,304550
6,500333	0,5	3,370850
6,508667	0,5	3,426250
6,517000	0,5	3,468750
6,525333	0,5	3,495000
6,533667	0,5	3,473450
6,542000	0,5	3,439250
6,550333	0,5	3,392600
6,558667	0,5	3,346800
6,567000	0,5	3,309100
6,575333	0,5	3,276350
6,583667	0,5	3,277100
6,592000	0,5	3,297350
6,600333	0,5	3,345950
6,608667	0,5	3,419550
6,617000	0,5	3,509550
6,625333	0,5	3,610500
6,633667	0,5	3,729500
6,642000	0,5	3,867950
6,650333	0,5	4,036150
6,658667	0,5	4,232700
6,667000	0,5	4,490800
6,675333	0,5	4,809000
6,683667	0,5	5,172800
6,692000	0,5	5,575550
6,700333	0,5	5,979100
6,708667	0,5	6,317950
6,717000	0,5	6,553600
6,725333	0,5	6,628450
6,733667	0,5	6,537700
6,742000	0,5	6,297450
6,750333	0,5	5,955850
6,758667	0,5	5,567250
6,767000	0,5	5,184750
6,775333	0,5	4,862300
6,783667	0,5	4,625950
6,792000	0,5	4,485300
6,800333	0,5	4,415950
6,808667	0,5	4,410850
6,817000	0,5	4,456500
6,825333	0,5	4,512800
6,833667	0,5	4,585550
6,842000	0,5	4,679800
6,850333	0,5	4,809350
6,858667	0,5	5,014100
6,867000	0,5	5,307350
6,875333	0,5	5,729150
6,883667	0,5	6,292500
6,892000	0,5	6,966400
6,900333	0,5	7,683050
6,908667	0,5	8,349650
6,917000	0,5	8,838200
6,925333	0,5	9,057000
6,933667	0,5	8,960950
6,942000	0,5	8,554750
6,950333	0,5	7,910250
6,958667	0,5	7,135150
6,967000	0,5	6,334350
6,975333	0,5	5,584050
6,983667	0,5	4,954250
6,992000	0,5	4,450600
7,000333	0,5	4,090750
7,008667	0,5	3,836850
7,017000	0,5	3,674300
7,025333	0,5	3,572250
7,033667	0,5	3,525450
7,042000	0,5	3,497200
7,050333	0,5	3,484050
7,058667	0,5	3,460100
7,067000	0,5	3,414100
7,075333	0,5	3,348400
7,083667	0,5	3,268500
7,092000	0,5	3,189200
7,100333	0,5	3,114500
7,108667	0,5	3,065600
7,117000	0,5	3,033350
7,125333	0,5	3,006200
7,133667	0,5	2,993700
7,142000	0,5	2,982000
7,150333	0,5	2,970650
7,158667	0,5	2,960300
7,167000	0,5	2,938600
7,175333	0,5	2,921800
7,183667	0,5	2,899250
7,192000	0,5	2,881400
7,200333	0,5	2,865000
7,208667	0,5	2,847650
7,217000	0,5	2,826850
7,225333	0,5	2,808450
7,233667	0,5	2,789300
7,242000	0,5	2,766500
7,250333	0,5	2,746150
7,258667	0,5	2,742450
7,267000	0,5	2,735750
7,275333	0,5	2,731700
7,283667	0,5	2,735850
7,292000	0,5	2,744850
7,300333	0,5	2,759500
7,308667	0,5	2,766300
7,317000	0,5	2,766150
7,325333	0,5	2,756000
7,333667	0,5	2,744950
7,342000	0,5	2,726100
7,350333	0,5	2,715350
7,358667	0,5	2,708350
7,367000	0,5	2,711700
7,375333	0,5	2,723950
7,383667	0,5	2,752150
7,392000	0,5	2,792850
7,400333	0,5	2,853350
7,408667	0,5	2,932500
7,417000	0,5	3,017450
7,425333	0,5	3,099450
7,433667	0,5	3,164400
7,442000	0,5	3,192450
7,450333	0,5	3,178600
7,458667	0,5	3,122850
7,467000	0,5	3,043050
7,475333	0,5	2,967950
7,483667	0,5	2,913550
7,492000	0,5	2,884650
7,500333	0,5	2,871800
7,508667	0,5	2,869200
7,517000	0,5	2,865950
7,525333	0,5	2,855550
7,533667	0,5	2,834150
7,542000	0,5	2,799300
7,550333	0,5	2,756850
7,558667	0,5	2,713150
7,567000	0,5	2,660350
7,575333	0,5	2,619450
7,583667	0,5	2,585600
7,592000	0,5	2,567300
7,600333	0,5	2,559000
7,608667	0,5	2,553400
7,617000	0,5	2,549600
7,625333	0,5	2,558000
7,633667	0,5	2,565600
7,642000	0,5	2,575400
7,650333	0,5	2,585150
7,658667	0,5	2,591500
7,667000	0,5	2,596300
7,675333	0,5	2,605250
7,683667	0,5	2,609850
7,692000	0,5	2,613200
7,700333	0,5	2,634650
7,708667	0,5	2,657200
7,717000	0,5	2,688000
7,725333	0,5	2,738300
7,733667	0,5	2,798950
7,742000	0,5	2,851800
7,750333	0,5	2,884450
7,758667	0,5	2,878350
7,767000	0,5	2,849350
7,775333	0,5	2,794900
7,783667	0,5	2,738450
7,792000	0,5	2,690750
7,800333	0,5	2,657450
7,808667	0,5	2,641550
7,817000	0,5	2,636800
7,825333	0,5	2,646950
7,833667	0,5	2,669800
7,842000	0,5	2,726100
7,850333	0,5	2,826550
7,858667	0,5	2,982100
7,867000	0,5	3,188250
7,875333	0,5	3,417950
7,883667	0,5	3,627600
7,892000	0,5	3,767100
7,900333	0,5	3,794600
7,908667	0,5	3,720750
7,917000	0,5	3,573950
7,925333	0,5	3,406000
7,933667	0,5	3,262000
7,942000	0,5	3,169000
7,950333	0,5	3,122900
7,958667	0,5	3,118850
7,967000	0,5	3,129950
7,975333	0,5	3,124500
7,983667	0,5	3,086550
7,992000	0,5	3,021200
8,000333	0,5	2,942000
8,008667	0,5	2,854850
8,017000	0,5	2,787300
8,025333	0,5	2,739350
8,033667	0,5	2,724550
8,042000	0,5	2,730750
8,050333	0,5	2,770600
8,058667	0,5	2,822150
8,067000	0,5	2,888550
8,075333	0,5	2,948550
8,083667	0,5	2,992000
8,092000	0,5	3,004850
8,100333	0,5	2,997700
8,108667	0,5	2,980500
8,117000	0,5	2,980250
8,125333	0,5	3,007250
8,133667	0,5	3,064550
8,142000	0,5	3,160900
8,150333	0,5	3,286750
8,158667	0,5	3,430000
8,167000	0,5	3,595750
8,175333	0,5	3,774500
8,183667	0,5	3,970950
8,192000	0,5	4,171550
8,200333	0,5	4,380350
8,208667	0,5	4,594800
8,217000	0,5	4,800500
8,225333	0,5	5,000250
8,233667	0,5	5,178300
8,242000	0,5	5,330300
8,250333	0,5	5,445050
8,258667	0,5	5,507000
8,267000	0,5	5,512800
8,275333	0,5	5,456350
8,283667	0,5	5,340200
8,292000	0,5	5,177000
8,300333	0,5	4,965000
8,308667	0,5	4,718350
8,317000	0,5	4,457950
8,325333	0,5	4,204950
8,333667	0,5	3,970000
8,342000	0,5	3,770900
8,350333	0,5	3,621250
8,358667	0,5	3,532800
8,367000	0,5	3,515300
8,375333	0,5	3,568150
8,383667	0,5	3,686200
8,392000	0,5	3,857800
8,400333	0,5	4,051100
8,408667	0,5	4,239700
8,417000	0,5	4,392450
8,425333	0,5	4,486650
8,433667	0,5	4,527200
8,442000	0,5	4,546000
8,450333	0,5	4,599150
8,458667	0,5	4,766650
8,467000	0,5	5,160050
8,475333	0,5	5,899600
8,483667	0,5	7,060500
8,492000	0,5	8,610250
8,500333	0,5	10,380150
8,508667	0,5	12,063050
8,517000	0,5	13,298550
8,525333	0,5	13,798300
8,533667	0,5	13,452450
8,542000	0,5	12,377400
8,550333	0,5	10,833250
8,558667	0,5	9,142950
8,567000	0,5	7,568950
8,575333	0,5	6,254750
8,583667	0,5	5,249650
8,592000	0,5	4,535350
8,600333	0,5	4,048050
8,608667	0,5	3,736900
8,617000	0,5	3,542450
8,625333	0,5	3,426650
8,633667	0,5	3,353350
8,642000	0,5	3,286650
8,650333	0,5	3,218550
8,658667	0,5	3,140550
8,667000	0,5	3,048950
8,675333	0,5	2,960150
8,683667	0,5	2,876900
8,692000	0,5	2,808800
8,700333	0,5	2,753700
8,708667	0,5	2,715900
8,717000	0,5	2,693050
8,725333	0,5	2,679700
8,733667	0,5	2,678550
8,742000	0,5	2,692350
8,750333	0,5	2,723750
8,758667	0,5	2,783500
8,767000	0,5	2,863150
8,775333	0,5	2,965750
8,783667	0,5	3,065600
8,792000	0,5	3,137800
8,800333	0,5	3,158700
8,808667	0,5	3,130400
8,817000	0,5	3,062150
8,825333	0,5	2,977850
8,833667	0,5	2,906500
8,842000	0,5	2,859400
8,850333	0,5	2,854150
8,858667	0,5	2,877100
8,867000	0,5	2,936650
8,875333	0,5	3,020000
8,883667	0,5	3,141350
8,892000	0,5	3,285350
8,900333	0,5	3,447500
8,908667	0,5	3,617650
8,917000	0,5	3,782800
8,925333	0,5	3,921600
8,933667	0,5	4,019550
8,942000	0,5	4,055600
8,950333	0,5	4,020250
8,958667	0,5	3,911700
8,967000	0,5	3,734900
8,975333	0,5	3,518400
8,983667	0,5	3,287350
8,992000	0,5	3,074300
9,000333	0,5	2,897050
9,008667	0,5	2,763800
9,017000	0,5	2,670600
9,025333	0,5	2,608700
9,033667	0,5	2,569250
9,042000	0,5	2,548300
9,050333	0,5	2,547400
9,058667	0,5	2,559200
9,067000	0,5	2,584700
9,075333	0,5	2,612200
9,083667	0,5	2,641750
9,092000	0,5	2,653900
9,100333	0,5	2,659900
9,108667	0,5	2,655900
9,117000	0,5	2,639250
9,125333	0,5	2,615800
9,133667	0,5	2,585400
9,142000	0,5	2,555750
9,150333	0,5	2,530100
9,158667	0,5	2,509600
9,167000	0,5	2,492650
9,175333	0,5	2,485450
9,183667	0,5	2,473250
9,192000	0,5	2,467400
9,200333	0,5	2,461650
9,208667	0,5	2,461000
9,217000	0,5	2,461650
9,225333	0,5	2,470750
9,233667	0,5	2,475150
9,242000	0,5	2,476650
9,250333	0,5	2,481050
9,258667	0,5	2,486400
9,267000	0,5	2,501950
9,275333	0,5	2,530650
9,283667	0,5	2,571300
9,292000	0,5	2,612800
9,300333	0,5	2,648500
9,308667	0,5	2,667450
9,317000	0,5	2,664600
9,325333	0,5	2,647350
9,333667	0,5	2,614450
9,342000	0,5	2,577200
9,350333	0,5	2,536250
9,358667	0,5	2,496250
9,367000	0,5	2,467150
9,375333	0,5	2,443550
9,383667	0,5	2,435150
9,392000	0,5	2,432900
9,400333	0,5	2,434150
9,408667	0,5	2,437000
9,417000	0,5	2,440100
9,425333	0,5	2,444700
9,433667	0,5	2,443750
9,442000	0,5	2,439350
9,450333	0,5	2,432150
9,458667	0,5	2,429250
9,467000	0,5	2,421950
9,475333	0,5	2,419300
9,483667	0,5	2,424150
9,492000	0,5	2,439100
9,500333	0,5	2,465350
9,508667	0,5	2,513100
9,517000	0,5	2,590150
9,525333	0,5	2,684850
9,533667	0,5	2,793150
9,542000	0,5	2,891700
9,550333	0,5	2,975750
9,558667	0,5	3,029850
9,567000	0,5	3,045050
9,575333	0,5	3,032050
9,583667	0,5	2,986000
9,592000	0,5	2,919800
9,600333	0,5	2,840100
9,608667	0,5	2,754400
9,617000	0,5	2,674250
9,625333	0,5	2,614550
9,633667	0,5	2,565550
9,642000	0,5	2,529300
9,650333	0,5	2,513350
9,658667	0,5	2,503700
9,667000	0,5	2,505550
9,675333	0,5	2,517550
9,683667	0,5	2,527500
9,692000	0,5	2,543450
9,700333	0,5	2,554400
9,708667	0,5	2,553350
9,717000	0,5	2,553350
9,725333	0,5	2,540000
9,733667	0,5	2,520650
9,742000	0,5	2,504600
9,750333	0,5	2,486050
9,758667	0,5	2,467750
9,767000	0,5	2,439950
9,775333	0,5	2,408600
9,783667	0,5	2,374750
9,792000	0,5	2,338300
9,800333	0,5	2,303250
9,808667	0,5	2,285050
9,817000	0,5	2,270850
9,825333	0,5	2,268800
9,833667	0,5	2,273750
9,842000	0,5	2,287200
9,850333	0,5	2,304100
9,858667	0,5	2,327450
9,867000	0,5	2,352550
9,875333	0,5	2,382200
9,883667	0,5	2,415050
9,892000	0,5	2,456200
9,900333	0,5	2,496600
9,908667	0,5	2,528600
9,917000	0,5	2,544950
9,925333	0,5	2,540900
9,933667	0,5	2,511550
9,942000	0,5	2,466050
9,950333	0,5	2,417550
9,958667	0,5	2,370800
9,967000	0,5	2,341450
9,975333	0,5	2,315250
9,983667	0,5	2,300000
9,992000	0,5	2,298000
10,000333	0,5	2,312600
10,008667	0,5	2,345300
10,017000	0,5	2,382900
10,025333	0,5	2,429200
10,033667	0,5	2,468900
10,042000	0,5	2,509100
10,050333	0,5	2,526750
10,058667	0,5	2,524850
10,067000	0,5	2,508150
10,075333	0,5	2,475500
10,083667	0,5	2,425500
10,092000	0,5	2,372450
10,100333	0,5	2,322950
10,108667	0,5	2,284900
10,117000	0,5	2,250600
10,125333	0,5	2,220200
10,133667	0,5	2,190250
10,142000	0,5	2,162650
10,150333	0,5	2,134750
10,158667	0,5	2,106350
10,167000	0,5	2,089300
10,175333	0,5	2,074800
10,183667	0,5	2,073250
10,192000	0,5	2,082450
10,200333	0,5	2,103500
10,208667	0,5	2,141000
10,217000	0,5	2,192050
10,225333	0,5	2,248700
10,233667	0,5	2,297400
10,242000	0,5	2,331700
10,250333	0,5	2,341350
10,258667	0,5	2,334650
10,267000	0,5	2,308050
10,275333	0,5	2,272550
10,283667	0,5	2,242800
10,292000	0,5	2,211950
10,300333	0,5	2,194300
10,308667	0,5	2,178900
10,317000	0,5	2,175050
10,325333	0,5	2,165550
10,333667	0,5	2,163750
10,342000	0,5	2,168500
10,350333	0,5	2,176400
10,358667	0,5	2,184750
10,367000	0,5	2,209200
10,375333	0,5	2,240450
10,383667	0,5	2,279600
10,392000	0,5	2,339200
10,400333	0,5	2,420650
10,408667	0,5	2,540100
10,417000	0,5	2,703750
10,425333	0,5	2,916000
10,433667	0,5	3,168050
10,442000	0,5	3,446300
10,450333	0,5	3,713300
10,458667	0,5	3,932050
10,467000	0,5	4,084200
10,475333	0,5	4,164700
10,483667	0,5	4,179050
10,492000	0,5	4,150200
10,500333	0,5	4,080100
10,508667	0,5	3,990700
10,517000	0,5	3,867700
10,525333	0,5	3,717400
10,533667	0,5	3,537750
10,542000	0,5	3,341750
10,550333	0,5	3,149000
10,558667	0,5	2,965150
10,567000	0,5	2,794600
10,575333	0,5	2,648950
10,583667	0,5	2,523750
10,592000	0,5	2,418850
10,600333	0,5	2,334650
10,608667	0,5	2,266800
10,617000	0,5	2,217100
10,625333	0,5	2,176850
10,633667	0,5	2,154700
10,642000	0,5	2,145900
10,650333	0,5	2,139150
10,658667	0,5	2,142450
10,667000	0,5	2,143750
10,675333	0,5	2,137050
10,683667	0,5	2,128700
10,692000	0,5	2,118500
10,700333	0,5	2,125750
10,708667	0,5	2,153750
10,717000	0,5	2,196450
10,725333	0,5	2,250300
10,733667	0,5	2,311450
10,742000	0,5	2,353800
10,750333	0,5	2,373000
10,758667	0,5	2,362700
10,767000	0,5	2,327700
10,775333	0,5	2,275650
10,783667	0,5	2,222700
10,792000	0,5	2,175950
10,800333	0,5	2,134050
10,808667	0,5	2,107950
10,817000	0,5	2,090350
10,825333	0,5	2,079550
10,833667	0,5	2,073150
10,842000	0,5	2,074700
10,850333	0,5	2,082300
10,858667	0,5	2,092200
10,867000	0,5	2,090750
10,875333	0,5	2,097200
10,883667	0,5	2,091750
10,892000	0,5	2,097200
10,900333	0,5	2,110250
10,908667	0,5	2,125250
10,917000	0,5	2,143900
10,925333	0,5	2,154300
10,933667	0,5	2,147350
10,942000	0,5	2,123200
10,950333	0,5	2,086750
10,958667	0,5	2,055700
10,967000	0,5	2,017000
10,975333	0,5	1,990400
10,983667	0,5	1,968700
10,992000	0,5	1,963400
11,000333	0,5	1,980750
11,008667	0,5	2,013000
11,017000	0,5	2,071350
11,025333	0,5	2,153950
11,033667	0,5	2,255350
11,042000	0,5	2,361600
11,050333	0,5	2,462400
11,058667	0,5	2,533650
11,067000	0,5	2,566550
11,075333	0,5	2,565000
11,083667	0,5	2,519150
11,092000	0,5	2,441600
11,100333	0,5	2,362850
11,108667	0,5	2,307400
11,117000	0,5	2,282900
11,125333	0,5	2,290400
11,133667	0,5	2,315500
11,142000	0,5	2,374800
11,150333	0,5	2,510250
11,158667	0,5	2,894950
11,167000	0,5	3,440400
11,175333	0,5	3,820800
11,183667	0,5	3,815650
11,192000	0,5	3,587450
11,200333	0,5	3,250600
11,208667	0,5	2,740850
11,217000	0,5	2,155700
11,225333	0,5	1,611850
11,233667	0,5	1,235450
11,242000	0,5	1,006800
11,250333	0,5	0,864250
11,258667	0,5	0,763600
11,267000	0,5	0,686550
11,275333	0,5	0,630650
11,283667	0,5	0,588500
11,292000	0,5	0,564300
11,300333	0,5	0,548500
11,308667	0,5	0,538700
11,317000	0,5	0,534550
11,325333	0,5	0,537200
11,333667	0,5	0,545000
11,342000	0,5	0,555000
11,350333	0,5	0,572700
11,358667	0,5	0,581300
11,367000	0,5	0,596050
11,375333	0,5	0,610750
11,383667	0,5	0,616400
11,392000	0,5	0,615600
11,400333	0,5	0,609150
11,408667	0,5	0,595900
11,417000	0,5	0,573100
11,425333	0,5	0,541400
11,433667	0,5	0,505400
11,442000	0,5	0,476450
11,450333	0,5	0,442950
11,458667	0,5	0,408950
11,467000	0,5	0,373750
11,475333	0,5	0,347550
11,483667	0,5	0,322000
11,492000	0,5	0,297900
11,500333	0,5	0,278200
11,508667	0,5	0,263700
11,517000	0,5	0,244550
11,525333	0,5	0,231450
11,533667	0,5	0,222850
11,542000	0,5	0,217700
11,550333	0,5	0,209200
11,558667	0,5	0,203500
11,567000	0,5	0,195300
11,575333	0,5	0,189550
11,583667	0,5	0,183650
11,592000	0,5	0,189200
11,600333	0,5	0,187750
11,608667	0,5	0,189600
11,617000	0,5	0,193700
11,625333	0,5	0,199850
11,633667	0,5	0,206550
11,642000	0,5	0,221500
11,650333	0,5	0,232200
11,658667	0,5	0,242300
11,667000	0,5	0,256800
11,675333	0,5	0,271650
11,683667	0,5	0,277350
11,692000	0,5	0,291050
11,700333	0,5	0,297150
11,708667	0,5	0,303950
11,717000	0,5	0,301750
11,725333	0,5	0,291850
11,733667	0,5	0,291800
11,742000	0,5	0,289150
11,750333	0,5	0,285350
11,758667	0,5	0,278300
11,767000	0,5	0,274600
11,775333	0,5	0,268900
11,783667	0,5	0,263650
11,792000	0,5	0,261100
11,800333	0,5	0,256250
11,808667	0,5	0,254200
11,817000	0,5	0,250650
11,825333	0,5	0,247650
11,833667	0,5	0,242900
11,842000	0,5	0,248700
11,850333	0,5	0,247000
11,858667	0,5	0,246750
11,867000	0,5	0,246150
11,875333	0,5	0,243350
11,883667	0,5	0,244850
11,892000	0,5	0,253800
11,900333	0,5	0,255450
11,908667	0,5	0,263350
11,917000	0,5	0,266050
11,925333	0,5	0,270250
11,933667	0,5	0,275900
11,942000	0,5	0,284000
11,950333	0,5	0,289100
11,958667	0,5	0,297200
11,967000	0,5	0,307300
11,975333	0,5	0,314550
11,983667	0,5	0,324150
11,992000	0,5	0,336100
12,000333	0,5	0,348400
12,008667	0,5	0,356100
12,017000	0,5	0,364150
12,025333	0,5	0,372400
12,033667	0,5	0,391550
12,042000	0,5	0,407000
12,050333	0,5	0,428100
12,058667	0,5	0,445400
12,067000	0,5	0,467150
12,075333	0,5	0,489200
12,083667	0,5	0,516350
12,092000	0,5	0,542200
12,100333	0,5	0,571350
12,108667	0,5	0,604950
12,117000	0,5	0,642500
12,125333	0,5	0,671150
12,133667	0,5	0,720200
12,142000	0,5	0,762850
12,150333	0,5	0,810450
12,158667	0,5	0,856550
12,167000	0,5	0,903350
12,175333	0,5	0,951650
12,183667	0,5	1,006700
12,192000	0,5	1,057500
12,200333	0,5	1,117000
12,208667	0,5	1,168600
12,217000	0,5	1,217100
12,225333	0,5	1,267650
12,233667	0,5	1,313400
12,242000	0,5	1,363150
12,250333	0,5	1,403850
12,258667	0,5	1,448450
12,267000	0,5	1,486850
12,275333	0,5	1,522150
12,283667	0,5	1,563200
12,292000	0,5	1,595600
12,300333	0,5	1,623900
12,308667	0,5	1,649350
12,317000	0,5	1,671250
12,325333	0,5	1,695900
12,333667	0,5	1,723000
12,342000	0,5	1,744750
12,350333	0,5	1,763050
12,358667	0,5	1,784650
12,367000	0,5	1,800550
12,375333	0,5	1,817100
12,383667	0,5	1,831350
12,392000	0,5	1,845550
12,400333	0,5	1,860100
12,408667	0,5	1,871300
12,417000	0,5	1,879650
12,425333	0,5	1,887050
12,433667	0,5	1,903100
12,442000	0,5	1,910050
12,450333	0,5	1,915500
12,458667	0,5	1,922050
12,467000	0,5	1,927900
12,475333	0,5	1,937100
12,483667	0,5	1,945600
12,492000	0,5	1,947600
12,500333	0,5	1,956600
12,508667	0,5	1,959800
12,517000	0,5	1,959400
12,525333	0,5	1,964450
12,533667	0,5	1,965900
12,542000	0,5	1,970050
12,550333	0,5	1,968200
12,558667	0,5	1,974100
12,567000	0,5	1,972900
12,575333	0,5	1,977600
12,583667	0,5	1,981200
12,592000	0,5	1,979900
12,600333	0,5	1,979600
12,608667	0,5	1,975200
12,617000	0,5	1,973950
12,625333	0,5	1,980250
12,633667	0,5	1,983250
12,642000	0,5	1,984700
12,650333	0,5	1,988050
12,658667	0,5	1,989150
12,667000	0,5	1,992950
12,675333	0,5	1,993650
12,683667	0,5	1,996600
12,692000	0,5	1,998100
12,700333	0,5	2,000700
12,708667	0,5	2,000950
12,717000	0,5	1,997500
12,725333	0,5	2,007650
12,733667	0,5	2,005400
12,742000	0,5	2,010050
12,750333	0,5	2,004700
12,758667	0,5	1,998250
12,767000	0,5	2,003000
12,775333	0,5	2,003300
12,783667	0,5	2,009050
12,792000	0,5	2,007800
12,800333	0,5	2,011000
12,808667	0,5	2,008350
12,817000	0,5	2,010000
12,825333	0,5	2,008800
12,833667	0,5	2,009750
12,842000	0,5	2,012000
12,850333	0,5	2,013700
12,858667	0,5	2,011050
12,867000	0,5	2,017550
12,875333	0,5	2,024500
12,883667	0,5	2,024600
12,892000	0,5	2,023500
12,900333	0,5	2,019700
12,908667	0,5	2,020350
12,917000	0,5	2,017600
12,925333	0,5	2,025650
12,933667	0,5	2,026000
12,942000	0,5	2,030650
12,950333	0,5	2,031350
12,958667	0,5	2,034700
12,967000	0,5	2,033050
12,975333	0,5	2,036800
12,983667	0,5	2,041250
12,992000	0,5	2,047050
13,000333	0,5	2,047400
13,008667	0,5	2,045850
13,017000	0,5	2,049400
13,025333	0,5	2,059850
13,033667	0,5	2,061000
13,042000	0,5	2,062000
13,050333	0,5	2,059800
13,058667	0,5	2,061000
13,067000	0,5	2,067650
13,075333	0,5	2,065550
13,083667	0,5	2,070600
13,092000	0,5	2,073050
13,100333	0,5	2,081400
13,108667	0,5	2,081250
13,117000	0,5	2,085750
13,125333	0,5	2,089050
13,133667	0,5	2,095100
13,142000	0,5	2,098850
13,150333	0,5	2,105100
13,158667	0,5	2,098800
13,167000	0,5	2,109450
13,175333	0,5	2,112350
13,183667	0,5	2,114200
13,192000	0,5	2,113800
13,200333	0,5	2,110350
13,208667	0,5	2,119950
13,217000	0,5	2,126900
13,225333	0,5	2,135000
13,233667	0,5	2,143250
13,242000	0,5	2,153250
13,250333	0,5	2,157900
13,258667	0,5	2,165200
13,267000	0,5	2,172300
13,275333	0,5	2,171400
13,283667	0,5	2,176400
13,292000	0,5	2,189250
13,300333	0,5	2,189100
13,308667	0,5	2,192150
13,317000	0,5	2,193900
13,325333	0,5	2,197850
13,333667	0,5	2,199800
13,342000	0,5	2,203450
13,350333	0,5	2,211600
13,358667	0,5	2,227450
13,367000	0,5	2,236150
13,375333	0,5	2,246550
13,383667	0,5	2,251500
13,392000	0,5	2,250550
13,400333	0,5	2,245900
13,408667	0,5	2,228900
13,417000	0,5	2,214150
13,425333	0,5	2,202350
13,433667	0,5	2,194500
13,442000	0,5	2,190900
13,450333	0,5	2,187050
13,458667	0,5	2,191250
13,467000	0,5	2,197050
13,475333	0,5	2,197700
13,483667	0,5	2,200000
13,492000	0,5	2,192050
13,500333	0,5	2,204800
13,508667	0,5	2,223750
13,517000	0,5	2,247150
13,525333	0,5	2,278400
13,533667	0,5	2,313450
13,542000	0,5	2,332600
13,550333	0,5	2,341700
13,558667	0,5	2,334800
13,567000	0,5	2,310150
13,575333	0,5	2,285700
13,583667	0,5	2,258850
13,592000	0,5	2,238750
13,600333	0,5	2,214850
13,608667	0,5	2,209550
13,617000	0,5	2,203250
13,625333	0,5	2,208750
13,633667	0,5	2,212050
13,642000	0,5	2,218700
13,650333	0,5	2,244400
13,658667	0,5	2,274700
13,667000	0,5	2,300500
13,675333	0,5	2,330050
13,683667	0,5	2,342600
13,692000	0,5	2,348550
13,700333	0,5	2,333450
13,708667	0,5	2,309050
13,717000	0,5	2,271100
13,725333	0,5	2,236850
13,733667	0,5	2,210700
13,742000	0,5	2,179900
13,750333	0,5	2,156750
13,758667	0,5	2,150700
13,767000	0,5	2,153800
13,775333	0,5	2,161450
13,783667	0,5	2,173600
13,792000	0,5	2,185000
13,800333	0,5	2,197900
13,808667	0,5	2,202100
13,817000	0,5	2,201900
13,825333	0,5	2,187350
13,833667	0,5	2,171800
13,842000	0,5	2,146350
13,850333	0,5	2,124550
13,858667	0,5	2,102750
13,867000	0,5	2,087450
13,875333	0,5	2,080850
13,883667	0,5	2,076750
13,892000	0,5	2,070150
13,900333	0,5	2,074250
13,908667	0,5	2,075950
13,917000	0,5	2,072200
13,925333	0,5	2,066650
13,933667	0,5	2,049650
13,942000	0,5	2,039750
13,950333	0,5	2,029300
13,958667	0,5	2,021000
13,967000	0,5	2,003850
13,975333	0,5	1,997350
13,983667	0,5	1,986900
13,992000	0,5	1,977350
14,000333	0,5	1,965700
14,008667	0,5	1,956150
14,017000	0,5	1,943100
14,025333	0,5	1,936400
14,033667	0,5	1,921050
14,042000	0,5	1,903750
14,050333	0,5	1,897800
14,058667	0,5	1,894800
14,067000	0,5	1,883000
14,075333	0,5	1,873000
14,083667	0,5	1,860400
14,092000	0,5	1,857300
14,100333	0,5	1,860650
14,108667	0,5	1,850100
14,117000	0,5	1,847300
14,125333	0,5	1,840600
14,133667	0,5	1,834700
14,142000	0,5	1,824550
14,150333	0,5	1,820300
14,158667	0,5	1,807900
14,167000	0,5	1,798550
14,175333	0,5	1,788950
14,183667	0,5	1,780650
14,192000	0,5	1,768600
14,200333	0,5	1,773600
14,208667	0,5	1,768900
14,217000	0,5	1,759550
14,225333	0,5	1,750850
14,233667	0,5	1,740050
14,242000	0,5	1,742150
14,250333	0,5	1,737600
14,258667	0,5	1,734600
14,267000	0,5	1,731250
14,275333	0,5	1,730250
14,283667	0,5	1,721400
14,292000	0,5	1,716300
14,300333	0,5	1,709200
14,308667	0,5	1,697350
14,317000	0,5	1,691650
14,325333	0,5	1,690350
14,333667	0,5	1,671400
14,342000	0,5	1,667900
14,350333	0,5	1,662100
14,358667	0,5	1,655550
14,367000	0,5	1,641950
14,375333	0,5	1,625700
14,383667	0,5	1,618150
14,392000	0,5	1,617550
14,400333	0,5	1,615050
14,408667	0,5	1,604750
14,417000	0,5	1,606200
14,425333	0,5	1,602350
14,433667	0,5	1,601050
14,442000	0,5	1,597100
14,450333	0,5	1,588800
14,458667	0,5	1,580000
14,467000	0,5	1,573450
14,475333	0,5	1,567950
14,483667	0,5	1,552250
14,492000	0,5	1,551500
14,500333	0,5	1,553750
14,508667	0,5	1,547750
14,517000	0,5	1,544250
14,525333	0,5	1,529100
14,533667	0,5	1,528200
14,542000	0,5	1,522250
14,550333	0,5	1,518150
14,558667	0,5	1,510050
14,567000	0,5	1,502450
14,575333	0,5	1,495150
14,583667	0,5	1,493950
14,592000	0,5	1,494300
14,600333	0,5	1,487000
14,608667	0,5	1,482300
14,617000	0,5	1,475000
14,625333	0,5	1,474350
14,633667	0,5	1,459750
14,642000	0,5	1,465400
14,650333	0,5	1,452200
14,658667	0,5	1,448700
14,667000	0,5	1,433750
14,675333	0,5	1,420150
14,683667	0,5	1,418300
14,692000	0,5	1,416850
14,700333	0,5	1,405000
14,708667	0,5	1,401200
14,717000	0,5	1,391600
14,725333	0,5	1,389800
14,733667	0,5	1,387450
14,742000	0,5	1,382750
14,750333	0,5	1,378050
14,758667	0,5	1,371400
14,767000	0,5	1,367950
14,775333	0,5	1,358400
14,783667	0,5	1,354900
14,792000	0,5	1,358850
14,800333	0,5	1,354350
14,808667	0,5	1,338950
14,817000	0,5	1,324900
14,825333	0,5	1,315700
14,833667	0,5	1,316550
14,842000	0,5	1,305450
14,850333	0,5	1,302900
14,858667	0,5	1,292750
14,867000	0,5	1,293650
14,875333	0,5	1,287800
14,883667	0,5	1,286500
14,892000	0,5	1,277500
14,900333	0,5	1,270850
14,908667	0,5	1,267800
14,917000	0,5	1,263900
14,925333	0,5	1,250400
14,933667	0,5	1,251450
14,942000	0,5	1,249550
14,950333	0,5	1,242300
14,958667	0,5	1,237150
14,967000	0,5	1,219850
14,975333	0,5	1,217750
14,983667	0,5	1,213500
14,992000	0,5	1,211250
15,000333	0,5	1,209500
15,008667	0,5	1,203250
15,017000	0,5	1,199300
15,025333	0,5	1,197850
15,033667	0,5	1,194050
15,042000	0,5	1,192000
15,050333	0,5	1,183700
15,058667	0,5	1,188000
15,067000	0,5	1,181750
15,075333	0,5	1,173450
15,083667	0,5	1,174300
15,092000	0,5	1,172450
15,100333	0,5	1,166600
15,108667	0,5	1,153150
15,117000	0,5	1,150650
15,125333	0,5	1,149350
15,133667	0,5	1,153450
15,142000	0,5	1,145900
15,150333	0,5	1,151650
15,158667	0,5	1,148100
15,167000	0,5	1,149350
15,175333	0,5	1,147750
15,183667	0,5	1,146800
15,192000	0,5	1,147750
15,200333	0,5	1,144350
15,208667	0,5	1,141200
15,217000	0,5	1,129350
15,225333	0,5	1,129600
15,233667	0,5	1,131300
15,242000	0,5	1,133400
15,250333	0,5	1,128100
15,258667	0,5	1,113100
15,267000	0,5	1,105250
15,275333	0,5	1,106050
15,283667	0,5	1,101450
15,292000	0,5	1,098150
15,300333	0,5	1,089800
15,308667	0,5	1,086400
15,317000	0,5	1,082400
15,325333	0,5	1,086200
15,333667	0,5	1,080350
15,342000	0,5	1,075900
15,350333	0,5	1,076850
15,358667	0,5	1,073300
15,367000	0,5	1,057200
15,375333	0,5	1,062200
15,383667	0,5	1,056850
15,392000	0,5	1,055550
15,400333	0,5	1,041600
15,408667	0,5	1,031300
15,417000	0,5	1,034500
15,425333	0,5	1,031250
15,433667	0,5	1,024500
15,442000	0,5	1,018850
15,450333	0,5	1,013850
15,458667	0,5	1,001200
15,467000	0,5	0,995500
15,475333	0,5	0,982600
15,483667	0,5	0,981450
15,492000	0,5	0,967350
15,500333	0,5	0,966900
15,508667	0,5	0,956000
15,517000	0,5	0,941350
15,525333	0,5	0,941400
15,533667	0,5	0,938650
15,542000	0,5	0,928050
15,550333	0,5	0,923600
15,558667	0,5	0,906750
15,567000	0,5	0,908250
15,575333	0,5	0,908850
15,583667	0,5	0,914450
15,592000	0,5	0,911600
15,600333	0,5	0,908750
15,608667	0,5	0,913700
15,617000	0,5	0,917300
15,625333	0,5	0,921000
15,633667	0,5	0,919250
15,642000	0,5	0,924300
15,650333	0,5	0,922050
15,658667	0,5	0,919700
15,667000	0,5	0,916050
15,675333	0,5	0,921800
15,683667	0,5	0,918100
15,692000	0,5	0,910600
15,700333	0,5	0,890450
15,708667	0,5	0,878350
15,717000	0,5	0,874150
15,725333	0,5	0,872200
15,733667	0,5	0,862700
15,742000	0,5	0,859350
15,750333	0,5	0,848600
15,758667	0,5	0,843550
15,767000	0,5	0,836200
15,775333	0,5	0,828200
15,783667	0,5	0,830650
15,792000	0,5	0,829300
15,800333	0,5	0,824600
15,808667	0,5	0,815400
15,817000	0,5	0,823300
15,825333	0,5	0,820100
15,833667	0,5	0,816300
15,842000	0,5	0,806250
15,850333	0,5	0,795450
15,858667	0,5	0,779000
15,867000	0,5	0,777650
15,875333	0,5	0,770800
15,883667	0,5	0,769500
15,892000	0,5	0,756650
15,900333	0,5	0,753950
15,908667	0,5	0,749500
15,917000	0,5	0,748900
15,925333	0,5	0,742150
15,933667	0,5	0,735750
15,942000	0,5	0,741150
15,950333	0,5	0,731050
15,958667	0,5	0,721900
15,967000	0,5	0,728700
15,975333	0,5	0,730850
15,983667	0,5	0,720650
15,992000	0,5	0,711650
16,000333	0,5	0,698250
16,008667	0,5	0,697800
16,017000	0,5	0,685850
16,025333	0,5	0,689400
16,033667	0,5	0,681750
16,042000	0,5	0,682200
16,050333	0,5	0,674650
16,058667	0,5	0,671550
16,067000	0,5	0,673350
16,075333	0,5	0,669650
16,083667	0,5	0,674450
16,092000	0,5	0,678600
16,100333	0,5	0,654800
16,108667	0,5	0,655400
16,117000	0,5	0,654400
16,125333	0,5	0,642900
16,133667	0,5	0,634700
16,142000	0,5	0,617950
16,150333	0,5	0,617200
16,158667	0,5	0,610300
16,167000	0,5	0,612450
16,175333	0,5	0,605100
16,183667	0,5	0,609050
16,192000	0,5	0,604450
16,200333	0,5	0,599450
16,208667	0,5	0,598700
16,217000	0,5	0,597700
16,225333	0,5	0,596750
16,233667	0,5	0,595650
16,242000	0,5	0,596600
16,250333	0,5	0,590050
16,258667	0,5	0,597800
16,267000	0,5	0,606000
16,275333	0,5	0,609750
16,283667	0,5	0,604550
16,292000	0,5	0,595000
16,300333	0,5	0,594550
16,308667	0,5	0,606450
16,317000	0,5	0,610150
16,325333	0,5	0,620800
16,333667	0,5	0,620150
16,342000	0,5	0,630200
16,350333	0,5	0,633350
16,358667	0,5	0,635300
16,367000	0,5	0,635800
16,375333	0,5	0,638500
16,383667	0,5	0,638600
16,392000	0,5	0,637950
16,400333	0,5	0,619750
16,408667	0,5	0,637000
16,417000	0,5	0,636000
16,425333	0,5	0,636500
16,433667	0,5	0,629500
16,442000	0,5	0,626700
16,450333	0,5	0,644200
16,458667	0,5	0,644950
16,467000	0,5	0,651850
16,475333	0,5	0,655800
16,483667	0,5	0,664050
16,492000	0,5	0,668600
16,500333	0,5	0,676150
16,508667	0,5	0,682800
16,517000	0,5	0,692350
16,525333	0,5	0,696250
16,533667	0,5	0,710100
16,542000	0,5	0,705450
16,550333	0,5	0,708950
16,558667	0,5	0,718550
16,567000	0,5	0,717200
16,575333	0,5	0,712250
16,583667	0,5	0,708000
16,592000	0,5	0,694900
16,600333	0,5	0,690300
16,608667	0,5	0,693250
16,617000	0,5	0,699450
16,625333	0,5	0,692500
16,633667	0,5	0,696350
16,642000	0,5	0,698850
16,650333	0,5	0,701450
16,658667	0,5	0,703550
16,667000	0,5	0,698800
16,675333	0,5	0,707400
16,683667	0,5	0,708700
16,692000	0,5	0,700350
16,700333	0,5	0,702850
16,708667	0,5	0,711200
16,717000	0,5	0,712650
16,725333	0,5	0,710800
16,733667	0,5	0,700700
16,742000	0,5	0,700900
16,750333	0,5	0,701000
16,758667	0,5	0,710500
16,767000	0,5	0,711750
16,775333	0,5	0,711850
16,783667	0,5	0,711450
16,792000	0,5	0,715950
16,800333	0,5	0,725750
16,808667	0,5	0,742650
16,817000	0,5	0,763700
16,825333	0,5	0,786650
16,833667	0,5	0,804100
16,842000	0,5	0,814200
16,850333	0,5	0,824950
16,858667	0,5	0,819300
16,867000	0,5	0,805300
16,875333	0,5	0,777400
16,883667	0,5	0,749900
16,892000	0,5	0,739750
16,900333	0,5	0,728350
16,908667	0,5	0,723000
16,917000	0,5	0,723450
16,925333	0,5	0,715550
16,933667	0,5	0,710800
16,942000	0,5	0,699600
16,950333	0,5	0,683150
16,958667	0,5	0,667250
16,967000	0,5	0,651850
16,975333	0,5	0,640700
16,983667	0,5	0,618300
16,992000	0,5	0,609450
17,000333	0,5	0,604700
17,008667	0,5	0,600100
17,017000	0,5	0,600100
17,025333	0,5	0,586900
17,033667	0,5	0,586250
17,042000	0,5	0,586200
17,050333	0,5	0,583250
17,058667	0,5	0,581150
17,067000	0,5	0,572800
17,075333	0,5	0,565250
17,083667	0,5	0,546500
17,092000	0,5	0,532500
17,100333	0,5	0,519350
17,108667	0,5	0,505900
17,117000	0,5	0,501100
17,125333	0,5	0,494900
17,133667	0,5	0,471950
17,142000	0,5	0,473650
17,150333	0,5	0,469700
17,158667	0,5	0,459550
17,167000	0,5	0,452850
17,175333	0,5	0,430650
17,183667	0,5	0,428350
17,192000	0,5	0,413950
17,200333	0,5	0,414650
17,208667	0,5	0,414750
17,217000	0,5	0,414850
17,225333	0,5	0,410800
17,233667	0,5	0,413400
17,242000	0,5	0,409750
17,250333	0,5	0,404400
17,258667	0,5	0,394150
17,267000	0,5	0,383700
17,275333	0,5	0,369350
17,283667	0,5	0,344600
17,292000	0,5	0,341750
17,300333	0,5	0,327600
17,308667	0,5	0,313100
17,317000	0,5	0,297500
17,325333	0,5	0,278400
17,333667	0,5	0,278200
17,342000	0,5	0,279550
17,350333	0,5	0,266600
17,358667	0,5	0,267950
17,367000	0,5	0,264500
17,375333	0,5	0,266450
17,383667	0,5	0,259800
17,392000	0,5	0,256450
17,400333	0,5	0,251700
17,408667	0,5	0,247850
17,417000	0,5	0,247600
17,425333	0,5	0,239800
17,433667	0,5	0,241950
17,442000	0,5	0,248900
17,450333	0,5	0,240100
17,458667	0,5	0,231650
17,467000	0,5	0,215800
17,475333	0,5	0,205150
17,483667	0,5	0,211200
17,492000	0,5	0,196350
17,500333	0,5	0,199750
17,508667	0,5	0,193550
17,517000	0,5	0,193600
17,525333	0,5	0,189600
17,533667	0,5	0,192650
17,542000	0,5	0,190100
17,550333	0,5	0,187900
17,558667	0,5	0,186750
17,567000	0,5	0,190950
17,575333	0,5	0,179600
17,583667	0,5	0,190250
17,592000	0,5	0,183250
17,600333	0,5	0,185500
17,608667	0,5	0,175300
17,617000	0,5	0,158700
17,625333	0,5	0,156650
17,633667	0,5	0,158500
17,642000	0,5	0,156300
17,650333	0,5	0,152750
17,658667	0,5	0,152500
17,667000	0,5	0,146250
17,675333	0,5	0,142500
17,683667	0,5	0,137550
17,692000	0,5	0,130150
17,700333	0,5	0,122700
17,708667	0,5	0,125550
17,717000	0,5	0,117100
17,725333	0,5	0,108550
17,733667	0,5	0,111400
17,742000	0,5	0,104450
17,750333	0,5	0,095250
17,758667	0,5	0,079500
17,767000	0,5	0,067150
17,775333	0,5	0,060300
17,783667	0,5	0,058600
17,792000	0,5	0,055900
17,800333	0,5	0,051850
17,808667	0,5	0,049600
17,817000	0,5	0,045100
17,825333	0,5	0,033800
17,833667	0,5	0,030900
17,842000	0,5	0,017500
17,850333	0,5	0,017300
17,858667	0,5	0,010050
17,867000	0,5	-0,006650
17,875333	0,5	-0,015000
17,883667	0,5	-0,012850
17,892000	0,5	-0,026100
17,900333	0,5	-0,029150
17,908667	0,5	-0,049550
17,917000	0,5	-0,055850
17,925333	0,5	-0,056000
17,933667	0,5	-0,056150
17,942000	0,5	-0,063700
17,950333	0,5	-0,066500
17,958667	0,5	-0,067750
17,967000	0,5	-0,075250
17,975333	0,5	-0,069950
17,983667	0,5	-0,075300
17,992000	0,5	-0,079800
18,000333	0,5	-0,079150
18,008667	0,5	-0,080200
18,017000	0,5	-0,093650
18,025333	0,5	-0,088100
18,033667	0,5	-0,090800
18,042000	0,5	-0,097700
18,050333	0,5	-0,106050
18,058667	0,5	-0,119750
18,067000	0,5	-0,124850
18,075333	0,5	-0,125750
18,083667	0,5	-0,136650
18,092000	0,5	-0,138850
18,100333	0,5	-0,141550
18,108667	0,5	-0,137450
18,117000	0,5	-0,140350
18,125333	0,5	-0,142250
18,133667	0,5	-0,140650
18,142000	0,5	-0,146450
18,150333	0,5	-0,135350
18,158667	0,5	-0,140950
18,167000	0,5	-0,144250
18,175333	0,5	-0,140500
18,183667	0,5	-0,144600
18,192000	0,5	-0,155850
18,200333	0,5	-0,160200
18,208667	0,5	-0,165250
18,217000	0,5	-0,158150
18,225333	0,5	-0,161750
18,233667	0,5	-0,160100
18,242000	0,5	-0,161750
18,250333	0,5	-0,158350
18,258667	0,5	-0,163150
18,267000	0,5	-0,162000
18,275333	0,5	-0,158400
18,283667	0,5	-0,166650
18,292000	0,5	-0,164700
18,300333	0,5	-0,155600
18,308667	0,5	-0,167650
18,317000	0,5	-0,164000
18,325333	0,5	-0,155550
18,333667	0,5	-0,156100
18,342000	0,5	-0,158300
18,350333	0,5	-0,170250
18,358667	0,5	-0,168350
18,367000	0,5	-0,165850
18,375333	0,5	-0,158650
18,383667	0,5	-0,167100
18,392000	0,5	-0,161850
18,400333	0,5	-0,160200
18,408667	0,5	-0,155700
18,417000	0,5	-0,151500
18,425333	0,5	-0,151000
18,433667	0,5	-0,148150
18,442000	0,5	-0,146800
18,450333	0,5	-0,135450
18,458667	0,5	-0,147250
18,467000	0,5	-0,131600
18,475333	0,5	-0,129000
18,483667	0,5	-0,129900
18,492000	0,5	-0,139400
18,500333	0,5	-0,149650
18,508667	0,5	-0,148900
18,517000	0,5	-0,141450
18,525333	0,5	-0,147150
18,533667	0,5	-0,143500
18,542000	0,5	-0,144400
18,550333	0,5	-0,142000
18,558667	0,5	-0,146200
18,567000	0,5	-0,140000
18,575333	0,5	-0,140400
18,583667	0,5	-0,141250
18,592000	0,5	-0,137550
18,600333	0,5	-0,136150
18,608667	0,5	-0,144200
18,617000	0,5	-0,130050
18,625333	0,5	-0,132900
18,633667	0,5	-0,133900
18,642000	0,5	-0,141700
18,650333	0,5	-0,157350
18,658667	0,5	-0,150200
18,667000	0,5	-0,152250
18,675333	0,5	-0,146900
18,683667	0,5	-0,156050
18,692000	0,5	-0,155500
18,700333	0,5	-0,155950
18,708667	0,5	-0,153650
18,717000	0,5	-0,158800
18,725333	0,5	-0,162600
18,733667	0,5	-0,160500
18,742000	0,5	-0,155750
18,750333	0,5	-0,170550
18,758667	0,5	-0,166950
18,767000	0,5	-0,165900
18,775333	0,5	-0,172650
18,783667	0,5	-0,185300
18,792000	0,5	-0,201000
18,800333	0,5	-0,205000
18,808667	0,5	-0,207250
18,817000	0,5	-0,205700
18,825333	0,5	-0,205100
18,833667	0,5	-0,202200
18,842000	0,5	-0,209450
18,850333	0,5	-0,206400
18,858667	0,5	-0,213200
18,867000	0,5	-0,211300
18,875333	0,5	-0,213850
18,883667	0,5	-0,213000
18,892000	0,5	-0,220350
18,900333	0,5	-0,227650
18,908667	0,5	-0,230950
18,917000	0,5	-0,226200
18,925333	0,5	-0,237050
18,933667	0,5	-0,252700
18,942000	0,5	-0,265600
18,950333	0,5	-0,269650
18,958667	0,5	-0,266200
18,967000	0,5	-0,268400
18,975333	0,5	-0,272300
18,983667	0,5	-0,282050
18,992000	0,5	-0,285350
19,000333	0,5	-0,289450
19,008667	0,5	-0,294500
19,017000	0,5	-0,299550
19,025333	0,5	-0,298250
19,033667	0,5	-0,298950
19,042000	0,5	-0,306500
19,050333	0,5	-0,312850
19,058667	0,5	-0,307250
19,067000	0,5	-0,311900
19,075333	0,5	-0,319500
19,083667	0,5	-0,347950
19,092000	0,5	-0,351300
19,100333	0,5	-0,346800
19,108667	0,5	-0,358150
19,117000	0,5	-0,364100
19,125333	0,5	-0,368500
19,133667	0,5	-0,372100
19,142000	0,5	-0,375500
19,150333	0,5	-0,380150
19,158667	0,5	-0,386000
19,167000	0,5	-0,388500
19,175333	0,5	-0,387500
19,183667	0,5	-0,384100
19,192000	0,5	-0,407850
19,200333	0,5	-0,401500
19,208667	0,5	-0,406050
19,217000	0,5	-0,415750
19,225333	0,5	-0,428550
19,233667	0,5	-0,452800
19,242000	0,5	-0,448350
19,250333	0,5	-0,451600
19,258667	0,5	-0,458350
19,267000	0,5	-0,462500
19,275333	0,5	-0,471600
19,283667	0,5	-0,478650
19,292000	0,5	-0,474800
19,300333	0,5	-0,477100
19,308667	0,5	-0,478400
19,317000	0,5	-0,487800
19,325333	0,5	-0,479100
19,333667	0,5	-0,483200
19,342000	0,5	-0,498200
19,350333	0,5	-0,491500
19,358667	0,5	-0,498250
19,367000	0,5	-0,504550
19,375333	0,5	-0,518350
19,383667	0,5	-0,537350
19,392000	0,5	-0,526800
19,400333	0,5	-0,532500
19,408667	0,5	-0,533100
19,417000	0,5	-0,535400
19,425333	0,5	-0,529750
19,433667	0,5	-0,533100
19,442000	0,5	-0,527250
19,450333	0,5	-0,531400
19,458667	0,5	-0,534850
19,467000	0,5	-0,531500
19,475333	0,5	-0,534150
19,483667	0,5	-0,541500
19,492000	0,5	-0,543450
19,500333	0,5	-0,532300
19,508667	0,5	-0,539100
19,517000	0,5	-0,545650
19,525333	0,5	-0,561050
19,533667	0,5	-0,569350
19,542000	0,5	-0,562200
19,550333	0,5	-0,561900
19,558667	0,5	-0,562600
19,567000	0,5	-0,563250
19,575333	0,5	-0,569400
19,583667	0,5	-0,569650
19,592000	0,5	-0,570250
19,600333	0,5	-0,579050
19,608667	0,5	-0,576400
19,617000	0,5	-0,578600
19,625333	0,5	-0,577050
19,633667	0,5	-0,589800
19,642000	0,5	-0,581400
19,650333	0,5	-0,580250
19,658667	0,5	-0,586050
19,667000	0,5	-0,595700
19,675333	0,5	-0,609250
19,683667	0,5	-0,613050
19,692000	0,5	-0,606400
19,700333	0,5	-0,615100
19,708667	0,5	-0,613500
19,717000	0,5	-0,624400
19,725333	0,5	-0,625600
19,733667	0,5	-0,630200
19,742000	0,5	-0,631700
19,750333	0,5	-0,636700
19,758667	0,5	-0,640350
19,767000	0,5	-0,632700
19,775333	0,5	-0,640600
19,783667	0,5	-0,647950
19,792000	0,5	-0,644800
19,800333	0,5	-0,650600
19,808667	0,5	-0,654250
19,817000	0,5	-0,668400
19,825333	0,5	-0,678600
19,833667	0,5	-0,675950
19,842000	0,5	-0,676950
19,850333	0,5	-0,667550
19,858667	0,5	-0,672800
19,867000	0,5	-0,667900
19,875333	0,5	-0,675900
19,883667	0,5	-0,664450
19,892000	0,5	-0,666950
19,900333	0,5	-0,670200
19,908667	0,5	-0,662300
19,917000	0,5	-0,656550
19,925333	0,5	-0,671600
19,933667	0,5	-0,668700
19,942000	0,5	-0,664550
19,950333	0,5	-0,675650
19,958667	0,5	-0,677400
19,967000	0,5	-0,700700
19,975333	0,5	-0,707300
19,983667	0,5	-0,706750
19,992000	0,5	-0,701650
20,000333	0,5	-0,709950
20,008667	0,5	-0,708500
20,017000	0,5	-0,714750
20,025333	0,5	-0,709350
20,033667	0,5	-0,713100
20,042000	0,5	-0,714400
20,050333	0,5	-0,716150
20,058667	0,5	-0,708550
20,067000	0,5	-0,708650
20,075333	0,5	-0,723900
20,083667	0,5	-0,714100
20,092000	0,5	-0,707950
20,100333	0,5	-0,714050
20,108667	0,5	-0,723350
20,117000	0,5	-0,731350
20,125333	0,5	-0,725550
20,133667	0,5	-0,719450
20,142000	0,5	-0,724300
20,150333	0,5	-0,720350
20,158667	0,5	-0,719100
20,167000	0,5	-0,715800
20,175333	0,5	-0,721900
20,183667	0,5	-0,719950
20,192000	0,5	-0,719850
20,200333	0,5	-0,720600
20,208667	0,5	-0,710750
20,217000	0,5	-0,717000
20,225333	0,5	-0,718650
20,233667	0,5	-0,715750
20,242000	0,5	-0,717900
20,250333	0,5	-0,730300
20,258667	0,5	-0,743250
20,267000	0,5	-0,752600
20,275333	0,5	-0,746600
20,283667	0,5	-0,750550
20,292000	0,5	-0,746350
20,300333	0,5	-0,744700
20,308667	0,5	-0,741900
20,317000	0,5	-0,748750
20,325333	0,5	-0,742250
20,333667	0,5	-0,751950
20,342000	0,5	-0,751500
20,350333	0,5	-0,743450
20,358667	0,5	-0,737600
20,367000	0,5	-0,753350
20,375333	0,5	-0,751850
20,383667	0,5	-0,749750
20,392000	0,5	-0,753500
20,400333	0,5	-0,758150
20,408667	0,5	-0,779250
20,417000	0,5	-0,776350
20,425333	0,5	-0,783100
20,433667	0,5	-0,785450
20,442000	0,5	-0,789700
20,450333	0,5	-0,788650
20,458667	0,5	-0,792200
20,467000	0,5	-0,790250
20,475333	0,5	-0,794200
20,483667	0,5	-0,795800
20,492000	0,5	-0,793300
20,500333	0,5	-0,775200
20,508667	0,5	-0,775450
20,517000	0,5	-0,787400
20,525333	0,5	-0,779950
20,533667	0,5	-0,782250
20,542000	0,5	-0,791150
20,550333	0,5	-0,807600
20,558667	0,5	-0,814800
20,567000	0,5	-0,816550
20,575333	0,5	-0,813250
20,583667	0,5	-0,810200
20,592000	0,5	-0,806150
20,600333	0,5	-0,807350
20,608667	0,5	-0,803900
20,617000	0,5	-0,807150
20,625333	0,5	-0,799700
20,633667	0,5	-0,802750
20,642000	0,5	-0,789850
20,650333	0,5	-0,778950
20,658667	0,5	-0,774000
20,667000	0,5	-0,782000
20,675333	0,5	-0,777850
20,683667	0,5	-0,783850
20,692000	0,5	-0,787550
20,700333	0,5	-0,795450
20,708667	0,5	-0,801250
20,717000	0,5	-0,792900
20,725333	0,5	-0,797450
20,733667	0,5	-0,794050
20,742000	0,5	-0,801450
20,750333	0,5	-0,800400
20,758667	0,5	-0,798850
20,767000	0,5	-0,796700
20,775333	0,5	-0,801700
20,783667	0,5	-0,792650
20,792000	0,5	-0,776600
20,800333	0,5	-0,758200
20,808667	0,5	-0,763200
20,817000	0,5	-0,758150
20,825333	0,5	-0,755600
20,833667	0,5	-0,757950
20,842000	0,5	-0,778800
20,850333	0,5	-0,789150
20,858667	0,5	-0,784950
20,867000	0,5	-0,795700
20,875333	0,5	-0,795100
20,883667	0,5	-0,795400
20,892000	0,5	-0,788300
20,900333	0,5	-0,786350
20,908667	0,5	-0,776950
20,917000	0,5	-0,776150
20,925333	0,5	-0,776150
20,933667	0,5	-0,758450
20,942000	0,5	-0,741600
20,950333	0,5	-0,736750
20,958667	0,5	-0,744450
20,967000	0,5	-0,744450
20,975333	0,5	-0,754550
20,983667	0,5	-0,757400
20,992000	0,5	-0,773150
21,000333	0,5	-0,768650
21,008667	0,5	-0,765750
21,017000	0,5	-0,760400
21,025333	0,5	-0,761000
21,033667	0,5	-0,755750
21,042000	0,5	-0,755500
21,050333	0,5	-0,750200
21,058667	0,5	-0,749800
21,067000	0,5	-0,748100
21,075333	0,5	-0,750050
21,083667	0,5	-0,725200
21,092000	0,5	-0,710150
21,100333	0,5	-0,715500
21,108667	0,5	-0,719800
21,117000	0,5	-0,715000
21,125333	0,5	-0,726250
21,133667	0,5	-0,732400
21,142000	0,5	-0,745900
21,150333	0,5	-0,738150
21,158667	0,5	-0,737500
21,167000	0,5	-0,743100
21,175333	0,5	-0,737150
21,183667	0,5	-0,730150
21,192000	0,5	-0,726200
21,200333	0,5	-0,720050
21,208667	0,5	-0,711250
21,217000	0,5	-0,708350
21,225333	0,5	-0,697050
21,233667	0,5	-0,675850
21,242000	0,5	-0,658800
21,250333	0,5	-0,665950
21,258667	0,5	-0,666950
21,267000	0,5	-0,671700
21,275333	0,5	-0,680950
21,283667	0,5	-0,689200
21,292000	0,5	-0,688550
21,300333	0,5	-0,672800
21,308667	0,5	-0,669350
21,317000	0,5	-0,664450
21,325333	0,5	-0,657150
21,333667	0,5	-0,646800
21,342000	0,5	-0,643200
21,350333	0,5	-0,631550
21,358667	0,5	-0,624850
21,367000	0,5	-0,617300
21,375333	0,5	-0,589700
21,383667	0,5	-0,564800
21,392000	0,5	-0,553050
21,400333	0,5	-0,539500
21,408667	0,5	-0,529800
21,417000	0,5	-0,511800
21,425333	0,5	-0,503650
21,433667	0,5	-0,503250
21,442000	0,5	-0,490350
21,450333	0,5	-0,487500
21,458667	0,5	-0,490750
21,467000	0,5	-0,497700
21,475333	0,5	-0,488400
21,483667	0,5	-0,485800
21,492000	0,5	-0,478100
21,500333	0,5	-0,477050
21,508667	0,5	-0,472250
21,517000	0,5	-0,469650
21,525333	0,5	-0,449000
21,533667	0,5	-0,429950
21,542000	0,5	-0,436000
21,550333	0,5	-0,435700
21,558667	0,5	-0,440200
21,567000	0,5	-0,452950
21,575333	0,5	-0,458100
21,583667	0,5	-0,455450
21,592000	0,5	-0,443650
21,600333	0,5	-0,432550
21,608667	0,5	-0,420300
21,617000	0,5	-0,406750
21,625333	0,5	-0,391500
21,633667	0,5	-0,374900
21,642000	0,5	-0,366350
21,650333	0,5	-0,352450
21,658667	0,5	-0,341750
21,667000	0,5	-0,316850
21,675333	0,5	-0,291450
21,683667	0,5	-0,281600
21,692000	0,5	-0,270850
21,700333	0,5	-0,255150
21,708667	0,5	-0,258000
21,717000	0,5	-0,255100
21,725333	0,5	-0,248150
21,733667	0,5	-0,242700
21,742000	0,5	-0,218100
21,750333	0,5	-0,202900
21,758667	0,5	-0,189900
21,767000	0,5	-0,185900
21,775333	0,5	-0,168800
21,783667	0,5	-0,160800
21,792000	0,5	-0,141500
21,800333	0,5	-0,132050
21,808667	0,5	-0,116250
21,817000	0,5	-0,079900
21,825333	0,5	-0,059600
21,833667	0,5	-0,052200
21,842000	0,5	-0,036050
21,850333	0,5	-0,030850
21,858667	0,5	-0,017550
21,867000	0,5	-0,021450
21,875333	0,5	-0,008650
21,883667	0,5	0,017800
21,892000	0,5	0,035000
21,900333	0,5	0,056200
21,908667	0,5	0,076400
21,917000	0,5	0,103100
21,925333	0,5	0,122700
21,933667	0,5	0,153150
21,942000	0,5	0,175700
21,950333	0,5	0,207250
21,958667	0,5	0,243150
21,967000	0,5	0,284100
21,975333	0,5	0,298350
21,983667	0,5	0,330750
21,992000	0,5	0,354750
22,000333	0,5	0,371300
22,008667	0,5	0,381450
22,017000	0,5	0,383150
22,025333	0,5	0,410050
22,033667	0,5	0,420150
22,042000	0,5	0,440850
22,050333	0,5	0,454850
22,058667	0,5	0,470750
22,067000	0,5	0,488500
22,075333	0,5	0,513750
22,083667	0,5	0,535800
22,092000	0,5	0,563300
22,100333	0,5	0,586850
22,108667	0,5	0,623800
22,117000	0,5	0,638350
22,125333	0,5	0,663450
22,133667	0,5	0,695750
22,142000	0,5	0,730800
22,150333	0,5	0,749150
22,158667	0,5	0,763650
22,167000	0,5	0,792550
22,175333	0,5	0,828600
22,183667	0,5	0,874150
22,192000	0,5	0,901550
22,200333	0,5	0,938400
22,208667	0,5	0,967950
22,217000	0,5	1,005450
22,225333	0,5	1,044150
22,233667	0,5	1,083750
22,242000	0,5	1,118550
22,250333	0,5	1,155750
22,258667	0,5	1,189100
22,267000	0,5	1,221700
22,275333	0,5	1,276300
22,283667	0,5	1,323250
22,292000	0,5	1,362550
22,300333	0,5	1,396500
22,308667	0,5	1,428650
22,317000	0,5	1,474550
22,325333	0,5	1,526100
22,333667	0,5	1,567500
22,342000	0,5	1,607450
22,350333	0,5	1,652150
22,358667	0,5	1,692750
22,367000	0,5	1,735850
22,375333	0,5	1,790750
22,383667	0,5	1,834550
22,392000	0,5	1,885350
22,400333	0,5	1,917300
22,408667	0,5	1,978100
22,417000	0,5	2,024600
22,425333	0,5	2,097550
22,433667	0,5	2,155500
22,442000	0,5	2,213400
22,450333	0,5	2,259650
22,458667	0,5	2,311250
22,467000	0,5	2,392200
22,475333	0,5	2,456350
22,483667	0,5	2,523200
22,492000	0,5	2,580700
22,500333	0,5	2,643800
22,508667	0,5	2,698800
22,517000	0,5	2,762200
22,525333	0,5	2,816200
22,533667	0,5	2,873400
22,542000	0,5	2,925050
22,550333	0,5	2,966950
22,558667	0,5	3,023650
22,567000	0,5	3,097350
22,575333	0,5	3,155750
22,583667	0,5	3,198900
22,592000	0,5	3,239600
22,600333	0,5	3,270700
22,608667	0,5	3,305850
22,617000	0,5	3,350950
22,625333	0,5	3,392150
22,633667	0,5	3,426650
22,642000	0,5	3,461350
22,650333	0,5	3,484850
22,658667	0,5	3,508250
22,667000	0,5	3,524500
22,675333	0,5	3,533300
22,683667	0,5	3,527550
22,692000	0,5	3,486750
22,700333	0,5	3,465700
22,708667	0,5	3,451650
22,717000	0,5	3,422600
22,725333	0,5	3,371800
22,733667	0,5	3,306850
22,742000	0,5	3,228800
22,750333	0,5	3,139100
22,758667	0,5	3,055600
22,767000	0,5	2,973250
22,775333	0,5	2,879300
22,783667	0,5	2,783600
22,792000	0,5	2,682000
22,800333	0,5	2,577900
22,808667	0,5	2,471850
22,817000	0,5	2,361250
22,825333	0,5	2,242650
22,833667	0,5	2,115650
22,842000	0,5	1,943300
22,850333	0,5	1,820200
22,858667	0,5	1,705600
22,867000	0,5	1,561550
22,875333	0,5	1,416200
22,883667	0,5	1,267100
22,892000	0,5	1,126200
22,900333	0,5	0,979800
22,908667	0,5	0,836150
22,917000	0,5	0,698500
22,925333	0,5	0,567850
22,933667	0,5	0,443950
22,942000	0,5	0,319950
22,950333	0,5	0,204350
22,958667	0,5	0,080050
22,967000	0,5	-0,028950
22,975333	0,5	-0,150650
22,983667	0,5	-0,237000
22,992000	0,5	-0,354700
23,000333	0,5	-0,464750
23,008667	0,5	-0,599150
23,017000	0,5	-0,703050
23,025333	0,5	-0,793950
23,033667	0,5	-0,879850
23,042000	0,5	-0,952600
23,050333	0,5	-1,044600
23,058667	0,5	-1,114850
23,067000	0,5	-1,176600
23,075333	0,5	-1,229900
23,083667	0,5	-1,281200
23,092000	0,5	-1,330400
23,100333	0,5	-1,378650
23,108667	0,5	-1,416900
23,117000	0,5	-1,465450
23,125333	0,5	-1,492850
23,133667	0,5	-1,517100
23,142000	0,5	-1,557450
23,150333	0,5	-1,606600
23,158667	0,5	-1,670300
23,167000	0,5	-1,705550
23,175333	0,5	-1,719350
23,183667	0,5	-1,739700
23,192000	0,5	-1,752050
23,200333	0,5	-1,774250
23,208667	0,5	-1,774850
23,217000	0,5	-1,781000
23,225333	0,5	-1,772600
23,233667	0,5	-1,770450
23,242000	0,5	-1,765350
23,250333	0,5	-1,763200
23,258667	0,5	-1,757750
23,267000	0,5	-1,750000
23,275333	0,5	-1,724800
23,283667	0,5	-1,733750
23,292000	0,5	-1,713050
23,300333	0,5	-1,727850
23,308667	0,5	-1,753650
23,317000	0,5	-1,753350
23,325333	0,5	-1,747300
23,333667	0,5	-1,728100
23,342000	0,5	-1,720100
23,350333	0,5	-1,712050
23,358667	0,5	-1,693950
23,367000	0,5	-1,671100
23,375333	0,5	-1,655300
23,383667	0,5	-1,623650
23,392000	0,5	-1,597700
23,400333	0,5	-1,571400
23,408667	0,5	-1,544600
23,417000	0,5	-1,522900
23,425333	0,5	-1,528300
23,433667	0,5	-1,485400
23,442000	0,5	-1,447950
23,450333	0,5	-1,429100
23,458667	0,5	-1,424650
23,467000	0,5	-1,418000
23,475333	0,5	-1,396050
23,483667	0,5	-1,377700
23,492000	0,5	-1,359800
23,500333	0,5	-1,345350
23,508667	0,5	-1,323150
23,517000	0,5	-1,303750
23,525333	0,5	-1,277800
23,533667	0,5	-1,257600
23,542000	0,5	-1,233350
23,550333	0,5	-1,209350
23,558667	0,5	-1,184200
23,567000	0,5	-1,162850
23,575333	0,5	-1,206550
23,583667	0,5	-1,156750
23,592000	0,5	-1,094200
23,600333	0,5	-1,061500
23,608667	0,5	-1,049000
23,617000	0,5	-1,029900
23,625333	0,5	-1,011750
23,633667	0,5	-0,995400
23,642000	0,5	-0,972150
23,650333	0,5	-0,955050
23,658667	0,5	-0,932400
23,667000	0,5	-0,913700
23,675333	0,5	-0,893350
23,683667	0,5	-0,873550
23,692000	0,5	-0,855450
23,700333	0,5	-0,838450
23,708667	0,5	-0,817500
23,717000	0,5	-0,850700
23,725333	0,5	-0,883350
23,733667	0,5	-0,840950
23,742000	0,5	-0,773350
23,750333	0,5	-0,742000
23,758667	0,5	-0,723850
23,767000	0,5	-0,710300
23,775333	0,5	-0,696400
23,783667	0,5	-0,675900
23,792000	0,5	-0,656800
23,800333	0,5	-0,633350
23,808667	0,5	-0,608050
23,817000	0,5	-0,589200
23,825333	0,5	-0,572550
23,833667	0,5	-0,547400
23,842000	0,5	-0,526700
23,850333	0,5	-0,504050
23,858667	0,5	-0,489800
23,867000	0,5	-0,583800
23,875333	0,5	-0,550600
23,883667	0,5	-0,512300
23,892000	0,5	-0,453050
23,900333	0,5	-0,422900
23,908667	0,5	-0,412900
23,917000	0,5	-0,397650
23,925333	0,5	-0,403750
23,933667	0,5	-0,386750
23,942000	0,5	-0,365900
23,950333	0,5	-0,350250
23,958667	0,5	-0,332050
23,967000	0,5	-0,315250
23,975333	0,5	-0,290050
23,983667	0,5	-0,273950
23,992000	0,5	-0,250150
24,000333	0,5	-0,237000
24,008667	0,5	-0,241550
24,017000	0,5	-0,326350
24,025333	0,5	-0,279800
24,033667	0,5	-0,240250
24,042000	0,5	-0,178200
24,050333	0,5	-0,152900
24,058667	0,5	-0,136350
24,067000	0,5	-0,130950
24,075333	0,5	-0,126900
24,083667	0,5	-0,103600
24,092000	0,5	-0,086600
24,100333	0,5	-0,070500
24,108667	0,5	-0,056300
24,117000	0,5	-0,046500
24,125333	0,5	-0,037050
24,133667	0,5	-0,015500
24,142000	0,5	-0,004300
24,150333	0,5	0,009050
24,158667	0,5	-0,061250
24,167000	0,5	-0,053650
24,175333	0,5	-0,036850
24,183667	0,5	0,016550
24,192000	0,5	0,049900
24,200333	0,5	0,071550
24,208667	0,5	0,076800
24,217000	0,5	0,075400
24,225333	0,5	0,089950
24,233667	0,5	0,116850
24,242000	0,5	0,127200
24,250333	0,5	0,143400
24,258667	0,5	0,158800
24,267000	0,5	0,175600
24,275333	0,5	0,192950
24,283667	0,5	0,205000
24,292000	0,5	0,217800
24,300333	0,5	0,225450
24,308667	0,5	0,157050
24,317000	0,5	0,173600
24,325333	0,5	0,192900
24,333667	0,5	0,234250
24,342000	0,5	0,257700
24,350333	0,5	0,266300
24,358667	0,5	0,268450
24,367000	0,5	0,260550
24,375333	0,5	0,272250
24,383667	0,5	0,284500
24,392000	0,5	0,301600
24,400333	0,5	0,311750
24,408667	0,5	0,321500
24,417000	0,5	0,332600
24,425333	0,5	0,348650
24,433667	0,5	0,362800
24,442000	0,5	0,370500
24,450333	0,5	0,367000
24,458667	0,5	0,320050
24,467000	0,5	0,354050
24,475333	0,5	0,371650
24,483667	0,5	0,400600
24,492000	0,5	0,412350
24,500333	0,5	0,420850
24,508667	0,5	0,414400
24,517000	0,5	0,412950
24,525333	0,5	0,419750
24,533667	0,5	0,435400
24,542000	0,5	0,436750
24,550333	0,5	0,447600
24,558667	0,5	0,454850
24,567000	0,5	0,461500
24,575333	0,5	0,472600
24,583667	0,5	0,479250
24,592000	0,5	0,486000
24,600333	0,5	0,460050
24,608667	0,5	0,449650
24,617000	0,5	0,463100
24,625333	0,5	0,487800
24,633667	0,5	0,508700
24,642000	0,5	0,517350
24,650333	0,5	0,523600
24,658667	0,5	0,518050
24,667000	0,5	0,514750
24,675333	0,5	0,529100
24,683667	0,5	0,530600
24,692000	0,5	0,541450
24,700333	0,5	0,545750
24,708667	0,5	0,550000
24,717000	0,5	0,556550
24,725333	0,5	0,563100
24,733667	0,5	0,564300
24,742000	0,5	0,568600
24,750333	0,5	0,544100
24,758667	0,5	0,550850
24,767000	0,5	0,555400
24,775333	0,5	0,571650
24,783667	0,5	0,586000
24,792000	0,5	0,588700
24,800333	0,5	0,588750
24,808667	0,5	0,579050
24,817000	0,5	0,588550
24,825333	0,5	0,592150
24,833667	0,5	0,600250
24,842000	0,5	0,602700
24,850333	0,5	0,606400
24,858667	0,5	0,612450
24,867000	0,5	0,616100
24,875333	0,5	0,619300
24,883667	0,5	0,627350
24,892000	0,5	0,621650
24,900333	0,5	0,610050
24,908667	0,5	0,613350
24,917000	0,5	0,619200
24,925333	0,5	0,629500
24,933667	0,5	0,637450
24,942000	0,5	0,635550
24,950333	0,5	0,635050
24,958667	0,5	0,630950
24,967000	0,5	0,634100
24,975333	0,5	0,635300
24,983667	0,5	0,637800
24,992000	0,5	0,640250
25,000333	0,5	0,641450
25,008667	0,5	0,643300
25,017000	0,5	0,648950
25,025333	0,5	0,654800
25,033667	0,5	0,654450
25,042000	0,5	0,647450
25,050333	0,5	0,652700
25,058667	0,5	0,652750
25,067000	0,5	0,662950
25,075333	0,5	0,667150
25,083667	0,5	0,668400
25,092000	0,5	0,670450
25,100333	0,5	0,663050
25,108667	0,5	0,660500
25,117000	0,5	0,663150
25,125333	0,5	0,664000
25,133667	0,5	0,665550
25,142000	0,5	0,663500
25,150333	0,5	0,666250
25,158667	0,5	0,665450
25,167000	0,5	0,664450
25,175333	0,5	0,668950
25,183667	0,5	0,671300
25,192000	0,5	0,666550
25,200333	0,5	0,668150
25,208667	0,5	0,669150
25,217000	0,5	0,674800
25,225333	0,5	0,678000
25,233667	0,5	0,677150
25,242000	0,5	0,678450
25,250333	0,5	0,675000
25,258667	0,5	0,677350
25,267000	0,5	0,677950
25,275333	0,5	0,675800
25,283667	0,5	0,675300
25,292000	0,5	0,673500
25,300333	0,5	0,674400
25,308667	0,5	0,673400
25,317000	0,5	0,671700
25,325333	0,5	0,673650
25,333667	0,5	0,671300
25,342000	0,5	0,673000
25,350333	0,5	0,673350
25,358667	0,5	0,672900
25,367000	0,5	0,670300
25,375333	0,5	0,673800
25,383667	0,5	0,673300
25,392000	0,5	0,670750
25,400333	0,5	0,669900
25,408667	0,5	0,670650
25,417000	0,5	0,671700
25,425333	0,5	0,673250
25,433667	0,5	0,673950
25,442000	0,5	0,671350
25,450333	0,5	0,670150
25,458667	0,5	0,670150
25,467000	0,5	0,669100
25,475333	0,5	0,668450
25,483667	0,5	0,668850
25,492000	0,5	0,668950
25,500333	0,5	0,667700
25,508667	0,5	0,664800
25,517000	0,5	0,660850
25,525333	0,5	0,661400
25,533667	0,5	0,661500
25,542000	0,5	0,660000
25,550333	0,5	0,663050
25,558667	0,5	0,664050
25,567000	0,5	0,658300
25,575333	0,5	0,661300
25,583667	0,5	0,662250
25,592000	0,5	0,660950
25,600333	0,5	0,662100
25,608667	0,5	0,660600
25,617000	0,5	0,661050
25,625333	0,5	0,661150
25,633667	0,5	0,658550
25,642000	0,5	0,657150
25,650333	0,5	0,658600
25,658667	0,5	0,655900
25,667000	0,5	0,653150
25,675333	0,5	0,650850
25,683667	0,5	0,649000
25,692000	0,5	0,651300
25,700333	0,5	0,651500
25,708667	0,5	0,650150
25,717000	0,5	0,652750
25,725333	0,5	0,651600
25,733667	0,5	0,651550
25,742000	0,5	0,647850
25,750333	0,5	0,646150
25,758667	0,5	0,644450
25,767000	0,5	0,645500
25,775333	0,5	0,647700
25,783667	0,5	0,645700
25,792000	0,5	0,646900
25,800333	0,5	0,649650
25,808667	0,5	0,642150
25,817000	0,5	0,640500
25,825333	0,5	0,639450
25,833667	0,5	0,642850
25,842000	0,5	0,643800
25,850333	0,5	0,642700
25,858667	0,5	0,638450
25,867000	0,5	0,638100
25,875333	0,5	0,637750
25,883667	0,5	0,637650
25,892000	0,5	0,637550
25,900333	0,5	0,634900
25,908667	0,5	0,636150
25,917000	0,5	0,633800
25,925333	0,5	0,635250
25,933667	0,5	0,631150
25,942000	0,5	0,638000
25,950333	0,5	0,636200
25,958667	0,5	0,630850
25,967000	0,5	0,630300
25,975333	0,5	0,631050
25,983667	0,5	0,634700
25,992000	0,5	0,638100
26,000333	0,5	0,635450
