File Path	chrom://chromeleon01/ikbm_chromeleon/2022/ICS-5000/ED1/Esteban/20220612_Cell_7_4_eg.seq/432.smp/ED_1.channel/ED_1.chm
Channel	ED_1

Injection Information:
Data Vault	ikbm_chromeleon
Injection	7_24h-EGS-pH6_1
Injection Number	11
Position	RA6
Comment	
Processing Method	Stop sequence after Cell Death
Instrument Method	ICS5000_PA200_FullNative_Ox_26min_ED1
Type	Unknown
Status	Finished
Injection Date	12.06.2022
Injection Time	20:46:24
Injection Volume (µl)	5,0
Dilution Factor	1,0000
Weight	1,0000

Chromatogram Data Information:
Time Min. (min)	0,000333
Time Max. (min)	26,000333
Data Points	3121
Detector	EDet1
Generating Data System	Chromeleon 7.2.9.11323
Exporting Data System	Chromeleon 7.2.9.0
Operator	Instrument Controller
Signal Quantity	
Signal Unit	nC
Signal Min.	-1,398300
Signal Max.	614,452809
Channel	ED_1
Driver Name	DC-5000
Channel Type	Evaluation
Min. Step (s)	0,5
Max. Step (s)	0,5
Average Step (s)	0,5

Signal Parameter Information:
Signal Info	

Chromatogram Data:
Time (min)	Step (s)	Value (nC)
0,000333	n.a.	-0,008250
0,008667	0,5	-0,036700
0,017000	0,5	-0,023250
0,025333	0,5	-0,015200
0,033667	0,5	-0,012050
0,042000	0,5	0,001300
0,050333	0,5	0,001850
0,058667	0,5	0,007850
0,067000	0,5	0,001800
0,075333	0,5	0,007850
0,083667	0,5	0,005900
0,092000	0,5	0,008050
0,100333	0,5	0,017100
0,108667	0,5	0,014900
0,117000	0,5	0,006750
0,125333	0,5	0,025200
0,133667	0,5	-0,002300
0,142000	0,5	0,003000
0,150333	0,5	0,012800
0,158667	0,5	0,021200
0,167000	0,5	0,040000
0,175333	0,5	0,025050
0,183667	0,5	0,030750
0,192000	0,5	0,028850
0,200333	0,5	0,032450
0,208667	0,5	0,024600
0,217000	0,5	0,031500
0,225333	0,5	0,023250
0,233667	0,5	0,022950
0,242000	0,5	0,026350
0,250333	0,5	0,027200
0,258667	0,5	0,013000
0,267000	0,5	0,025250
0,275333	0,5	0,027650
0,283667	0,5	0,013900
0,292000	0,5	0,025000
0,300333	0,5	0,055400
0,308667	0,5	0,074350
0,317000	0,5	0,062250
0,325333	0,5	0,038750
0,333667	0,5	0,025850
0,342000	0,5	0,028700
0,350333	0,5	0,028600
0,358667	0,5	0,031800
0,367000	0,5	0,029000
0,375333	0,5	0,028950
0,383667	0,5	0,028800
0,392000	0,5	0,033950
0,400333	0,5	0,030850
0,408667	0,5	0,033800
0,417000	0,5	0,034650
0,425333	0,5	0,029300
0,433667	0,5	0,019900
0,442000	0,5	0,030200
0,450333	0,5	0,033400
0,458667	0,5	0,049200
0,467000	0,5	0,059800
0,475333	0,5	0,049250
0,483667	0,5	0,048750
0,492000	0,5	0,047150
0,500333	0,5	0,051050
0,508667	0,5	0,045200
0,517000	0,5	0,049100
0,525333	0,5	0,040700
0,533667	0,5	0,047700
0,542000	0,5	0,048650
0,550333	0,5	0,051500
0,558667	0,5	0,052500
0,567000	0,5	0,067800
0,575333	0,5	0,048800
0,583667	0,5	0,042150
0,592000	0,5	0,049400
0,600333	0,5	0,061850
0,608667	0,5	0,071550
0,617000	0,5	0,071000
0,625333	0,5	0,068000
0,633667	0,5	0,077000
0,642000	0,5	0,075950
0,650333	0,5	0,074950
0,658667	0,5	0,074250
0,667000	0,5	0,073350
0,675333	0,5	0,074450
0,683667	0,5	0,071450
0,692000	0,5	0,083550
0,700333	0,5	0,069450
0,708667	0,5	0,088800
0,717000	0,5	0,086500
0,725333	0,5	0,073050
0,733667	0,5	0,075100
0,742000	0,5	0,083050
0,750333	0,5	0,094800
0,758667	0,5	0,109150
0,767000	0,5	0,096150
0,775333	0,5	0,104100
0,783667	0,5	0,096300
0,792000	0,5	0,104400
0,800333	0,5	0,102350
0,808667	0,5	0,109150
0,817000	0,5	0,106350
0,825333	0,5	0,105700
0,833667	0,5	0,117050
0,842000	0,5	0,113300
0,850333	0,5	0,105800
0,858667	0,5	0,124850
0,867000	0,5	0,118000
0,875333	0,5	0,113250
0,883667	0,5	0,116250
0,892000	0,5	0,119000
0,900333	0,5	0,144600
0,908667	0,5	0,136800
0,917000	0,5	0,139250
0,925333	0,5	0,137150
0,933667	0,5	0,151250
0,942000	0,5	0,144150
0,950333	0,5	0,149400
0,958667	0,5	0,148600
0,967000	0,5	0,148850
0,975333	0,5	0,148050
0,983667	0,5	0,150550
0,992000	0,5	0,161050
1,000333	0,5	0,150900
1,008667	0,5	0,169750
1,017000	0,5	0,151100
1,025333	0,5	0,151600
1,033667	0,5	0,154350
1,042000	0,5	0,167750
1,050333	0,5	0,186900
1,058667	0,5	0,182600
1,067000	0,5	0,174700
1,075333	0,5	0,185300
1,083667	0,5	0,180900
1,092000	0,5	0,184750
1,100333	0,5	0,179250
1,108667	0,5	0,183050
1,117000	0,5	0,181350
1,125333	0,5	0,187850
1,133667	0,5	0,189900
1,142000	0,5	0,186800
1,150333	0,5	0,184250
1,158667	0,5	0,197850
1,167000	0,5	0,180000
1,175333	0,5	0,181000
1,183667	0,5	0,182550
1,192000	0,5	0,198050
1,200333	0,5	0,214800
1,208667	0,5	0,202050
1,217000	0,5	0,205450
1,225333	0,5	0,207650
1,233667	0,5	0,211050
1,242000	0,5	0,202450
1,250333	0,5	0,205800
1,258667	0,5	0,195450
1,267000	0,5	0,197850
1,275333	0,5	0,195750
1,283667	0,5	0,191900
1,292000	0,5	0,184350
1,300333	0,5	0,192500
1,308667	0,5	0,185450
1,317000	0,5	0,179500
1,325333	0,5	0,181300
1,333667	0,5	0,182550
1,342000	0,5	0,193500
1,350333	0,5	0,198150
1,358667	0,5	0,198400
1,367000	0,5	0,192950
1,375333	0,5	0,191750
1,383667	0,5	0,184600
1,392000	0,5	0,183550
1,400333	0,5	0,173400
1,408667	0,5	0,175000
1,417000	0,5	0,171550
1,425333	0,5	0,172350
1,433667	0,5	0,159100
1,442000	0,5	0,157850
1,450333	0,5	0,167850
1,458667	0,5	0,160100
1,467000	0,5	0,152850
1,475333	0,5	0,162350
1,483667	0,5	0,161600
1,492000	0,5	0,180500
1,500333	0,5	0,167750
1,508667	0,5	0,161700
1,517000	0,5	0,161750
1,525333	0,5	0,155250
1,533667	0,5	0,147300
1,542000	0,5	0,141750
1,550333	0,5	0,138150
1,558667	0,5	0,138750
1,567000	0,5	0,152250
1,575333	0,5	0,145850
1,583667	0,5	0,292600
1,592000	0,5	2,101900
1,600333	0,5	10,768650
1,608667	0,5	40,602551
1,617000	0,5	124,567452
1,625333	0,5	290,442104
1,633667	0,5	489,893707
1,642000	0,5	614,452809
1,650333	0,5	606,123559
1,658667	0,5	499,761207
1,667000	0,5	368,495855
1,675333	0,5	259,511954
1,683667	0,5	183,760453
1,692000	0,5	135,387852
1,700333	0,5	106,027602
1,708667	0,5	88,584151
1,717000	0,5	77,097851
1,725333	0,5	67,882751
1,733667	0,5	60,102751
1,742000	0,5	54,542601
1,750333	0,5	52,049901
1,758667	0,5	52,650401
1,767000	0,5	55,128801
1,775333	0,5	57,331651
1,783667	0,5	57,511901
1,792000	0,5	55,189851
1,800333	0,5	51,031501
1,808667	0,5	46,402251
1,817000	0,5	42,244251
1,825333	0,5	38,986151
1,833667	0,5	36,808151
1,842000	0,5	35,976351
1,850333	0,5	36,272951
1,858667	0,5	36,514351
1,867000	0,5	35,522051
1,875333	0,5	33,737851
1,883667	0,5	32,704200
1,892000	0,5	33,947301
1,900333	0,5	38,881101
1,908667	0,5	47,979501
1,917000	0,5	58,081351
1,925333	0,5	63,912751
1,933667	0,5	63,329301
1,942000	0,5	57,794701
1,950333	0,5	50,138251
1,958667	0,5	43,129801
1,967000	0,5	38,315401
1,975333	0,5	35,549851
1,983667	0,5	34,200001
1,992000	0,5	34,279801
2,000333	0,5	35,586151
2,008667	0,5	36,059151
2,017000	0,5	34,182251
2,025333	0,5	30,988550
2,033667	0,5	28,127650
2,042000	0,5	26,377150
2,050333	0,5	26,447300
2,058667	0,5	29,201100
2,067000	0,5	33,575001
2,075333	0,5	35,864101
2,083667	0,5	33,987651
2,092000	0,5	29,878050
2,100333	0,5	26,071500
2,108667	0,5	23,356200
2,117000	0,5	21,541950
2,125333	0,5	20,334700
2,133667	0,5	19,426400
2,142000	0,5	18,674450
2,150333	0,5	18,074450
2,158667	0,5	17,706650
2,167000	0,5	17,557450
2,175333	0,5	17,794850
2,183667	0,5	18,990350
2,192000	0,5	22,165350
2,200333	0,5	24,513850
2,208667	0,5	22,362800
2,217000	0,5	18,611250
2,225333	0,5	16,490550
2,233667	0,5	15,585850
2,242000	0,5	15,223750
2,250333	0,5	15,148100
2,258667	0,5	15,291350
2,267000	0,5	15,674900
2,275333	0,5	16,504250
2,283667	0,5	18,281950
2,292000	0,5	21,475550
2,300333	0,5	25,813700
2,308667	0,5	29,791150
2,317000	0,5	31,811650
2,325333	0,5	31,390450
2,333667	0,5	29,407350
2,342000	0,5	27,213800
2,350333	0,5	26,071100
2,358667	0,5	26,881250
2,367000	0,5	30,782800
2,375333	0,5	39,759751
2,383667	0,5	55,810751
2,392000	0,5	77,715551
2,400333	0,5	98,077051
2,408667	0,5	107,045152
2,417000	0,5	101,217552
2,425333	0,5	85,959751
2,433667	0,5	69,557451
2,442000	0,5	57,741501
2,450333	0,5	52,928851
2,458667	0,5	55,147751
2,467000	0,5	61,568901
2,475333	0,5	67,453751
2,483667	0,5	69,231201
2,492000	0,5	66,199151
2,500333	0,5	59,680751
2,508667	0,5	51,401501
2,517000	0,5	42,955701
2,525333	0,5	35,585351
2,533667	0,5	29,876750
2,542000	0,5	25,892300
2,550333	0,5	23,283150
2,558667	0,5	21,669250
2,567000	0,5	20,789200
2,575333	0,5	20,611100
2,583667	0,5	21,165350
2,592000	0,5	22,372000
2,600333	0,5	23,727250
2,608667	0,5	24,437950
2,617000	0,5	23,984250
2,625333	0,5	22,494450
2,633667	0,5	20,581400
2,642000	0,5	18,803100
2,650333	0,5	17,517150
2,658667	0,5	16,754350
2,667000	0,5	16,484900
2,675333	0,5	16,684350
2,683667	0,5	17,560450
2,692000	0,5	19,632500
2,700333	0,5	23,502700
2,708667	0,5	28,911550
2,717000	0,5	34,115651
2,725333	0,5	36,763051
2,733667	0,5	35,819151
2,742000	0,5	32,053900
2,750333	0,5	27,144950
2,758667	0,5	22,563250
2,767000	0,5	19,045950
2,775333	0,5	16,630100
2,783667	0,5	15,015350
2,792000	0,5	13,899600
2,800333	0,5	13,107400
2,808667	0,5	12,524050
2,817000	0,5	12,092100
2,825333	0,5	11,759800
2,833667	0,5	11,489100
2,842000	0,5	11,282400
2,850333	0,5	11,092400
2,858667	0,5	10,916750
2,867000	0,5	10,775750
2,875333	0,5	10,701550
2,883667	0,5	10,679900
2,892000	0,5	10,660050
2,900333	0,5	10,554300
2,908667	0,5	10,348100
2,917000	0,5	10,068350
2,925333	0,5	9,791250
2,933667	0,5	9,496050
2,942000	0,5	9,250800
2,950333	0,5	9,078250
2,958667	0,5	8,991900
2,967000	0,5	9,003300
2,975333	0,5	9,037900
2,983667	0,5	9,125050
2,992000	0,5	9,244500
3,000333	0,5	9,396650
3,008667	0,5	9,543600
3,017000	0,5	9,675700
3,025333	0,5	9,813200
3,033667	0,5	10,100350
3,042000	0,5	10,537000
3,050333	0,5	10,921750
3,058667	0,5	11,047500
3,067000	0,5	10,925200
3,075333	0,5	10,644450
3,083667	0,5	10,267000
3,092000	0,5	9,866800
3,100333	0,5	9,474900
3,108667	0,5	9,096650
3,117000	0,5	8,748200
3,125333	0,5	8,404200
3,133667	0,5	8,089400
3,142000	0,5	7,810500
3,150333	0,5	7,562000
3,158667	0,5	7,348400
3,167000	0,5	7,163800
3,175333	0,5	7,004400
3,183667	0,5	6,852000
3,192000	0,5	6,711650
3,200333	0,5	6,566250
3,208667	0,5	6,430550
3,217000	0,5	6,300800
3,225333	0,5	6,190600
3,233667	0,5	6,076750
3,242000	0,5	5,990050
3,250333	0,5	5,917500
3,258667	0,5	5,871200
3,267000	0,5	5,830750
3,275333	0,5	5,801150
3,283667	0,5	5,778450
3,292000	0,5	5,783700
3,300333	0,5	5,807350
3,308667	0,5	5,876300
3,317000	0,5	6,014100
3,325333	0,5	6,261650
3,333667	0,5	6,656400
3,342000	0,5	7,220300
3,350333	0,5	7,951400
3,358667	0,5	8,744650
3,367000	0,5	9,507700
3,375333	0,5	10,038750
3,383667	0,5	10,248650
3,392000	0,5	10,113850
3,400333	0,5	9,703750
3,408667	0,5	9,142450
3,417000	0,5	8,547500
3,425333	0,5	8,016200
3,433667	0,5	7,595900
3,442000	0,5	7,252950
3,450333	0,5	6,966950
3,458667	0,5	6,690300
3,467000	0,5	6,422400
3,475333	0,5	6,162000
3,483667	0,5	5,934000
3,492000	0,5	5,749900
3,500333	0,5	5,608750
3,508667	0,5	5,523450
3,517000	0,5	5,485700
3,525333	0,5	5,437700
3,533667	0,5	5,394400
3,542000	0,5	5,349500
3,550333	0,5	5,283350
3,558667	0,5	5,231200
3,567000	0,5	5,151050
3,575333	0,5	5,106600
3,583667	0,5	5,066100
3,592000	0,5	5,059950
3,600333	0,5	5,056400
3,608667	0,5	5,072650
3,617000	0,5	5,078550
3,625333	0,5	5,076000
3,633667	0,5	5,057150
3,642000	0,5	5,023700
3,650333	0,5	4,979900
3,658667	0,5	4,942050
3,667000	0,5	4,898350
3,675333	0,5	4,850200
3,683667	0,5	4,801150
3,692000	0,5	4,754100
3,700333	0,5	4,711550
3,708667	0,5	4,668300
3,717000	0,5	4,610800
3,725333	0,5	4,563150
3,733667	0,5	4,538350
3,742000	0,5	4,525100
3,750333	0,5	4,556400
3,758667	0,5	4,623000
3,767000	0,5	4,747450
3,775333	0,5	4,920400
3,783667	0,5	5,119950
3,792000	0,5	5,300200
3,800333	0,5	5,424100
3,808667	0,5	5,459400
3,817000	0,5	5,389600
3,825333	0,5	5,219450
3,833667	0,5	5,002650
3,842000	0,5	4,767050
3,850333	0,5	4,553800
3,858667	0,5	4,372250
3,867000	0,5	4,213650
3,875333	0,5	4,106500
3,883667	0,5	4,024850
3,892000	0,5	3,978150
3,900333	0,5	3,947700
3,908667	0,5	3,944100
3,917000	0,5	3,944750
3,925333	0,5	3,965050
3,933667	0,5	3,990850
3,942000	0,5	4,008100
3,950333	0,5	4,025900
3,958667	0,5	4,054400
3,967000	0,5	4,054100
3,975333	0,5	4,065350
3,983667	0,5	4,067150
3,992000	0,5	4,071900
4,000333	0,5	4,071050
4,008667	0,5	4,063350
4,017000	0,5	4,042850
4,025333	0,5	4,028600
4,033667	0,5	4,011400
4,042000	0,5	3,997400
4,050333	0,5	3,982000
4,058667	0,5	3,980600
4,067000	0,5	3,987450
4,075333	0,5	4,000750
4,083667	0,5	4,024450
4,092000	0,5	4,046050
4,100333	0,5	4,095750
4,108667	0,5	4,143600
4,117000	0,5	4,177500
4,125333	0,5	4,198850
4,133667	0,5	4,223050
4,142000	0,5	4,224450
4,150333	0,5	4,217600
4,158667	0,5	4,185700
4,167000	0,5	4,148200
4,175333	0,5	4,116750
4,183667	0,5	4,088000
4,192000	0,5	4,062650
4,200333	0,5	4,048600
4,208667	0,5	4,040550
4,217000	0,5	4,034900
4,225333	0,5	4,029950
4,233667	0,5	4,012800
4,242000	0,5	3,992100
4,250333	0,5	3,981550
4,258667	0,5	3,958700
4,267000	0,5	3,931200
4,275333	0,5	3,913550
4,283667	0,5	3,898200
4,292000	0,5	3,900350
4,300333	0,5	3,894650
4,308667	0,5	3,884950
4,317000	0,5	3,881500
4,325333	0,5	3,888750
4,333667	0,5	3,894500
4,342000	0,5	3,912100
4,350333	0,5	3,925250
4,358667	0,5	3,938450
4,367000	0,5	3,946550
4,375333	0,5	3,946150
4,383667	0,5	3,934400
4,392000	0,5	3,895500
4,400333	0,5	3,861400
4,408667	0,5	3,794250
4,417000	0,5	3,723250
4,425333	0,5	3,635050
4,433667	0,5	3,545650
4,442000	0,5	3,463900
4,450333	0,5	3,370500
4,458667	0,5	3,278350
4,467000	0,5	3,205150
4,475333	0,5	3,132800
4,483667	0,5	3,080550
4,492000	0,5	3,024600
4,500333	0,5	2,980800
4,508667	0,5	2,940000
4,517000	0,5	2,903650
4,525333	0,5	2,869500
4,533667	0,5	2,831350
4,542000	0,5	2,794650
4,550333	0,5	2,771600
4,558667	0,5	2,723950
4,567000	0,5	2,688600
4,575333	0,5	2,661150
4,583667	0,5	2,637450
4,592000	0,5	2,619350
4,600333	0,5	2,586750
4,608667	0,5	2,566300
4,617000	0,5	2,547200
4,625333	0,5	2,536600
4,633667	0,5	2,522400
4,642000	0,5	2,524000
4,650333	0,5	2,526250
4,658667	0,5	2,545950
4,667000	0,5	2,578650
4,675333	0,5	2,633000
4,683667	0,5	2,703400
4,692000	0,5	2,814200
4,700333	0,5	2,936050
4,708667	0,5	3,062600
4,717000	0,5	3,200900
4,725333	0,5	3,320500
4,733667	0,5	3,421100
4,742000	0,5	3,482650
4,750333	0,5	3,490550
4,758667	0,5	3,444250
4,767000	0,5	3,358700
4,775333	0,5	3,241000
4,783667	0,5	3,109300
4,792000	0,5	2,964750
4,800333	0,5	2,837100
4,808667	0,5	2,717250
4,817000	0,5	2,626950
4,825333	0,5	2,546300
4,833667	0,5	2,496950
4,842000	0,5	2,466100
4,850333	0,5	2,450500
4,858667	0,5	2,441300
4,867000	0,5	2,455850
4,875333	0,5	2,487550
4,883667	0,5	2,541350
4,892000	0,5	2,603300
4,900333	0,5	2,672400
4,908667	0,5	2,748400
4,917000	0,5	2,822050
4,925333	0,5	2,880750
4,933667	0,5	2,917850
4,942000	0,5	2,929650
4,950333	0,5	2,906500
4,958667	0,5	2,852550
4,967000	0,5	2,773900
4,975333	0,5	2,677700
4,983667	0,5	2,579900
4,992000	0,5	2,497400
5,000333	0,5	2,400150
5,008667	0,5	2,318850
5,017000	0,5	2,255200
5,025333	0,5	2,209750
5,033667	0,5	2,179650
5,042000	0,5	2,144800
5,050333	0,5	2,111400
5,058667	0,5	2,089900
5,067000	0,5	2,071450
5,075333	0,5	2,054850
5,083667	0,5	2,041350
5,092000	0,5	2,020900
5,100333	0,5	2,010700
5,108667	0,5	1,997350
5,117000	0,5	1,989200
5,125333	0,5	1,972900
5,133667	0,5	1,975300
5,142000	0,5	1,980200
5,150333	0,5	1,978400
5,158667	0,5	1,982300
5,167000	0,5	1,995850
5,175333	0,5	2,017550
5,183667	0,5	2,042150
5,192000	0,5	2,047300
5,200333	0,5	2,065250
5,208667	0,5	2,069250
5,217000	0,5	2,076750
5,225333	0,5	2,075250
5,233667	0,5	2,080350
5,242000	0,5	2,074850
5,250333	0,5	2,079500
5,258667	0,5	2,090250
5,267000	0,5	2,105250
5,275333	0,5	2,125250
5,283667	0,5	2,174900
5,292000	0,5	2,217750
5,300333	0,5	2,268900
5,308667	0,5	2,335550
5,317000	0,5	2,413550
5,325333	0,5	2,510800
5,333667	0,5	2,603150
5,342000	0,5	2,701650
5,350333	0,5	2,801850
5,358667	0,5	2,910950
5,367000	0,5	3,007650
5,375333	0,5	3,109200
5,383667	0,5	3,191600
5,392000	0,5	3,251950
5,400333	0,5	3,288400
5,408667	0,5	3,295600
5,417000	0,5	3,270300
5,425333	0,5	3,214350
5,433667	0,5	3,139250
5,442000	0,5	3,025050
5,450333	0,5	2,894200
5,458667	0,5	2,753200
5,467000	0,5	2,611150
5,475333	0,5	2,480900
5,483667	0,5	2,351850
5,492000	0,5	2,224550
5,500333	0,5	2,123950
5,508667	0,5	2,123400
5,517000	0,5	1,971000
5,525333	0,5	1,919100
5,533667	0,5	1,886400
5,542000	0,5	1,865250
5,550333	0,5	1,859500
5,558667	0,5	1,860100
5,567000	0,5	1,868050
5,575333	0,5	1,886250
5,583667	0,5	1,910800
5,592000	0,5	1,920950
5,600333	0,5	1,941600
5,608667	0,5	1,961600
5,617000	0,5	1,993250
5,625333	0,5	2,025300
5,633667	0,5	2,057400
5,642000	0,5	2,091950
5,650333	0,5	2,130300
5,658667	0,5	2,171150
5,667000	0,5	2,208450
5,675333	0,5	2,242050
5,683667	0,5	2,259700
5,692000	0,5	2,266800
5,700333	0,5	2,250200
5,708667	0,5	2,225050
5,717000	0,5	2,177900
5,725333	0,5	2,138550
5,733667	0,5	2,085350
5,742000	0,5	2,030400
5,750333	0,5	1,982050
5,758667	0,5	1,943450
5,767000	0,5	1,910700
5,775333	0,5	1,882750
5,783667	0,5	1,852550
5,792000	0,5	1,829550
5,800333	0,5	1,805800
5,808667	0,5	1,780400
5,817000	0,5	1,754000
5,825333	0,5	1,729650
5,833667	0,5	1,705050
5,842000	0,5	1,679500
5,850333	0,5	1,663550
5,858667	0,5	1,639050
5,867000	0,5	1,619200
5,875333	0,5	1,618850
5,883667	0,5	1,612200
5,892000	0,5	1,612100
5,900333	0,5	1,617800
5,908667	0,5	1,634200
5,917000	0,5	1,659750
5,925333	0,5	1,680750
5,933667	0,5	1,697550
5,942000	0,5	1,709650
5,950333	0,5	1,720500
5,958667	0,5	1,719750
5,967000	0,5	1,710250
5,975333	0,5	1,693800
5,983667	0,5	1,672000
5,992000	0,5	1,643800
6,000333	0,5	1,612350
6,008667	0,5	1,579300
6,017000	0,5	1,548000
6,025333	0,5	1,532800
6,033667	0,5	1,509900
6,042000	0,5	1,499150
6,050333	0,5	1,492200
6,058667	0,5	1,495250
6,067000	0,5	1,505150
6,075333	0,5	1,517000
6,083667	0,5	1,520700
6,092000	0,5	1,532200
6,100333	0,5	1,536700
6,108667	0,5	1,549350
6,117000	0,5	1,557850
6,125333	0,5	1,574850
6,133667	0,5	1,600900
6,142000	0,5	1,645900
6,150333	0,5	1,715100
6,158667	0,5	1,818950
6,167000	0,5	1,957850
6,175333	0,5	2,114500
6,183667	0,5	2,248800
6,192000	0,5	2,353900
6,200333	0,5	2,399450
6,208667	0,5	2,386750
6,217000	0,5	2,330100
6,225333	0,5	2,240400
6,233667	0,5	2,155450
6,242000	0,5	2,085000
6,250333	0,5	2,037500
6,258667	0,5	2,008250
6,267000	0,5	2,004650
6,275333	0,5	2,034850
6,283667	0,5	2,114000
6,292000	0,5	2,279100
6,300333	0,5	2,550850
6,308667	0,5	2,952450
6,317000	0,5	3,461800
6,325333	0,5	3,973550
6,333667	0,5	4,391650
6,342000	0,5	4,621800
6,350333	0,5	4,616400
6,358667	0,5	4,404250
6,367000	0,5	4,031050
6,375333	0,5	3,592050
6,383667	0,5	3,168250
6,392000	0,5	2,810450
6,400333	0,5	2,535050
6,408667	0,5	2,361700
6,417000	0,5	2,276250
6,425333	0,5	2,279050
6,433667	0,5	2,377500
6,442000	0,5	2,569600
6,450333	0,5	2,694600
6,458667	0,5	2,658750
6,467000	0,5	2,515800
6,475333	0,5	2,292700
6,483667	0,5	2,083500
6,492000	0,5	1,921350
6,500333	0,5	1,795650
6,508667	0,5	1,708000
6,517000	0,5	1,643950
6,525333	0,5	1,606200
6,533667	0,5	1,582450
6,542000	0,5	1,566950
6,550333	0,5	1,556600
6,558667	0,5	1,545600
6,567000	0,5	1,536700
6,575333	0,5	1,532200
6,583667	0,5	1,530850
6,592000	0,5	1,531250
6,600333	0,5	1,528200
6,608667	0,5	1,531150
6,617000	0,5	1,536500
6,625333	0,5	1,532250
6,633667	0,5	1,539000
6,642000	0,5	1,541150
6,650333	0,5	1,556700
6,658667	0,5	1,567400
6,667000	0,5	1,572000
6,675333	0,5	1,580900
6,683667	0,5	1,587300
6,692000	0,5	1,595450
6,700333	0,5	1,603150
6,708667	0,5	1,608100
6,717000	0,5	1,611250
6,725333	0,5	1,617250
6,733667	0,5	1,622550
6,742000	0,5	1,627100
6,750333	0,5	1,624950
6,758667	0,5	1,633800
6,767000	0,5	1,636400
6,775333	0,5	1,636950
6,783667	0,5	1,638100
6,792000	0,5	1,643650
6,800333	0,5	1,651300
6,808667	0,5	1,664150
6,817000	0,5	1,660850
6,825333	0,5	1,667750
6,833667	0,5	1,674250
6,842000	0,5	1,678800
6,850333	0,5	1,681450
6,858667	0,5	1,687250
6,867000	0,5	1,696250
6,875333	0,5	1,703550
6,883667	0,5	1,712150
6,892000	0,5	1,717400
6,900333	0,5	1,725350
6,908667	0,5	1,742600
6,917000	0,5	1,753300
6,925333	0,5	1,763150
6,933667	0,5	1,776750
6,942000	0,5	1,788300
6,950333	0,5	1,805350
6,958667	0,5	1,823750
6,967000	0,5	1,836250
6,975333	0,5	1,841200
6,983667	0,5	1,846850
6,992000	0,5	1,847000
7,000333	0,5	1,851450
7,008667	0,5	1,841300
7,017000	0,5	1,831950
7,025333	0,5	1,821900
7,033667	0,5	1,806750
7,042000	0,5	1,785500
7,050333	0,5	1,771150
7,058667	0,5	1,752300
7,067000	0,5	1,728650
7,075333	0,5	1,709650
7,083667	0,5	1,695250
7,092000	0,5	1,689100
7,100333	0,5	1,682950
7,108667	0,5	1,681050
7,117000	0,5	1,673800
7,125333	0,5	1,680950
7,133667	0,5	1,681700
7,142000	0,5	1,697400
7,150333	0,5	1,706850
7,158667	0,5	1,730950
7,167000	0,5	1,754850
7,175333	0,5	1,787850
7,183667	0,5	1,828100
7,192000	0,5	1,872950
7,200333	0,5	1,932450
7,208667	0,5	2,001350
7,217000	0,5	2,075050
7,225333	0,5	2,162950
7,233667	0,5	2,269450
7,242000	0,5	2,401800
7,250333	0,5	2,560700
7,258667	0,5	2,740600
7,267000	0,5	2,966100
7,275333	0,5	3,239100
7,283667	0,5	3,574850
7,292000	0,5	3,976600
7,300333	0,5	4,460550
7,308667	0,5	5,020300
7,317000	0,5	5,665000
7,325333	0,5	6,365550
7,333667	0,5	7,108900
7,342000	0,5	7,838950
7,350333	0,5	8,532600
7,358667	0,5	9,105300
7,367000	0,5	9,519450
7,375333	0,5	9,730100
7,383667	0,5	9,720100
7,392000	0,5	9,479550
7,400333	0,5	9,015900
7,408667	0,5	8,379600
7,417000	0,5	7,623100
7,425333	0,5	6,800500
7,433667	0,5	5,971200
7,442000	0,5	5,189000
7,450333	0,5	4,483150
7,458667	0,5	3,877750
7,467000	0,5	3,380550
7,475333	0,5	2,986650
7,483667	0,5	2,682250
7,492000	0,5	2,463600
7,500333	0,5	2,311700
7,508667	0,5	2,206250
7,517000	0,5	2,133100
7,525333	0,5	2,094100
7,533667	0,5	2,076500
7,542000	0,5	2,080250
7,550333	0,5	2,087450
7,558667	0,5	2,116100
7,567000	0,5	2,146750
7,575333	0,5	2,193550
7,583667	0,5	2,253200
7,592000	0,5	2,319600
7,600333	0,5	2,398150
7,608667	0,5	2,476750
7,617000	0,5	2,552350
7,625333	0,5	2,609700
7,633667	0,5	2,649650
7,642000	0,5	2,657650
7,650333	0,5	2,638650
7,658667	0,5	2,587250
7,667000	0,5	2,517200
7,675333	0,5	2,432400
7,683667	0,5	2,343300
7,692000	0,5	2,252100
7,700333	0,5	2,164600
7,708667	0,5	2,082300
7,717000	0,5	2,005900
7,725333	0,5	1,940350
7,733667	0,5	1,883250
7,742000	0,5	1,833100
7,750333	0,5	1,789500
7,758667	0,5	1,760950
7,767000	0,5	1,735050
7,775333	0,5	1,716450
7,783667	0,5	1,704050
7,792000	0,5	1,700500
7,800333	0,5	1,699200
7,808667	0,5	1,701750
7,817000	0,5	1,706350
7,825333	0,5	1,717200
7,833667	0,5	1,731650
7,842000	0,5	1,744350
7,850333	0,5	1,754050
7,858667	0,5	1,762800
7,867000	0,5	1,771000
7,875333	0,5	1,775400
7,883667	0,5	1,776600
7,892000	0,5	1,774400
7,900333	0,5	1,768450
7,908667	0,5	1,764900
7,917000	0,5	1,755950
7,925333	0,5	1,749250
7,933667	0,5	1,735750
7,942000	0,5	1,727300
7,950333	0,5	1,712600
7,958667	0,5	1,696000
7,967000	0,5	1,681150
7,975333	0,5	1,669400
7,983667	0,5	1,662050
7,992000	0,5	1,663050
8,000333	0,5	1,669200
8,008667	0,5	1,686100
8,017000	0,5	1,714000
8,025333	0,5	1,763750
8,033667	0,5	1,840500
8,042000	0,5	1,947300
8,050333	0,5	2,085750
8,058667	0,5	2,246800
8,067000	0,5	2,414550
8,075333	0,5	2,571000
8,083667	0,5	2,707900
8,092000	0,5	2,835150
8,100333	0,5	2,959900
8,108667	0,5	3,102500
8,117000	0,5	3,283550
8,125333	0,5	3,510150
8,133667	0,5	3,777300
8,142000	0,5	4,071150
8,150333	0,5	4,381150
8,158667	0,5	4,688050
8,167000	0,5	4,963300
8,175333	0,5	5,201300
8,183667	0,5	5,362650
8,192000	0,5	5,444100
8,200333	0,5	5,436400
8,208667	0,5	5,345800
8,217000	0,5	5,201600
8,225333	0,5	5,044800
8,233667	0,5	4,914950
8,242000	0,5	4,827000
8,250333	0,5	4,775300
8,258667	0,5	4,714150
8,267000	0,5	4,606950
8,275333	0,5	4,418600
8,283667	0,5	4,140000
8,292000	0,5	3,797550
8,300333	0,5	3,419350
8,308667	0,5	3,057850
8,317000	0,5	2,732300
8,325333	0,5	2,458650
8,333667	0,5	2,250500
8,342000	0,5	2,089250
8,350333	0,5	1,968000
8,358667	0,5	1,887800
8,367000	0,5	1,835650
8,375333	0,5	1,813450
8,383667	0,5	1,824950
8,392000	0,5	1,852050
8,400333	0,5	1,898800
8,408667	0,5	1,958050
8,417000	0,5	2,024850
8,425333	0,5	2,082100
8,433667	0,5	2,131200
8,442000	0,5	2,169850
8,450333	0,5	2,193000
8,458667	0,5	2,207250
8,467000	0,5	2,204850
8,475333	0,5	2,186950
8,483667	0,5	2,139350
8,492000	0,5	2,069250
8,500333	0,5	1,978850
8,508667	0,5	1,878900
8,517000	0,5	1,772800
8,525333	0,5	1,683650
8,533667	0,5	1,615650
8,542000	0,5	1,560400
8,550333	0,5	1,514500
8,558667	0,5	1,488750
8,567000	0,5	1,472350
8,575333	0,5	1,474100
8,583667	0,5	1,489250
8,592000	0,5	1,531450
8,600333	0,5	1,602400
8,608667	0,5	1,707600
8,617000	0,5	1,827650
8,625333	0,5	1,933550
8,633667	0,5	1,993600
8,642000	0,5	1,992300
8,650333	0,5	1,935950
8,658667	0,5	1,841650
8,667000	0,5	1,733100
8,675333	0,5	1,627850
8,683667	0,5	1,542200
8,692000	0,5	1,472750
8,700333	0,5	1,423700
8,708667	0,5	1,396100
8,717000	0,5	1,383150
8,725333	0,5	1,388250
8,733667	0,5	1,401000
8,742000	0,5	1,413650
8,750333	0,5	1,427900
8,758667	0,5	1,434200
8,767000	0,5	1,429550
8,775333	0,5	1,415900
8,783667	0,5	1,400450
8,792000	0,5	1,382400
8,800333	0,5	1,363100
8,808667	0,5	1,350900
8,817000	0,5	1,350350
8,825333	0,5	1,362750
8,833667	0,5	1,392300
8,842000	0,5	1,436850
8,850333	0,5	1,507900
8,858667	0,5	1,592450
8,867000	0,5	1,678600
8,875333	0,5	1,761700
8,883667	0,5	1,815750
8,892000	0,5	1,836900
8,900333	0,5	1,830900
8,908667	0,5	1,794400
8,917000	0,5	1,742600
8,925333	0,5	1,685200
8,933667	0,5	1,626300
8,942000	0,5	1,579800
8,950333	0,5	1,544350
8,958667	0,5	1,520100
8,967000	0,5	1,508200
8,975333	0,5	1,501250
8,983667	0,5	1,511550
8,992000	0,5	1,533400
9,000333	0,5	1,576500
9,008667	0,5	1,647950
9,017000	0,5	1,735800
9,025333	0,5	1,836750
9,033667	0,5	1,918800
9,042000	0,5	1,964900
9,050333	0,5	1,958250
9,058667	0,5	1,899950
9,067000	0,5	1,816300
9,075333	0,5	1,725650
9,083667	0,5	1,656300
9,092000	0,5	1,614550
9,100333	0,5	1,615300
9,108667	0,5	1,648400
9,117000	0,5	1,699800
9,125333	0,5	1,760450
9,133667	0,5	1,805400
9,142000	0,5	1,809550
9,150333	0,5	1,775550
9,158667	0,5	1,711100
9,167000	0,5	1,636700
9,175333	0,5	1,550750
9,183667	0,5	1,478350
9,192000	0,5	1,423150
9,200333	0,5	1,384900
9,208667	0,5	1,360350
9,217000	0,5	1,347450
9,225333	0,5	1,337600
9,233667	0,5	1,334750
9,242000	0,5	1,329050
9,250333	0,5	1,322900
9,258667	0,5	1,320850
9,267000	0,5	1,314600
9,275333	0,5	1,322400
9,283667	0,5	1,326550
9,292000	0,5	1,341150
9,300333	0,5	1,357800
9,308667	0,5	1,379750
9,317000	0,5	1,410200
9,325333	0,5	1,444950
9,333667	0,5	1,489150
9,342000	0,5	1,555900
9,350333	0,5	1,659300
9,358667	0,5	1,802000
9,367000	0,5	1,971500
9,375333	0,5	2,146800
9,383667	0,5	2,289750
9,392000	0,5	2,362900
9,400333	0,5	2,347350
9,408667	0,5	2,259600
9,417000	0,5	2,120400
9,425333	0,5	1,958750
9,433667	0,5	1,794300
9,442000	0,5	1,656300
9,450333	0,5	1,542750
9,458667	0,5	1,461750
9,467000	0,5	1,412150
9,475333	0,5	1,381150
9,483667	0,5	1,368600
9,492000	0,5	1,367300
9,500333	0,5	1,383000
9,508667	0,5	1,403100
9,517000	0,5	1,430200
9,525333	0,5	1,456250
9,533667	0,5	1,479000
9,542000	0,5	1,504000
9,550333	0,5	1,534550
9,558667	0,5	1,577600
9,567000	0,5	1,642500
9,575333	0,5	1,736350
9,583667	0,5	1,839550
9,592000	0,5	1,941300
9,600333	0,5	2,016900
9,608667	0,5	2,049100
9,617000	0,5	2,032450
9,625333	0,5	1,977350
9,633667	0,5	1,904650
9,642000	0,5	1,838750
9,650333	0,5	1,797950
9,658667	0,5	1,796250
9,667000	0,5	1,845850
9,675333	0,5	1,944150
9,683667	0,5	2,090300
9,692000	0,5	2,277900
9,700333	0,5	2,481600
9,708667	0,5	2,689350
9,717000	0,5	2,882950
9,725333	0,5	3,052200
9,733667	0,5	3,201550
9,742000	0,5	3,332650
9,750333	0,5	3,446500
9,758667	0,5	3,519450
9,767000	0,5	3,531400
9,775333	0,5	3,460600
9,783667	0,5	3,309650
9,792000	0,5	3,089750
9,800333	0,5	2,833450
9,808667	0,5	2,575700
9,817000	0,5	2,336600
9,825333	0,5	2,125800
9,833667	0,5	1,956650
9,842000	0,5	1,819050
9,850333	0,5	1,718650
9,858667	0,5	1,647850
9,867000	0,5	1,607700
9,875333	0,5	1,585900
9,883667	0,5	1,578100
9,892000	0,5	1,581200
9,900333	0,5	1,587800
9,908667	0,5	1,600650
9,917000	0,5	1,615000
9,925333	0,5	1,637050
9,933667	0,5	1,681200
9,942000	0,5	1,735000
9,950333	0,5	1,798900
9,958667	0,5	1,853450
9,967000	0,5	1,885650
9,975333	0,5	1,886450
9,983667	0,5	1,859400
9,992000	0,5	1,819800
10,000333	0,5	1,767150
10,008667	0,5	1,720800
10,017000	0,5	1,694800
10,025333	0,5	1,694900
10,033667	0,5	1,731700
10,042000	0,5	1,816200
10,050333	0,5	1,942550
10,058667	0,5	2,087800
10,067000	0,5	2,217400
10,075333	0,5	2,298100
10,083667	0,5	2,307800
10,092000	0,5	2,255650
10,100333	0,5	2,155550
10,108667	0,5	2,034850
10,117000	0,5	1,914550
10,125333	0,5	1,812400
10,133667	0,5	1,734800
10,142000	0,5	1,686500
10,150333	0,5	1,671150
10,158667	0,5	1,685200
10,167000	0,5	1,717050
10,175333	0,5	1,765700
10,183667	0,5	1,822250
10,192000	0,5	1,886600
10,200333	0,5	1,958650
10,208667	0,5	2,022350
10,217000	0,5	2,077600
10,225333	0,5	2,144000
10,233667	0,5	2,243750
10,242000	0,5	2,374250
10,250333	0,5	2,520100
10,258667	0,5	2,675500
10,267000	0,5	2,813050
10,275333	0,5	2,886000
10,283667	0,5	2,868350
10,292000	0,5	2,784450
10,300333	0,5	2,688850
10,308667	0,5	2,705350
10,317000	0,5	3,093100
10,325333	0,5	4,095550
10,333667	0,5	5,309550
10,342000	0,5	6,262450
10,350333	0,5	6,555250
10,358667	0,5	5,916850
10,367000	0,5	4,609450
10,375333	0,5	3,180650
10,383667	0,5	2,113800
10,392000	0,5	1,490600
10,400333	0,5	1,150200
10,408667	0,5	0,951150
10,417000	0,5	0,819400
10,425333	0,5	0,734200
10,433667	0,5	0,668050
10,442000	0,5	0,621300
10,450333	0,5	0,584750
10,458667	0,5	0,560600
10,467000	0,5	0,533400
10,475333	0,5	0,509700
10,483667	0,5	0,488100
10,492000	0,5	0,466500
10,500333	0,5	0,451000
10,508667	0,5	0,435200
10,517000	0,5	0,421400
10,525333	0,5	0,407500
10,533667	0,5	0,395450
10,542000	0,5	0,384000
10,550333	0,5	0,375600
10,558667	0,5	0,367650
10,567000	0,5	0,356800
10,575333	0,5	0,350450
10,583667	0,5	0,339550
10,592000	0,5	0,327750
10,600333	0,5	0,322100
10,608667	0,5	0,314650
10,617000	0,5	0,308200
10,625333	0,5	0,304300
10,633667	0,5	0,297950
10,642000	0,5	0,303200
10,650333	0,5	0,311300
10,658667	0,5	0,319850
10,667000	0,5	0,328050
10,675333	0,5	0,339350
10,683667	0,5	0,348750
10,692000	0,5	0,354700
10,700333	0,5	0,365950
10,708667	0,5	0,366300
10,717000	0,5	0,370250
10,725333	0,5	0,372350
10,733667	0,5	0,368150
10,742000	0,5	0,360250
10,750333	0,5	0,358850
10,758667	0,5	0,351150
10,767000	0,5	0,336500
10,775333	0,5	0,327800
10,783667	0,5	0,311900
10,792000	0,5	0,302650
10,800333	0,5	0,291650
10,808667	0,5	0,280450
10,817000	0,5	0,269050
10,825333	0,5	0,254750
10,833667	0,5	0,241800
10,842000	0,5	0,231050
10,850333	0,5	0,217650
10,858667	0,5	0,207050
10,867000	0,5	0,196350
10,875333	0,5	0,188300
10,883667	0,5	0,173050
10,892000	0,5	0,164850
10,900333	0,5	0,157650
10,908667	0,5	0,148200
10,917000	0,5	0,140400
10,925333	0,5	0,133750
10,933667	0,5	0,127800
10,942000	0,5	0,121800
10,950333	0,5	0,118850
10,958667	0,5	0,116800
10,967000	0,5	0,113700
10,975333	0,5	0,110200
10,983667	0,5	0,108700
10,992000	0,5	0,109400
11,000333	0,5	0,111400
11,008667	0,5	0,110000
11,017000	0,5	0,113850
11,025333	0,5	0,116350
11,033667	0,5	0,117350
11,042000	0,5	0,117950
11,050333	0,5	0,122900
11,058667	0,5	0,124350
11,067000	0,5	0,124150
11,075333	0,5	0,121700
11,083667	0,5	0,127950
11,092000	0,5	0,130800
11,100333	0,5	0,129750
11,108667	0,5	0,134300
11,117000	0,5	0,137050
11,125333	0,5	0,142850
11,133667	0,5	0,148750
11,142000	0,5	0,152850
11,150333	0,5	0,157850
11,158667	0,5	0,164450
11,167000	0,5	0,175100
11,175333	0,5	0,180650
11,183667	0,5	0,183450
11,192000	0,5	0,198300
11,200333	0,5	0,201950
11,208667	0,5	0,206100
11,217000	0,5	0,209750
11,225333	0,5	0,205400
11,233667	0,5	0,209800
11,242000	0,5	0,209200
11,250333	0,5	0,205300
11,258667	0,5	0,204400
11,267000	0,5	0,196300
11,275333	0,5	0,191800
11,283667	0,5	0,187500
11,292000	0,5	0,177200
11,300333	0,5	0,170000
11,308667	0,5	0,160600
11,317000	0,5	0,155900
11,325333	0,5	0,146900
11,333667	0,5	0,139300
11,342000	0,5	0,133400
11,350333	0,5	0,130650
11,358667	0,5	0,124650
11,367000	0,5	0,121100
11,375333	0,5	0,119200
11,383667	0,5	0,119550
11,392000	0,5	0,122050
11,400333	0,5	0,118500
11,408667	0,5	0,118200
11,417000	0,5	0,123450
11,425333	0,5	0,123950
11,433667	0,5	0,126600
11,442000	0,5	0,124700
11,450333	0,5	0,124950
11,458667	0,5	0,130050
11,467000	0,5	0,129900
11,475333	0,5	0,132150
11,483667	0,5	0,133000
11,492000	0,5	0,134950
11,500333	0,5	0,138200
11,508667	0,5	0,138900
11,517000	0,5	0,139250
11,525333	0,5	0,146600
11,533667	0,5	0,149350
11,542000	0,5	0,154100
11,550333	0,5	0,157950
11,558667	0,5	0,166350
11,567000	0,5	0,170850
11,575333	0,5	0,174050
11,583667	0,5	0,181150
11,592000	0,5	0,181550
11,600333	0,5	0,186100
11,608667	0,5	0,188100
11,617000	0,5	0,198300
11,625333	0,5	0,202650
11,633667	0,5	0,209250
11,642000	0,5	0,218500
11,650333	0,5	0,221150
11,658667	0,5	0,228700
11,667000	0,5	0,236950
11,675333	0,5	0,246800
11,683667	0,5	0,263450
11,692000	0,5	0,276600
11,700333	0,5	0,285250
11,708667	0,5	0,294850
11,717000	0,5	0,307450
11,725333	0,5	0,317750
11,733667	0,5	0,328550
11,742000	0,5	0,335850
11,750333	0,5	0,340850
11,758667	0,5	0,345200
11,767000	0,5	0,348100
11,775333	0,5	0,348000
11,783667	0,5	0,352400
11,792000	0,5	0,348000
11,800333	0,5	0,346800
11,808667	0,5	0,342250
11,817000	0,5	0,332500
11,825333	0,5	0,333600
11,833667	0,5	0,327250
11,842000	0,5	0,328150
11,850333	0,5	0,319950
11,858667	0,5	0,320500
11,867000	0,5	0,318050
11,875333	0,5	0,315400
11,883667	0,5	0,315950
11,892000	0,5	0,313100
11,900333	0,5	0,314450
11,908667	0,5	0,313750
11,917000	0,5	0,309700
11,925333	0,5	0,314900
11,933667	0,5	0,319850
11,942000	0,5	0,325200
11,950333	0,5	0,328400
11,958667	0,5	0,325950
11,967000	0,5	0,336450
11,975333	0,5	0,345400
11,983667	0,5	0,360000
11,992000	0,5	0,369300
12,000333	0,5	0,383800
12,008667	0,5	0,395900
12,017000	0,5	0,413450
12,025333	0,5	0,431850
12,033667	0,5	0,451900
12,042000	0,5	0,472200
12,050333	0,5	0,495150
12,058667	0,5	0,519000
12,067000	0,5	0,546350
12,075333	0,5	0,574850
12,083667	0,5	0,607200
12,092000	0,5	0,640200
12,100333	0,5	0,672600
12,108667	0,5	0,702600
12,117000	0,5	0,741800
12,125333	0,5	0,782050
12,133667	0,5	0,821100
12,142000	0,5	0,860000
12,150333	0,5	0,897250
12,158667	0,5	0,932900
12,167000	0,5	0,964900
12,175333	0,5	0,996950
12,183667	0,5	1,023550
12,192000	0,5	1,045950
12,200333	0,5	1,064850
12,208667	0,5	1,080450
12,217000	0,5	1,088500
12,225333	0,5	1,105250
12,233667	0,5	1,110850
12,242000	0,5	1,117500
12,250333	0,5	1,122900
12,258667	0,5	1,127550
12,267000	0,5	1,142350
12,275333	0,5	1,152900
12,283667	0,5	1,168950
12,292000	0,5	1,191150
12,300333	0,5	1,214800
12,308667	0,5	1,242250
12,317000	0,5	1,273300
12,325333	0,5	1,305850
12,333667	0,5	1,336350
12,342000	0,5	1,360450
12,350333	0,5	1,384350
12,358667	0,5	1,385300
12,367000	0,5	1,391650
12,375333	0,5	1,387950
12,383667	0,5	1,378550
12,392000	0,5	1,364050
12,400333	0,5	1,347650
12,408667	0,5	1,336700
12,417000	0,5	1,331150
12,425333	0,5	1,325500
12,433667	0,5	1,318650
12,442000	0,5	1,316950
12,450333	0,5	1,319200
12,458667	0,5	1,320550
12,467000	0,5	1,326800
12,475333	0,5	1,337700
12,483667	0,5	1,347250
12,492000	0,5	1,359950
12,500333	0,5	1,373050
12,508667	0,5	1,381200
12,517000	0,5	1,396250
12,525333	0,5	1,407200
12,533667	0,5	1,418300
12,542000	0,5	1,425850
12,550333	0,5	1,428050
12,558667	0,5	1,439250
12,567000	0,5	1,450950
12,575333	0,5	1,463150
12,583667	0,5	1,472950
12,592000	0,5	1,481900
12,600333	0,5	1,488550
12,608667	0,5	1,499000
12,617000	0,5	1,507000
12,625333	0,5	1,526000
12,633667	0,5	1,550300
12,642000	0,5	1,575050
12,650333	0,5	1,603750
12,658667	0,5	1,617600
12,667000	0,5	1,647350
12,675333	0,5	1,656750
12,683667	0,5	1,650950
12,692000	0,5	1,644750
12,700333	0,5	1,629050
12,708667	0,5	1,616950
12,717000	0,5	1,607150
12,725333	0,5	1,591450
12,733667	0,5	1,579800
12,742000	0,5	1,569350
12,750333	0,5	1,566550
12,758667	0,5	1,556400
12,767000	0,5	1,558900
12,775333	0,5	1,559150
12,783667	0,5	1,564400
12,792000	0,5	1,571550
12,800333	0,5	1,576550
12,808667	0,5	1,578100
12,817000	0,5	1,584750
12,825333	0,5	1,582300
12,833667	0,5	1,578750
12,842000	0,5	1,573350
12,850333	0,5	1,569400
12,858667	0,5	1,568100
12,867000	0,5	1,566550
12,875333	0,5	1,567300
12,883667	0,5	1,568750
12,892000	0,5	1,579900
12,900333	0,5	1,579600
12,908667	0,5	1,591850
12,917000	0,5	1,598850
12,925333	0,5	1,602950
12,933667	0,5	1,607250
12,942000	0,5	1,609400
12,950333	0,5	1,599550
12,958667	0,5	1,599400
12,967000	0,5	1,594550
12,975333	0,5	1,589650
12,983667	0,5	1,580650
12,992000	0,5	1,571000
13,000333	0,5	1,567400
13,008667	0,5	1,561300
13,017000	0,5	1,558200
13,025333	0,5	1,555250
13,033667	0,5	1,553400
13,042000	0,5	1,551100
13,050333	0,5	1,550650
13,058667	0,5	1,546850
13,067000	0,5	1,552950
13,075333	0,5	1,553300
13,083667	0,5	1,565750
13,092000	0,5	1,566950
13,100333	0,5	1,573050
13,108667	0,5	1,584350
13,117000	0,5	1,591300
13,125333	0,5	1,597000
13,133667	0,5	1,595950
13,142000	0,5	1,588650
13,150333	0,5	1,586250
13,158667	0,5	1,579350
13,167000	0,5	1,571750
13,175333	0,5	1,567250
13,183667	0,5	1,557050
13,192000	0,5	1,554250
13,200333	0,5	1,546200
13,208667	0,5	1,542500
13,217000	0,5	1,535500
13,225333	0,5	1,535750
13,233667	0,5	1,538750
13,242000	0,5	1,534300
13,250333	0,5	1,537900
13,258667	0,5	1,543200
13,267000	0,5	1,542900
13,275333	0,5	1,544700
13,283667	0,5	1,539850
13,292000	0,5	1,540900
13,300333	0,5	1,546150
13,308667	0,5	1,548600
13,317000	0,5	1,547400
13,325333	0,5	1,553500
13,333667	0,5	1,556950
13,342000	0,5	1,563950
13,350333	0,5	1,566900
13,358667	0,5	1,568900
13,367000	0,5	1,572100
13,375333	0,5	1,575550
13,383667	0,5	1,571750
13,392000	0,5	1,558650
13,400333	0,5	1,560400
13,408667	0,5	1,559250
13,417000	0,5	1,557250
13,425333	0,5	1,555950
13,433667	0,5	1,552250
13,442000	0,5	1,556700
13,450333	0,5	1,561950
13,458667	0,5	1,561250
13,467000	0,5	1,558400
13,475333	0,5	1,559000
13,483667	0,5	1,556050
13,492000	0,5	1,553050
13,500333	0,5	1,546650
13,508667	0,5	1,539750
13,517000	0,5	1,531450
13,525333	0,5	1,527650
13,533667	0,5	1,530650
13,542000	0,5	1,524650
13,550333	0,5	1,538200
13,558667	0,5	1,554050
13,567000	0,5	1,560500
13,575333	0,5	1,573000
13,583667	0,5	1,576500
13,592000	0,5	1,594400
13,600333	0,5	1,594750
13,608667	0,5	1,598250
13,617000	0,5	1,589350
13,625333	0,5	1,586600
13,633667	0,5	1,578600
13,642000	0,5	1,567050
13,650333	0,5	1,560950
13,658667	0,5	1,555050
13,667000	0,5	1,550800
13,675333	0,5	1,552650
13,683667	0,5	1,553050
13,692000	0,5	1,554050
13,700333	0,5	1,558450
13,708667	0,5	1,555150
13,717000	0,5	1,545500
13,725333	0,5	1,535550
13,733667	0,5	1,526300
13,742000	0,5	1,533100
13,750333	0,5	1,544800
13,758667	0,5	1,565300
13,767000	0,5	1,590700
13,775333	0,5	1,623800
13,783667	0,5	1,659200
13,792000	0,5	1,680400
13,800333	0,5	1,689200
13,808667	0,5	1,678150
13,817000	0,5	1,655250
13,825333	0,5	1,631200
13,833667	0,5	1,593200
13,842000	0,5	1,565600
13,850333	0,5	1,547350
13,858667	0,5	1,531550
13,867000	0,5	1,523500
13,875333	0,5	1,524750
13,883667	0,5	1,534650
13,892000	0,5	1,557150
13,900333	0,5	1,568950
13,908667	0,5	1,577550
13,917000	0,5	1,583900
13,925333	0,5	1,593650
13,933667	0,5	1,608950
13,942000	0,5	1,642200
13,950333	0,5	1,682600
13,958667	0,5	1,732550
13,967000	0,5	1,775200
13,975333	0,5	1,802150
13,983667	0,5	1,792350
13,992000	0,5	1,769150
14,000333	0,5	1,722900
14,008667	0,5	1,662800
14,017000	0,5	1,601350
14,025333	0,5	1,545350
14,033667	0,5	1,514350
14,042000	0,5	1,491800
14,050333	0,5	1,486250
14,058667	0,5	1,487550
14,067000	0,5	1,498950
14,075333	0,5	1,519200
14,083667	0,5	1,545400
14,092000	0,5	1,575800
14,100333	0,5	1,616200
14,108667	0,5	1,666850
14,117000	0,5	1,722850
14,125333	0,5	1,751700
14,133667	0,5	1,761050
14,142000	0,5	1,753800
14,150333	0,5	1,705250
14,158667	0,5	1,647500
14,167000	0,5	1,577550
14,175333	0,5	1,518800
14,183667	0,5	1,474150
14,192000	0,5	1,447450
14,200333	0,5	1,433100
14,208667	0,5	1,432250
14,217000	0,5	1,438650
14,225333	0,5	1,458350
14,233667	0,5	1,490800
14,242000	0,5	1,527750
14,250333	0,5	1,564700
14,258667	0,5	1,608300
14,267000	0,5	1,632750
14,275333	0,5	1,636550
14,283667	0,5	1,631900
14,292000	0,5	1,605500
14,300333	0,5	1,559250
14,308667	0,5	1,514500
14,317000	0,5	1,459900
14,325333	0,5	1,423050
14,333667	0,5	1,400050
14,342000	0,5	1,392450
14,350333	0,5	1,388150
14,358667	0,5	1,399450
14,367000	0,5	1,413100
14,375333	0,5	1,438250
14,383667	0,5	1,467650
14,392000	0,5	1,493800
14,400333	0,5	1,520100
14,408667	0,5	1,527850
14,417000	0,5	1,522800
14,425333	0,5	1,497950
14,433667	0,5	1,471800
14,442000	0,5	1,438100
14,450333	0,5	1,410000
14,458667	0,5	1,383450
14,467000	0,5	1,370350
14,475333	0,5	1,378100
14,483667	0,5	1,393650
14,492000	0,5	1,403000
14,500333	0,5	1,418250
14,508667	0,5	1,428500
14,517000	0,5	1,434850
14,525333	0,5	1,436400
14,533667	0,5	1,431600
14,542000	0,5	1,418100
14,550333	0,5	1,399850
14,558667	0,5	1,380900
14,567000	0,5	1,347050
14,575333	0,5	1,320700
14,583667	0,5	1,306150
14,592000	0,5	1,296600
14,600333	0,5	1,284300
14,608667	0,5	1,275550
14,617000	0,5	1,272950
14,625333	0,5	1,283750
14,633667	0,5	1,284950
14,642000	0,5	1,289850
14,650333	0,5	1,290250
14,658667	0,5	1,299050
14,667000	0,5	1,296700
14,675333	0,5	1,309500
14,683667	0,5	1,313100
14,692000	0,5	1,316700
14,700333	0,5	1,321750
14,708667	0,5	1,325200
14,717000	0,5	1,311050
14,725333	0,5	1,311150
14,733667	0,5	1,309250
14,742000	0,5	1,301050
14,750333	0,5	1,287450
14,758667	0,5	1,267750
14,767000	0,5	1,260950
14,775333	0,5	1,255900
14,783667	0,5	1,256450
14,792000	0,5	1,243850
14,800333	0,5	1,246150
14,808667	0,5	1,240100
14,817000	0,5	1,240200
14,825333	0,5	1,234750
14,833667	0,5	1,229650
14,842000	0,5	1,225950
14,850333	0,5	1,220250
14,858667	0,5	1,214350
14,867000	0,5	1,199650
14,875333	0,5	1,208800
14,883667	0,5	1,211800
14,892000	0,5	1,210200
14,900333	0,5	1,207850
14,908667	0,5	1,201950
14,917000	0,5	1,210050
14,925333	0,5	1,217750
14,933667	0,5	1,215900
14,942000	0,5	1,217450
14,950333	0,5	1,213600
14,958667	0,5	1,212300
14,967000	0,5	1,201550
14,975333	0,5	1,199250
14,983667	0,5	1,182950
14,992000	0,5	1,176800
15,000333	0,5	1,174950
15,008667	0,5	1,171100
15,017000	0,5	1,159750
15,025333	0,5	1,168400
15,033667	0,5	1,166800
15,042000	0,5	1,166300
15,050333	0,5	1,166350
15,058667	0,5	1,151050
15,067000	0,5	1,155900
15,075333	0,5	1,150950
15,083667	0,5	1,149300
15,092000	0,5	1,142800
15,100333	0,5	1,143750
15,108667	0,5	1,136400
15,117000	0,5	1,137800
15,125333	0,5	1,137650
15,133667	0,5	1,138400
15,142000	0,5	1,144500
15,150333	0,5	1,151600
15,158667	0,5	1,144250
15,167000	0,5	1,142800
15,175333	0,5	1,145300
15,183667	0,5	1,140550
15,192000	0,5	1,135750
15,200333	0,5	1,122300
15,208667	0,5	1,117950
15,217000	0,5	1,119400
15,225333	0,5	1,116850
15,233667	0,5	1,115200
15,242000	0,5	1,116600
15,250333	0,5	1,116700
15,258667	0,5	1,120300
15,267000	0,5	1,116550
15,275333	0,5	1,117350
15,283667	0,5	1,116100
15,292000	0,5	1,121450
15,300333	0,5	1,116950
15,308667	0,5	1,111150
15,317000	0,5	1,115650
15,325333	0,5	1,115800
15,333667	0,5	1,111550
15,342000	0,5	1,110100
15,350333	0,5	1,102350
15,358667	0,5	1,103450
15,367000	0,5	1,105800
15,375333	0,5	1,107600
15,383667	0,5	1,107550
15,392000	0,5	1,105550
15,400333	0,5	1,105300
15,408667	0,5	1,104000
15,417000	0,5	1,100600
15,425333	0,5	1,100350
15,433667	0,5	1,103900
15,442000	0,5	1,107050
15,450333	0,5	1,108300
15,458667	0,5	1,101750
15,467000	0,5	1,106900
15,475333	0,5	1,110000
15,483667	0,5	1,108450
15,492000	0,5	1,106350
15,500333	0,5	1,110100
15,508667	0,5	1,120700
15,517000	0,5	1,133700
15,525333	0,5	1,139200
15,533667	0,5	1,145450
15,542000	0,5	1,148350
15,550333	0,5	1,150200
15,558667	0,5	1,149450
15,567000	0,5	1,148000
15,575333	0,5	1,149600
15,583667	0,5	1,151200
15,592000	0,5	1,148350
15,600333	0,5	1,131250
15,608667	0,5	1,138850
15,617000	0,5	1,141850
15,625333	0,5	1,143550
15,633667	0,5	1,140600
15,642000	0,5	1,138250
15,650333	0,5	1,141350
15,658667	0,5	1,147700
15,667000	0,5	1,144300
15,675333	0,5	1,156950
15,683667	0,5	1,153150
15,692000	0,5	1,166200
15,700333	0,5	1,164400
15,708667	0,5	1,173150
15,717000	0,5	1,175800
15,725333	0,5	1,183050
15,733667	0,5	1,208000
15,742000	0,5	1,219700
15,750333	0,5	1,227700
15,758667	0,5	1,240400
15,767000	0,5	1,237550
15,775333	0,5	1,221000
15,783667	0,5	1,202550
15,792000	0,5	1,177450
15,800333	0,5	1,174450
15,808667	0,5	1,163950
15,817000	0,5	1,159100
15,825333	0,5	1,152200
15,833667	0,5	1,154050
15,842000	0,5	1,151150
15,850333	0,5	1,157550
15,858667	0,5	1,156700
15,867000	0,5	1,148900
15,875333	0,5	1,147100
15,883667	0,5	1,147500
15,892000	0,5	1,139850
15,900333	0,5	1,130750
15,908667	0,5	1,137000
15,917000	0,5	1,132550
15,925333	0,5	1,128050
15,933667	0,5	1,117300
15,942000	0,5	1,114500
15,950333	0,5	1,120350
15,958667	0,5	1,121000
15,967000	0,5	1,114400
15,975333	0,5	1,116750
15,983667	0,5	1,114500
15,992000	0,5	1,115200
16,000333	0,5	1,113650
16,008667	0,5	1,117300
16,017000	0,5	1,117050
16,025333	0,5	1,117350
16,033667	0,5	1,122650
16,042000	0,5	1,118750
16,050333	0,5	1,128750
16,058667	0,5	1,133450
16,067000	0,5	1,139700
16,075333	0,5	1,139050
16,083667	0,5	1,136000
16,092000	0,5	1,143850
16,100333	0,5	1,161200
16,108667	0,5	1,165850
16,117000	0,5	1,176600
16,125333	0,5	1,184150
16,133667	0,5	1,188850
16,142000	0,5	1,182700
16,150333	0,5	1,182800
16,158667	0,5	1,172550
16,167000	0,5	1,162300
16,175333	0,5	1,151450
16,183667	0,5	1,147150
16,192000	0,5	1,127100
16,200333	0,5	1,132350
16,208667	0,5	1,124950
16,217000	0,5	1,122000
16,225333	0,5	1,114850
16,233667	0,5	1,110500
16,242000	0,5	1,120000
16,250333	0,5	1,127250
16,258667	0,5	1,134100
16,267000	0,5	1,127850
16,275333	0,5	1,136450
16,283667	0,5	1,136250
16,292000	0,5	1,143450
16,300333	0,5	1,140100
16,308667	0,5	1,141000
16,317000	0,5	1,142450
16,325333	0,5	1,150150
16,333667	0,5	1,147050
16,342000	0,5	1,147800
16,350333	0,5	1,155950
16,358667	0,5	1,155550
16,367000	0,5	1,147450
16,375333	0,5	1,140900
16,383667	0,5	1,130200
16,392000	0,5	1,140000
16,400333	0,5	1,143100
16,408667	0,5	1,156450
16,417000	0,5	1,166300
16,425333	0,5	1,168000
16,433667	0,5	1,176300
16,442000	0,5	1,172700
16,450333	0,5	1,177600
16,458667	0,5	1,172450
16,467000	0,5	1,174350
16,475333	0,5	1,174900
16,483667	0,5	1,175750
16,492000	0,5	1,183600
16,500333	0,5	1,193050
16,508667	0,5	1,187350
16,517000	0,5	1,188400
16,525333	0,5	1,179000
16,533667	0,5	1,187350
16,542000	0,5	1,192650
16,550333	0,5	1,209800
16,558667	0,5	1,219800
16,567000	0,5	1,238650
16,575333	0,5	1,265450
16,583667	0,5	1,290050
16,592000	0,5	1,316350
16,600333	0,5	1,337950
16,608667	0,5	1,357600
16,617000	0,5	1,370850
16,625333	0,5	1,377200
16,633667	0,5	1,383500
16,642000	0,5	1,409750
16,650333	0,5	1,451050
16,658667	0,5	1,506550
16,667000	0,5	1,567250
16,675333	0,5	1,659550
16,683667	0,5	1,746150
16,692000	0,5	1,823750
16,700333	0,5	1,865800
16,708667	0,5	1,872400
16,717000	0,5	1,836000
16,725333	0,5	1,768250
16,733667	0,5	1,680800
16,742000	0,5	1,579200
16,750333	0,5	1,483750
16,758667	0,5	1,400750
16,767000	0,5	1,334850
16,775333	0,5	1,274300
16,783667	0,5	1,237550
16,792000	0,5	1,213050
16,800333	0,5	1,193100
16,808667	0,5	1,177750
16,817000	0,5	1,159800
16,825333	0,5	1,153250
16,833667	0,5	1,158250
16,842000	0,5	1,154500
16,850333	0,5	1,160500
16,858667	0,5	1,149950
16,867000	0,5	1,147600
16,875333	0,5	1,141000
16,883667	0,5	1,140350
16,892000	0,5	1,136050
16,900333	0,5	1,134450
16,908667	0,5	1,135850
16,917000	0,5	1,137550
16,925333	0,5	1,122200
16,933667	0,5	1,129900
16,942000	0,5	1,132400
16,950333	0,5	1,124050
16,958667	0,5	1,115950
16,967000	0,5	1,096700
16,975333	0,5	1,098650
16,983667	0,5	1,093850
16,992000	0,5	1,095150
17,000333	0,5	1,088200
17,008667	0,5	1,094150
17,017000	0,5	1,086900
17,025333	0,5	1,088400
17,033667	0,5	1,082500
17,042000	0,5	1,082900
17,050333	0,5	1,080850
17,058667	0,5	1,071250
17,067000	0,5	1,066250
17,075333	0,5	1,051850
17,083667	0,5	1,060600
17,092000	0,5	1,059250
17,100333	0,5	1,053200
17,108667	0,5	1,045600
17,117000	0,5	1,032200
17,125333	0,5	1,034450
17,133667	0,5	1,037050
17,142000	0,5	1,035550
17,150333	0,5	1,040000
17,158667	0,5	1,028850
17,167000	0,5	1,039000
17,175333	0,5	1,036850
17,183667	0,5	1,037750
17,192000	0,5	1,033600
17,200333	0,5	1,034000
17,208667	0,5	1,037000
17,217000	0,5	1,031750
17,225333	0,5	1,030650
17,233667	0,5	1,037550
17,242000	0,5	1,036350
17,250333	0,5	1,031500
17,258667	0,5	1,020450
17,267000	0,5	1,015500
17,275333	0,5	1,026200
17,283667	0,5	1,020950
17,292000	0,5	1,023000
17,300333	0,5	1,018650
17,308667	0,5	1,014050
17,317000	0,5	1,011600
17,325333	0,5	1,014050
17,333667	0,5	1,009700
17,342000	0,5	1,010400
17,350333	0,5	1,010400
17,358667	0,5	1,012850
17,367000	0,5	0,996550
17,375333	0,5	1,010900
17,383667	0,5	1,007450
17,392000	0,5	1,006400
17,400333	0,5	1,000500
17,408667	0,5	0,985250
17,417000	0,5	0,990500
17,425333	0,5	0,987500
17,433667	0,5	0,991000
17,442000	0,5	0,991350
17,450333	0,5	0,999300
17,458667	0,5	0,992250
17,467000	0,5	1,002200
17,475333	0,5	1,003250
17,483667	0,5	1,007900
17,492000	0,5	1,018450
17,500333	0,5	1,028100
17,508667	0,5	1,032000
17,517000	0,5	1,040350
17,525333	0,5	1,058500
17,533667	0,5	1,071350
17,542000	0,5	1,085700
17,550333	0,5	1,090900
17,558667	0,5	1,096400
17,567000	0,5	1,122200
17,575333	0,5	1,153250
17,583667	0,5	1,172150
17,592000	0,5	1,199450
17,600333	0,5	1,223800
17,608667	0,5	1,247400
17,617000	0,5	1,267500
17,625333	0,5	1,292850
17,633667	0,5	1,309400
17,642000	0,5	1,337900
17,650333	0,5	1,351250
17,658667	0,5	1,365350
17,667000	0,5	1,380600
17,675333	0,5	1,401850
17,683667	0,5	1,408000
17,692000	0,5	1,419300
17,700333	0,5	1,417100
17,708667	0,5	1,418750
17,717000	0,5	1,427050
17,725333	0,5	1,433800
17,733667	0,5	1,436950
17,742000	0,5	1,438050
17,750333	0,5	1,429200
17,758667	0,5	1,422100
17,767000	0,5	1,421100
17,775333	0,5	1,409150
17,783667	0,5	1,397800
17,792000	0,5	1,389550
17,800333	0,5	1,374650
17,808667	0,5	1,350500
17,817000	0,5	1,349400
17,825333	0,5	1,337600
17,833667	0,5	1,320650
17,842000	0,5	1,299050
17,850333	0,5	1,275450
17,858667	0,5	1,268650
17,867000	0,5	1,266150
17,875333	0,5	1,255800
17,883667	0,5	1,245000
17,892000	0,5	1,238050
17,900333	0,5	1,232050
17,908667	0,5	1,221550
17,917000	0,5	1,213950
17,925333	0,5	1,202750
17,933667	0,5	1,196650
17,942000	0,5	1,195850
17,950333	0,5	1,174350
17,958667	0,5	1,167900
17,967000	0,5	1,165050
17,975333	0,5	1,157150
17,983667	0,5	1,145100
17,992000	0,5	1,133400
18,000333	0,5	1,122800
18,008667	0,5	1,121400
18,017000	0,5	1,113350
18,025333	0,5	1,107600
18,033667	0,5	1,101800
18,042000	0,5	1,102200
18,050333	0,5	1,092000
18,058667	0,5	1,093800
18,067000	0,5	1,097200
18,075333	0,5	1,088950
18,083667	0,5	1,091800
18,092000	0,5	1,092500
18,100333	0,5	1,078350
18,108667	0,5	1,081700
18,117000	0,5	1,082100
18,125333	0,5	1,075200
18,133667	0,5	1,066450
18,142000	0,5	1,053550
18,150333	0,5	1,053550
18,158667	0,5	1,052400
18,167000	0,5	1,057000
18,175333	0,5	1,053600
18,183667	0,5	1,056100
18,192000	0,5	1,058050
18,200333	0,5	1,056200
18,208667	0,5	1,060950
18,217000	0,5	1,058600
18,225333	0,5	1,059200
18,233667	0,5	1,063550
18,242000	0,5	1,067150
18,250333	0,5	1,054900
18,258667	0,5	1,074700
18,267000	0,5	1,075500
18,275333	0,5	1,078800
18,283667	0,5	1,072750
18,292000	0,5	1,069200
18,300333	0,5	1,077650
18,308667	0,5	1,086700
18,317000	0,5	1,083750
18,325333	0,5	1,086400
18,333667	0,5	1,082500
18,342000	0,5	1,083850
18,350333	0,5	1,076450
18,358667	0,5	1,082150
18,367000	0,5	1,080500
18,375333	0,5	1,078250
18,383667	0,5	1,080500
18,392000	0,5	1,078550
18,400333	0,5	1,072400
18,408667	0,5	1,078300
18,417000	0,5	1,077250
18,425333	0,5	1,074000
18,433667	0,5	1,069150
18,442000	0,5	1,056700
18,450333	0,5	1,071350
18,458667	0,5	1,067350
18,467000	0,5	1,074650
18,475333	0,5	1,072700
18,483667	0,5	1,082450
18,492000	0,5	1,083250
18,500333	0,5	1,091000
18,508667	0,5	1,088800
18,517000	0,5	1,091550
18,525333	0,5	1,099050
18,533667	0,5	1,106300
18,542000	0,5	1,096250
18,550333	0,5	1,102750
18,558667	0,5	1,103650
18,567000	0,5	1,105950
18,575333	0,5	1,099000
18,583667	0,5	1,086250
18,592000	0,5	1,089850
18,600333	0,5	1,090550
18,608667	0,5	1,096150
18,617000	0,5	1,096550
18,625333	0,5	1,101300
18,633667	0,5	1,097850
18,642000	0,5	1,099550
18,650333	0,5	1,100600
18,658667	0,5	1,101450
18,667000	0,5	1,103000
18,675333	0,5	1,113100
18,683667	0,5	1,111900
18,692000	0,5	1,107600
18,700333	0,5	1,111450
18,708667	0,5	1,111200
18,717000	0,5	1,109550
18,725333	0,5	1,099700
18,733667	0,5	1,089900
18,742000	0,5	1,084850
18,750333	0,5	1,090000
18,758667	0,5	1,087050
18,767000	0,5	1,092800
18,775333	0,5	1,089550
18,783667	0,5	1,098150
18,792000	0,5	1,095900
18,800333	0,5	1,101300
18,808667	0,5	1,099450
18,817000	0,5	1,101650
18,825333	0,5	1,106100
18,833667	0,5	1,099250
18,842000	0,5	1,091850
18,850333	0,5	1,102500
18,858667	0,5	1,096900
18,867000	0,5	1,094200
18,875333	0,5	1,080500
18,883667	0,5	1,072800
18,892000	0,5	1,079600
18,900333	0,5	1,082400
18,908667	0,5	1,083100
18,917000	0,5	1,080750
18,925333	0,5	1,088000
18,933667	0,5	1,083000
18,942000	0,5	1,084250
18,950333	0,5	1,079800
18,958667	0,5	1,085100
18,967000	0,5	1,090150
18,975333	0,5	1,091750
18,983667	0,5	1,083500
18,992000	0,5	1,092700
19,000333	0,5	1,092950
19,008667	0,5	1,089050
19,017000	0,5	1,076650
19,025333	0,5	1,071850
19,033667	0,5	1,069400
19,042000	0,5	1,069850
19,050333	0,5	1,071600
19,058667	0,5	1,072200
19,067000	0,5	1,078200
19,075333	0,5	1,076250
19,083667	0,5	1,081850
19,092000	0,5	1,081350
19,100333	0,5	1,085700
19,108667	0,5	1,084700
19,117000	0,5	1,091550
19,125333	0,5	1,083650
19,133667	0,5	1,083350
19,142000	0,5	1,093400
19,150333	0,5	1,095350
19,158667	0,5	1,092400
19,167000	0,5	1,087700
19,175333	0,5	1,081500
19,183667	0,5	1,089350
19,192000	0,5	1,090900
19,200333	0,5	1,092800
19,208667	0,5	1,095850
19,217000	0,5	1,100200
19,225333	0,5	1,102550
19,233667	0,5	1,095300
19,242000	0,5	1,099250
19,250333	0,5	1,094250
19,258667	0,5	1,096700
19,267000	0,5	1,104000
19,275333	0,5	1,097900
19,283667	0,5	1,109650
19,292000	0,5	1,116950
19,300333	0,5	1,119000
19,308667	0,5	1,124750
19,317000	0,5	1,113750
19,325333	0,5	1,128750
19,333667	0,5	1,132700
19,342000	0,5	1,139100
19,350333	0,5	1,145150
19,358667	0,5	1,151500
19,367000	0,5	1,157200
19,375333	0,5	1,161500
19,383667	0,5	1,174300
19,392000	0,5	1,174200
19,400333	0,5	1,177200
19,408667	0,5	1,176150
19,417000	0,5	1,183900
19,425333	0,5	1,165650
19,433667	0,5	1,170750
19,442000	0,5	1,168000
19,450333	0,5	1,157800
19,458667	0,5	1,147350
19,467000	0,5	1,128600
19,475333	0,5	1,130450
19,483667	0,5	1,125200
19,492000	0,5	1,118200
19,500333	0,5	1,121350
19,508667	0,5	1,119550
19,517000	0,5	1,117300
19,525333	0,5	1,116300
19,533667	0,5	1,118500
19,542000	0,5	1,120800
19,550333	0,5	1,122150
19,558667	0,5	1,131350
19,567000	0,5	1,129100
19,575333	0,5	1,128750
19,583667	0,5	1,136350
19,592000	0,5	1,136250
19,600333	0,5	1,127000
19,608667	0,5	1,122750
19,617000	0,5	1,113000
19,625333	0,5	1,118100
19,633667	0,5	1,113800
19,642000	0,5	1,119400
19,650333	0,5	1,120050
19,658667	0,5	1,124850
19,667000	0,5	1,123900
19,675333	0,5	1,126900
19,683667	0,5	1,131650
19,692000	0,5	1,130050
19,700333	0,5	1,143050
19,708667	0,5	1,152000
19,717000	0,5	1,145800
19,725333	0,5	1,147750
19,733667	0,5	1,152300
19,742000	0,5	1,152050
19,750333	0,5	1,150000
19,758667	0,5	1,139450
19,767000	0,5	1,148650
19,775333	0,5	1,152750
19,783667	0,5	1,161050
19,792000	0,5	1,162600
19,800333	0,5	1,172250
19,808667	0,5	1,178450
19,817000	0,5	1,187600
19,825333	0,5	1,192300
19,833667	0,5	1,194050
19,842000	0,5	1,203600
19,850333	0,5	1,212350
19,858667	0,5	1,218050
19,867000	0,5	1,207050
19,875333	0,5	1,216650
19,883667	0,5	1,210000
19,892000	0,5	1,210950
19,900333	0,5	1,196700
19,908667	0,5	1,189950
19,917000	0,5	1,190900
19,925333	0,5	1,194400
19,933667	0,5	1,195050
19,942000	0,5	1,206350
19,950333	0,5	1,206000
19,958667	0,5	1,215500
19,967000	0,5	1,216050
19,975333	0,5	1,217600
19,983667	0,5	1,220800
19,992000	0,5	1,230200
20,000333	0,5	1,242550
20,008667	0,5	1,235950
20,017000	0,5	1,242650
20,025333	0,5	1,250350
20,033667	0,5	1,251900
20,042000	0,5	1,254400
20,050333	0,5	1,244250
20,058667	0,5	1,245800
20,067000	0,5	1,257400
20,075333	0,5	1,251800
20,083667	0,5	1,258350
20,092000	0,5	1,252850
20,100333	0,5	1,255550
20,108667	0,5	1,253500
20,117000	0,5	1,251450
20,125333	0,5	1,247850
20,133667	0,5	1,249250
20,142000	0,5	1,261950
20,150333	0,5	1,261650
20,158667	0,5	1,254250
20,167000	0,5	1,259350
20,175333	0,5	1,262150
20,183667	0,5	1,258800
20,192000	0,5	1,255550
20,200333	0,5	1,250850
20,208667	0,5	1,256600
20,217000	0,5	1,251550
20,225333	0,5	1,263150
20,233667	0,5	1,264850
20,242000	0,5	1,276700
20,250333	0,5	1,277850
20,258667	0,5	1,283500
20,267000	0,5	1,289800
20,275333	0,5	1,289150
20,283667	0,5	1,297000
20,292000	0,5	1,309550
20,300333	0,5	1,304050
20,308667	0,5	1,310250
20,317000	0,5	1,311000
20,325333	0,5	1,311850
20,333667	0,5	1,319400
20,342000	0,5	1,305850
20,350333	0,5	1,312850
20,358667	0,5	1,318400
20,367000	0,5	1,329550
20,375333	0,5	1,325500
20,383667	0,5	1,338400
20,392000	0,5	1,341100
20,400333	0,5	1,350150
20,408667	0,5	1,355900
20,417000	0,5	1,357350
20,425333	0,5	1,364400
20,433667	0,5	1,383550
20,442000	0,5	1,391050
20,450333	0,5	1,387400
20,458667	0,5	1,391800
20,467000	0,5	1,391500
20,475333	0,5	1,389650
20,483667	0,5	1,384700
20,492000	0,5	1,372900
20,500333	0,5	1,385800
20,508667	0,5	1,394000
20,517000	0,5	1,384850
20,525333	0,5	1,399000
20,533667	0,5	1,399550
20,542000	0,5	1,409200
20,550333	0,5	1,415050
20,558667	0,5	1,424550
20,567000	0,5	1,429450
20,575333	0,5	1,439150
20,583667	0,5	1,457000
20,592000	0,5	1,467300
20,600333	0,5	1,462850
20,608667	0,5	1,472250
20,617000	0,5	1,471200
20,625333	0,5	1,475450
20,633667	0,5	1,468100
20,642000	0,5	1,463250
20,650333	0,5	1,480500
20,658667	0,5	1,484650
20,667000	0,5	1,493650
20,675333	0,5	1,497050
20,683667	0,5	1,513100
20,692000	0,5	1,514850
20,700333	0,5	1,528450
20,708667	0,5	1,532500
20,717000	0,5	1,542150
20,725333	0,5	1,566400
20,733667	0,5	1,584450
20,742000	0,5	1,589200
20,750333	0,5	1,592800
20,758667	0,5	1,599400
20,767000	0,5	1,596600
20,775333	0,5	1,593000
20,783667	0,5	1,585050
20,792000	0,5	1,596200
20,800333	0,5	1,598500
20,808667	0,5	1,606800
20,817000	0,5	1,608850
20,825333	0,5	1,631200
20,833667	0,5	1,633750
20,842000	0,5	1,651950
20,850333	0,5	1,668500
20,858667	0,5	1,694100
20,867000	0,5	1,717300
20,875333	0,5	1,755250
20,883667	0,5	1,792600
20,892000	0,5	1,798400
20,900333	0,5	1,812500
20,908667	0,5	1,810800
20,917000	0,5	1,804700
20,925333	0,5	1,787850
20,933667	0,5	1,786850
20,942000	0,5	1,779550
20,950333	0,5	1,793900
20,958667	0,5	1,796750
20,967000	0,5	1,811300
20,975333	0,5	1,819300
20,983667	0,5	1,834450
20,992000	0,5	1,842100
21,000333	0,5	1,860300
21,008667	0,5	1,859150
21,017000	0,5	1,886350
21,025333	0,5	1,904050
21,033667	0,5	1,918900
21,042000	0,5	1,920000
21,050333	0,5	1,929800
21,058667	0,5	1,930300
21,067000	0,5	1,934250
21,075333	0,5	1,931050
21,083667	0,5	1,947150
21,092000	0,5	1,966600
21,100333	0,5	1,975700
21,108667	0,5	1,994850
21,117000	0,5	2,010400
21,125333	0,5	2,037850
21,133667	0,5	2,055700
21,142000	0,5	2,090650
21,150333	0,5	2,114500
21,158667	0,5	2,150450
21,167000	0,5	2,197350
21,175333	0,5	2,240700
21,183667	0,5	2,259200
21,192000	0,5	2,269050
21,200333	0,5	2,266300
21,208667	0,5	2,246600
21,217000	0,5	2,233400
21,225333	0,5	2,218500
21,233667	0,5	2,225950
21,242000	0,5	2,222900
21,250333	0,5	2,237400
21,258667	0,5	2,245600
21,267000	0,5	2,268350
21,275333	0,5	2,283800
21,283667	0,5	2,307150
21,292000	0,5	2,314050
21,300333	0,5	2,326950
21,308667	0,5	2,343050
21,317000	0,5	2,369550
21,325333	0,5	2,391200
21,333667	0,5	2,383900
21,342000	0,5	2,387350
21,350333	0,5	2,385700
21,358667	0,5	2,380650
21,367000	0,5	2,373400
21,375333	0,5	2,393900
21,383667	0,5	2,406450
21,392000	0,5	2,428200
21,400333	0,5	2,433850
21,408667	0,5	2,455400
21,417000	0,5	2,471500
21,425333	0,5	2,491850
21,433667	0,5	2,502000
21,442000	0,5	2,518400
21,450333	0,5	2,528550
21,458667	0,5	2,563200
21,467000	0,5	2,584600
21,475333	0,5	2,605400
21,483667	0,5	2,609400
21,492000	0,5	2,625800
21,500333	0,5	2,632700
21,508667	0,5	2,643850
21,517000	0,5	2,655900
21,525333	0,5	2,684150
21,533667	0,5	2,711400
21,542000	0,5	2,729450
21,550333	0,5	2,759400
21,558667	0,5	2,772400
21,567000	0,5	2,791050
21,575333	0,5	2,798700
21,583667	0,5	2,816450
21,592000	0,5	2,823150
21,600333	0,5	2,840700
21,608667	0,5	2,876400
21,617000	0,5	2,897400
21,625333	0,5	2,909450
21,633667	0,5	2,933550
21,642000	0,5	2,947950
21,650333	0,5	2,964750
21,658667	0,5	2,978750
21,667000	0,5	2,994800
21,675333	0,5	3,022200
21,683667	0,5	3,035400
21,692000	0,5	3,057850
21,700333	0,5	3,071850
21,708667	0,5	3,093250
21,717000	0,5	3,104850
21,725333	0,5	3,131200
21,733667	0,5	3,147900
21,742000	0,5	3,174200
21,750333	0,5	3,214150
21,758667	0,5	3,247100
21,767000	0,5	3,267300
21,775333	0,5	3,287450
21,783667	0,5	3,306400
21,792000	0,5	3,318600
21,800333	0,5	3,331300
21,808667	0,5	3,352500
21,817000	0,5	3,383350
21,825333	0,5	3,398450
21,833667	0,5	3,418750
21,842000	0,5	3,428000
21,850333	0,5	3,452200
21,858667	0,5	3,460050
21,867000	0,5	3,488250
21,875333	0,5	3,509850
21,883667	0,5	3,532450
21,892000	0,5	3,562300
21,900333	0,5	3,608650
21,908667	0,5	3,629000
21,917000	0,5	3,661100
21,925333	0,5	3,699100
21,933667	0,5	3,730650
21,942000	0,5	3,765200
21,950333	0,5	3,788050
21,958667	0,5	3,838550
21,967000	0,5	3,882550
21,975333	0,5	3,928900
21,983667	0,5	3,968600
21,992000	0,5	4,007450
22,000333	0,5	4,048950
22,008667	0,5	4,097750
22,017000	0,5	4,134100
22,025333	0,5	4,159550
22,033667	0,5	4,171000
22,042000	0,5	4,184950
22,050333	0,5	4,191700
22,058667	0,5	4,187950
22,067000	0,5	4,215200
22,075333	0,5	4,231300
22,083667	0,5	4,249900
22,092000	0,5	4,261850
22,100333	0,5	4,280150
22,108667	0,5	4,315950
22,117000	0,5	4,351500
22,125333	0,5	4,374850
22,133667	0,5	4,405100
22,142000	0,5	4,437100
22,150333	0,5	4,469600
22,158667	0,5	4,470050
22,167000	0,5	4,544300
22,175333	0,5	4,583200
22,183667	0,5	4,623650
22,192000	0,5	4,670950
22,200333	0,5	4,706850
22,208667	0,5	4,748100
22,217000	0,5	4,796750
22,225333	0,5	4,826300
22,233667	0,5	4,855650
22,242000	0,5	4,883050
22,250333	0,5	4,916200
22,258667	0,5	4,965300
22,267000	0,5	5,003800
22,275333	0,5	5,051500
22,283667	0,5	5,088350
22,292000	0,5	5,144800
22,300333	0,5	5,190000
22,308667	0,5	5,247350
22,317000	0,5	5,299750
22,325333	0,5	5,356900
22,333667	0,5	5,410000
22,342000	0,5	5,475100
22,350333	0,5	5,543050
22,358667	0,5	5,639150
22,367000	0,5	5,732850
22,375333	0,5	5,827800
22,383667	0,5	5,919850
22,392000	0,5	6,006450
22,400333	0,5	6,094500
22,408667	0,5	6,159900
22,417000	0,5	6,221250
22,425333	0,5	6,262200
22,433667	0,5	6,302950
22,442000	0,5	6,332950
22,450333	0,5	6,371100
22,458667	0,5	6,406950
22,467000	0,5	6,446300
22,475333	0,5	6,479950
22,483667	0,5	6,508200
22,492000	0,5	6,562450
22,500333	0,5	6,634550
22,508667	0,5	6,692350
22,517000	0,5	6,743450
22,525333	0,5	6,791900
22,533667	0,5	6,826400
22,542000	0,5	6,876400
22,550333	0,5	6,920750
22,558667	0,5	6,968850
22,567000	0,5	6,992150
22,575333	0,5	7,033500
22,583667	0,5	7,062050
22,592000	0,5	7,086400
22,600333	0,5	7,102900
22,608667	0,5	7,113100
22,617000	0,5	7,113950
22,625333	0,5	7,081000
22,633667	0,5	7,064650
22,642000	0,5	7,048600
22,650333	0,5	7,039550
22,658667	0,5	7,003700
22,667000	0,5	6,949750
22,675333	0,5	6,889550
22,683667	0,5	6,822300
22,692000	0,5	6,766750
22,700333	0,5	6,700750
22,708667	0,5	6,618000
22,717000	0,5	6,545200
22,725333	0,5	6,456300
22,733667	0,5	6,369600
22,742000	0,5	6,268500
22,750333	0,5	6,172250
22,758667	0,5	6,063800
22,767000	0,5	5,942200
22,775333	0,5	5,778350
22,783667	0,5	5,676000
22,792000	0,5	5,558050
22,800333	0,5	5,425550
22,808667	0,5	5,275400
22,817000	0,5	5,128150
22,825333	0,5	4,971400
22,833667	0,5	4,814750
22,842000	0,5	4,655100
22,850333	0,5	4,498650
22,858667	0,5	4,344500
22,867000	0,5	4,191500
22,875333	0,5	4,030850
22,883667	0,5	3,880250
22,892000	0,5	3,721200
22,900333	0,5	3,567850
22,908667	0,5	3,420100
22,917000	0,5	3,278450
22,925333	0,5	3,109600
22,933667	0,5	2,976450
22,942000	0,5	2,827850
22,950333	0,5	2,673800
22,958667	0,5	2,533900
22,967000	0,5	2,399100
22,975333	0,5	2,271850
22,983667	0,5	2,140200
22,992000	0,5	2,013350
23,000333	0,5	1,886300
23,008667	0,5	1,776050
23,017000	0,5	1,656900
23,025333	0,5	1,550550
23,033667	0,5	1,437700
23,042000	0,5	1,335650
23,050333	0,5	1,236600
23,058667	0,5	1,134000
23,067000	0,5	1,049700
23,075333	0,5	0,956400
23,083667	0,5	0,857550
23,092000	0,5	0,739700
23,100333	0,5	0,655050
23,108667	0,5	0,574550
23,117000	0,5	0,509650
23,125333	0,5	0,429650
23,133667	0,5	0,361650
23,142000	0,5	0,283900
23,150333	0,5	0,223900
23,158667	0,5	0,157750
23,167000	0,5	0,099600
23,175333	0,5	0,035050
23,183667	0,5	-0,020050
23,192000	0,5	-0,079050
23,200333	0,5	-0,133650
23,208667	0,5	-0,164350
23,217000	0,5	-0,238850
23,225333	0,5	-0,268350
23,233667	0,5	-0,326600
23,242000	0,5	-0,393800
23,250333	0,5	-0,441100
23,258667	0,5	-0,484400
23,267000	0,5	-0,511850
23,275333	0,5	-0,551000
23,283667	0,5	-0,595600
23,292000	0,5	-0,622500
23,300333	0,5	-0,654150
23,308667	0,5	-0,681600
23,317000	0,5	-0,714850
23,325333	0,5	-0,735650
23,333667	0,5	-0,770800
23,342000	0,5	-0,790150
23,350333	0,5	-0,818500
23,358667	0,5	-0,880000
23,367000	0,5	-0,873600
23,375333	0,5	-0,884250
23,383667	0,5	-0,905750
23,392000	0,5	-0,940400
23,400333	0,5	-0,972300
23,408667	0,5	-0,988250
23,417000	0,5	-1,004600
23,425333	0,5	-1,024800
23,433667	0,5	-1,044000
23,442000	0,5	-1,062050
23,450333	0,5	-1,073800
23,458667	0,5	-1,088050
23,467000	0,5	-1,098000
23,475333	0,5	-1,108900
23,483667	0,5	-1,118400
23,492000	0,5	-1,132350
23,500333	0,5	-1,142350
23,508667	0,5	-1,231500
23,517000	0,5	-1,196400
23,525333	0,5	-1,167300
23,533667	0,5	-1,177150
23,542000	0,5	-1,193100
23,550333	0,5	-1,209150
23,558667	0,5	-1,217250
23,567000	0,5	-1,228500
23,575333	0,5	-1,237850
23,583667	0,5	-1,245200
23,592000	0,5	-1,254800
23,600333	0,5	-1,259850
23,608667	0,5	-1,263750
23,617000	0,5	-1,269300
23,625333	0,5	-1,273850
23,633667	0,5	-1,280300
23,642000	0,5	-1,282000
23,650333	0,5	-1,330150
23,658667	0,5	-1,380400
23,667000	0,5	-1,336100
23,675333	0,5	-1,297450
23,683667	0,5	-1,288050
23,692000	0,5	-1,288750
23,700333	0,5	-1,292250
23,708667	0,5	-1,296250
23,717000	0,5	-1,297500
23,725333	0,5	-1,296150
23,733667	0,5	-1,295000
23,742000	0,5	-1,291200
23,750333	0,5	-1,289950
23,758667	0,5	-1,285150
23,767000	0,5	-1,284300
23,775333	0,5	-1,280050
23,783667	0,5	-1,279400
23,792000	0,5	-1,278800
23,800333	0,5	-1,398300
23,808667	0,5	-1,355050
23,817000	0,5	-1,322700
23,825333	0,5	-1,278600
23,833667	0,5	-1,263150
23,842000	0,5	-1,261000
23,850333	0,5	-1,257550
23,858667	0,5	-1,258500
23,867000	0,5	-1,247400
23,875333	0,5	-1,238650
23,883667	0,5	-1,233750
23,892000	0,5	-1,226050
23,900333	0,5	-1,218900
23,908667	0,5	-1,205250
23,917000	0,5	-1,199250
23,925333	0,5	-1,191800
23,933667	0,5	-1,181650
23,942000	0,5	-1,198850
23,950333	0,5	-1,275950
23,958667	0,5	-1,241900
23,967000	0,5	-1,197650
23,975333	0,5	-1,155600
23,983667	0,5	-1,140200
23,992000	0,5	-1,135850
24,000333	0,5	-1,129900
24,008667	0,5	-1,133850
24,017000	0,5	-1,114200
24,025333	0,5	-1,111700
24,033667	0,5	-1,096850
24,042000	0,5	-1,091550
24,050333	0,5	-1,074900
24,058667	0,5	-1,064850
24,067000	0,5	-1,049500
24,075333	0,5	-1,044850
24,083667	0,5	-1,036150
24,092000	0,5	-1,113650
24,100333	0,5	-1,107050
24,108667	0,5	-1,065300
24,117000	0,5	-1,021250
24,125333	0,5	-0,995250
24,133667	0,5	-0,977800
24,142000	0,5	-0,969350
24,150333	0,5	-0,966200
24,158667	0,5	-0,960750
24,167000	0,5	-0,947950
24,175333	0,5	-0,932100
24,183667	0,5	-0,924050
24,192000	0,5	-0,909400
24,200333	0,5	-0,903500
24,208667	0,5	-0,889500
24,217000	0,5	-0,884050
24,225333	0,5	-0,868800
24,233667	0,5	-0,862750
24,242000	0,5	-0,943950
24,250333	0,5	-0,911800
24,258667	0,5	-0,875000
24,267000	0,5	-0,841050
24,275333	0,5	-0,816600
24,283667	0,5	-0,810250
24,292000	0,5	-0,804050
24,300333	0,5	-0,798800
24,308667	0,5	-0,797200
24,317000	0,5	-0,778550
24,325333	0,5	-0,770400
24,333667	0,5	-0,754400
24,342000	0,5	-0,744800
24,350333	0,5	-0,731900
24,358667	0,5	-0,722300
24,367000	0,5	-0,707250
24,375333	0,5	-0,708050
24,383667	0,5	-0,718200
24,392000	0,5	-0,759300
24,400333	0,5	-0,730200
24,408667	0,5	-0,708350
24,417000	0,5	-0,679050
24,425333	0,5	-0,663350
24,433667	0,5	-0,656650
24,442000	0,5	-0,659150
24,450333	0,5	-0,654500
24,458667	0,5	-0,638900
24,467000	0,5	-0,630550
24,475333	0,5	-0,622250
24,483667	0,5	-0,614750
24,492000	0,5	-0,604750
24,500333	0,5	-0,600450
24,508667	0,5	-0,587150
24,517000	0,5	-0,582150
24,525333	0,5	-0,572950
24,533667	0,5	-0,615900
24,542000	0,5	-0,597400
24,550333	0,5	-0,591550
24,558667	0,5	-0,560200
24,567000	0,5	-0,549650
24,575333	0,5	-0,535500
24,583667	0,5	-0,537800
24,592000	0,5	-0,536100
24,600333	0,5	-0,536050
24,608667	0,5	-0,525150
24,617000	0,5	-0,518350
24,625333	0,5	-0,515900
24,633667	0,5	-0,507200
24,642000	0,5	-0,502150
24,650333	0,5	-0,493550
24,658667	0,5	-0,488300
24,667000	0,5	-0,479500
24,675333	0,5	-0,477250
24,683667	0,5	-0,515150
24,692000	0,5	-0,489400
24,700333	0,5	-0,483600
24,708667	0,5	-0,462550
24,717000	0,5	-0,451350
24,725333	0,5	-0,450300
24,733667	0,5	-0,443600
24,742000	0,5	-0,447150
24,750333	0,5	-0,439850
24,758667	0,5	-0,435800
24,767000	0,5	-0,428200
24,775333	0,5	-0,427400
24,783667	0,5	-0,421450
24,792000	0,5	-0,416950
24,800333	0,5	-0,416600
24,808667	0,5	-0,409600
24,817000	0,5	-0,404950
24,825333	0,5	-0,411450
24,833667	0,5	-0,424950
24,842000	0,5	-0,407350
24,850333	0,5	-0,398400
24,858667	0,5	-0,383800
24,867000	0,5	-0,376550
24,875333	0,5	-0,375150
24,883667	0,5	-0,378800
24,892000	0,5	-0,380050
24,900333	0,5	-0,374700
24,908667	0,5	-0,364850
24,917000	0,5	-0,366150
24,925333	0,5	-0,359900
24,933667	0,5	-0,356550
24,942000	0,5	-0,353900
24,950333	0,5	-0,349550
24,958667	0,5	-0,346900
24,967000	0,5	-0,346250
24,975333	0,5	-0,358000
24,983667	0,5	-0,348100
24,992000	0,5	-0,347400
25,000333	0,5	-0,338650
25,008667	0,5	-0,331950
25,017000	0,5	-0,329950
25,025333	0,5	-0,327700
25,033667	0,5	-0,325950
25,042000	0,5	-0,325050
25,050333	0,5	-0,320300
25,058667	0,5	-0,318300
25,067000	0,5	-0,314300
25,075333	0,5	-0,314550
25,083667	0,5	-0,311050
25,092000	0,5	-0,310200
25,100333	0,5	-0,304300
25,108667	0,5	-0,307500
25,117000	0,5	-0,303100
25,125333	0,5	-0,310950
25,133667	0,5	-0,301000
25,142000	0,5	-0,298650
25,150333	0,5	-0,295000
25,158667	0,5	-0,291000
25,167000	0,5	-0,290000
25,175333	0,5	-0,291800
25,183667	0,5	-0,292900
25,192000	0,5	-0,291900
25,200333	0,5	-0,289200
25,208667	0,5	-0,286100
25,217000	0,5	-0,284600
25,225333	0,5	-0,280750
25,233667	0,5	-0,277350
25,242000	0,5	-0,277250
25,250333	0,5	-0,277750
25,258667	0,5	-0,274150
25,267000	0,5	-0,271750
25,275333	0,5	-0,272950
25,283667	0,5	-0,267600
25,292000	0,5	-0,267500
25,300333	0,5	-0,265100
25,308667	0,5	-0,266650
25,317000	0,5	-0,264300
25,325333	0,5	-0,264100
25,333667	0,5	-0,264600
25,342000	0,5	-0,261800
25,350333	0,5	-0,261000
25,358667	0,5	-0,261000
25,367000	0,5	-0,257250
25,375333	0,5	-0,257450
25,383667	0,5	-0,257750
25,392000	0,5	-0,256150
25,400333	0,5	-0,253600
25,408667	0,5	-0,252300
25,417000	0,5	-0,252450
25,425333	0,5	-0,244350
25,433667	0,5	-0,242000
25,442000	0,5	-0,244550
25,450333	0,5	-0,242550
25,458667	0,5	-0,243200
25,467000	0,5	-0,239150
25,475333	0,5	-0,244450
25,483667	0,5	-0,240400
25,492000	0,5	-0,238000
25,500333	0,5	-0,238150
25,508667	0,5	-0,239750
25,517000	0,5	-0,237100
25,525333	0,5	-0,240050
25,533667	0,5	-0,238150
25,542000	0,5	-0,238000
25,550333	0,5	-0,235950
25,558667	0,5	-0,236150
25,567000	0,5	-0,228650
25,575333	0,5	-0,227450
25,583667	0,5	-0,226500
25,592000	0,5	-0,229550
25,600333	0,5	-0,228300
25,608667	0,5	-0,228550
25,617000	0,5	-0,225700
25,625333	0,5	-0,223550
25,633667	0,5	-0,222050
25,642000	0,5	-0,220450
25,650333	0,5	-0,217850
25,658667	0,5	-0,216550
25,667000	0,5	-0,218700
25,675333	0,5	-0,218450
25,683667	0,5	-0,217550
25,692000	0,5	-0,216950
25,700333	0,5	-0,215300
25,708667	0,5	-0,215300
25,717000	0,5	-0,211550
25,725333	0,5	-0,207000
25,733667	0,5	-0,207350
25,742000	0,5	-0,210400
25,750333	0,5	-0,207000
25,758667	0,5	-0,208350
25,767000	0,5	-0,203250
25,775333	0,5	-0,200350
25,783667	0,5	-0,203000
25,792000	0,5	-0,199700
25,800333	0,5	-0,196200
25,808667	0,5	-0,198200
25,817000	0,5	-0,196600
25,825333	0,5	-0,193650
25,833667	0,5	-0,195050
25,842000	0,5	-0,194450
25,850333	0,5	-0,193250
25,858667	0,5	-0,184400
25,867000	0,5	-0,185250
25,875333	0,5	-0,182800
25,883667	0,5	-0,186350
25,892000	0,5	-0,190300
25,900333	0,5	-0,188150
25,908667	0,5	-0,189300
25,917000	0,5	-0,182650
25,925333	0,5	-0,179400
25,933667	0,5	-0,178450
25,942000	0,5	-0,178300
25,950333	0,5	-0,173300
25,958667	0,5	-0,172300
25,967000	0,5	-0,175500
25,975333	0,5	-0,171200
25,983667	0,5	-0,169250
25,992000	0,5	-0,168150
26,000333	0,5	-0,168100
