File Path	chrom://chromeleon01/ikbm_chromeleon/2022/ICS-5000/ED1/Esteban/20220612_Cell_7_4_eg.seq/397.smp/ED_1.channel/ED_1.chm
Channel	ED_1

Injection Information:
Data Vault	ikbm_chromeleon
Injection	7_24h-NT_2
Injection Number	39
Position	RD8
Comment	
Processing Method	Stop sequence after Cell Death
Instrument Method	ICS5000_PA200_FullNative_Ox_26min_ED1
Type	Unknown
Status	Finished
Injection Date	13.06.2022
Injection Time	10:08:19
Injection Volume (µl)	5,0
Dilution Factor	1,0000
Weight	1,0000

Chromatogram Data Information:
Time Min. (min)	0,000167
Time Max. (min)	26,000167
Data Points	3121
Detector	EDet1
Generating Data System	Chromeleon 7.2.9.11323
Exporting Data System	Chromeleon 7.2.9.0
Operator	Instrument Controller
Signal Quantity	
Signal Unit	nC
Signal Min.	-1,751100
Signal Max.	643,710260
Channel	ED_1
Driver Name	DC-5000
Channel Type	Evaluation
Min. Step (s)	0,5
Max. Step (s)	0,5
Average Step (s)	0,5

Signal Parameter Information:
Signal Info	

Chromatogram Data:
Time (min)	Step (s)	Value (nC)
0,000167	n.a.	-0,010100
0,008500	0,5	-0,027450
0,016833	0,5	-0,020000
0,025167	0,5	-0,010850
0,033500	0,5	0,001650
0,041833	0,5	0,001050
0,050167	0,5	0,005550
0,058500	0,5	0,001750
0,066833	0,5	0,003000
0,075167	0,5	-0,000800
0,083500	0,5	0,007500
0,091833	0,5	-0,006800
0,100167	0,5	-0,002650
0,108500	0,5	0,014550
0,116833	0,5	0,008250
0,125167	0,5	-0,012550
0,133500	0,5	-0,004250
0,141833	0,5	-0,001100
0,150167	0,5	0,023250
0,158500	0,5	0,025800
0,166833	0,5	0,021350
0,175167	0,5	0,019250
0,183500	0,5	0,017650
0,191833	0,5	0,016550
0,200167	0,5	0,012150
0,208500	0,5	0,019050
0,216833	0,5	0,013900
0,225167	0,5	0,015600
0,233500	0,5	0,010500
0,241833	0,5	0,003600
0,250167	0,5	-0,000250
0,258500	0,5	0,025600
0,266833	0,5	-0,000900
0,275167	0,5	-0,001800
0,283500	0,5	-0,000900
0,291833	0,5	0,025650
0,300167	0,5	0,064550
0,308500	0,5	0,056600
0,316833	0,5	0,026800
0,325167	0,5	0,012300
0,333500	0,5	0,002400
0,341833	0,5	0,005600
0,350167	0,5	0,001700
0,358500	0,5	0,002250
0,366833	0,5	0,001250
0,375167	0,5	-0,000500
0,383500	0,5	0,006950
0,391833	0,5	-0,011600
0,400167	0,5	0,001450
0,408500	0,5	0,008350
0,416833	0,5	-0,005450
0,425167	0,5	-0,014300
0,433500	0,5	-0,005150
0,441833	0,5	0,006100
0,450167	0,5	0,021100
0,458500	0,5	0,006400
0,466833	0,5	0,015200
0,475167	0,5	0,008400
0,483500	0,5	0,014100
0,491833	0,5	0,006300
0,500167	0,5	0,014950
0,508500	0,5	0,006000
0,516833	0,5	0,007400
0,525167	0,5	0,006750
0,533500	0,5	-0,001400
0,541833	0,5	-0,007850
0,550167	0,5	0,008450
0,558500	0,5	-0,001200
0,566833	0,5	-0,004650
0,575167	0,5	-0,006100
0,583500	0,5	0,003300
0,591833	0,5	0,030150
0,600167	0,5	0,030750
0,608500	0,5	0,027100
0,616833	0,5	0,017750
0,625167	0,5	0,024150
0,633500	0,5	0,017700
0,641833	0,5	0,023050
0,650167	0,5	0,018800
0,658500	0,5	0,020600
0,666833	0,5	0,014400
0,675167	0,5	0,015050
0,683500	0,5	0,019100
0,691833	0,5	0,015200
0,700167	0,5	0,023000
0,708500	0,5	0,016000
0,716833	0,5	0,010750
0,725167	0,5	0,010900
0,733500	0,5	0,021050
0,741833	0,5	0,041050
0,750167	0,5	0,047000
0,758500	0,5	0,035650
0,766833	0,5	0,042650
0,775167	0,5	0,038700
0,783500	0,5	0,043050
0,791833	0,5	0,037400
0,800167	0,5	0,038200
0,808500	0,5	0,032850
0,816833	0,5	0,035950
0,825167	0,5	0,036350
0,833500	0,5	0,037600
0,841833	0,5	0,036650
0,850167	0,5	0,047950
0,858500	0,5	0,026050
0,866833	0,5	0,029550
0,875167	0,5	0,031350
0,883500	0,5	0,055700
0,891833	0,5	0,067650
0,900167	0,5	0,066500
0,908500	0,5	0,062350
0,916833	0,5	0,062750
0,925167	0,5	0,064100
0,933500	0,5	0,061400
0,941833	0,5	0,062100
0,950167	0,5	0,056550
0,958500	0,5	0,058400
0,966833	0,5	0,057500
0,975167	0,5	0,057350
0,983500	0,5	0,051450
0,991833	0,5	0,073300
1,000167	0,5	0,063750
1,008500	0,5	0,055500
1,016833	0,5	0,054250
1,025167	0,5	0,062900
1,033500	0,5	0,075150
1,041833	0,5	0,086400
1,050167	0,5	0,080900
1,058500	0,5	0,084200
1,066833	0,5	0,083250
1,075167	0,5	0,089800
1,083500	0,5	0,086000
1,091833	0,5	0,079850
1,100167	0,5	0,081500
1,108500	0,5	0,077750
1,116833	0,5	0,084400
1,125167	0,5	0,076950
1,133500	0,5	0,078250
1,141833	0,5	0,093300
1,150167	0,5	0,075700
1,158500	0,5	0,070200
1,166833	0,5	0,080250
1,175167	0,5	0,080150
1,183500	0,5	0,105100
1,191833	0,5	0,096200
1,200167	0,5	0,100650
1,208500	0,5	0,096250
1,216833	0,5	0,099450
1,225167	0,5	0,095550
1,233500	0,5	0,096950
1,241833	0,5	0,091850
1,250167	0,5	0,088650
1,258500	0,5	0,096300
1,266833	0,5	0,095950
1,275167	0,5	0,095850
1,283500	0,5	0,088750
1,291833	0,5	0,100450
1,300167	0,5	0,084800
1,308500	0,5	0,078150
1,316833	0,5	0,077050
1,325167	0,5	0,086200
1,333500	0,5	0,097300
1,341833	0,5	0,091100
1,350167	0,5	0,082400
1,358500	0,5	0,092900
1,366833	0,5	0,086350
1,375167	0,5	0,085150
1,383500	0,5	0,079300
1,391833	0,5	0,075800
1,400167	0,5	0,070550
1,408500	0,5	0,068050
1,416833	0,5	0,070050
1,425167	0,5	0,056050
1,433500	0,5	0,058600
1,441833	0,5	0,062200
1,450167	0,5	0,051850
1,458500	0,5	0,043250
1,466833	0,5	0,048200
1,475167	0,5	0,052450
1,483500	0,5	0,064950
1,491833	0,5	0,049200
1,500167	0,5	0,051550
1,508500	0,5	0,045300
1,516833	0,5	0,045700
1,525167	0,5	0,032750
1,533500	0,5	0,033600
1,541833	0,5	0,027050
1,550167	0,5	0,034000
1,558500	0,5	0,045750
1,566833	0,5	0,079950
1,575167	0,5	0,071250
1,583500	0,5	0,328900
1,591833	0,5	3,019850
1,600167	0,5	15,297200
1,608500	0,5	56,934701
1,616833	0,5	167,125752
1,625167	0,5	358,607755
1,633500	0,5	552,612958
1,641833	0,5	643,710260
1,650167	0,5	602,074059
1,658500	0,5	480,233157
1,666833	0,5	349,165505
1,675167	0,5	246,084754
1,683500	0,5	175,632653
1,691833	0,5	130,325152
1,700167	0,5	102,048652
1,708500	0,5	84,590601
1,716833	0,5	73,096151
1,725167	0,5	64,704251
1,733500	0,5	58,197901
1,741833	0,5	53,162001
1,750167	0,5	50,177751
1,758500	0,5	50,030651
1,766833	0,5	52,205151
1,775167	0,5	54,898801
1,783500	0,5	56,370701
1,791833	0,5	55,846051
1,800167	0,5	53,497301
1,808500	0,5	50,114201
1,816833	0,5	46,515401
1,825167	0,5	43,214801
1,833500	0,5	40,444451
1,841833	0,5	38,359651
1,850167	0,5	37,012351
1,858500	0,5	36,206851
1,866833	0,5	35,525801
1,875167	0,5	34,482201
1,883500	0,5	32,988100
1,891833	0,5	31,393450
1,900167	0,5	30,169000
1,908500	0,5	29,640800
1,916833	0,5	30,191650
1,925167	0,5	32,217000
1,933500	0,5	36,045151
1,941833	0,5	41,504001
1,950167	0,5	46,958151
1,958500	0,5	49,460601
1,966833	0,5	47,538651
1,975167	0,5	42,882151
1,983500	0,5	38,750151
1,991833	0,5	36,889851
2,000167	0,5	36,078801
2,008500	0,5	34,434351
2,016833	0,5	32,044700
2,025167	0,5	29,911600
2,033500	0,5	27,908700
2,041833	0,5	25,780800
2,050167	0,5	23,796650
2,058500	0,5	22,173350
2,066833	0,5	20,936000
2,075167	0,5	20,025750
2,083500	0,5	19,428150
2,091833	0,5	19,192500
2,100167	0,5	19,068450
2,108500	0,5	18,693550
2,116833	0,5	17,968100
2,125167	0,5	17,189150
2,133500	0,5	16,575050
2,141833	0,5	16,143050
2,150167	0,5	15,857600
2,158500	0,5	15,655750
2,166833	0,5	15,481350
2,175167	0,5	15,281400
2,183500	0,5	15,021050
2,191833	0,5	14,795100
2,200167	0,5	14,650600
2,208500	0,5	14,591000
2,216833	0,5	14,732700
2,225167	0,5	15,353150
2,233500	0,5	16,726700
2,241833	0,5	17,132550
2,250167	0,5	16,047300
2,258500	0,5	14,968450
2,266833	0,5	14,468300
2,275167	0,5	14,271350
2,283500	0,5	14,215950
2,291833	0,5	14,256450
2,300167	0,5	14,404800
2,308500	0,5	14,679600
2,316833	0,5	15,177600
2,325167	0,5	16,097900
2,333500	0,5	17,799000
2,341833	0,5	20,689700
2,350167	0,5	24,539300
2,358500	0,5	28,325850
2,366833	0,5	30,811250
2,375167	0,5	31,379300
2,383500	0,5	30,355200
2,391833	0,5	28,679900
2,400167	0,5	27,325800
2,408500	0,5	26,937450
2,416833	0,5	27,689200
2,425167	0,5	29,805950
2,433500	0,5	34,306451
2,441833	0,5	43,125601
2,450167	0,5	56,861101
2,458500	0,5	71,539551
2,466833	0,5	80,111601
2,475167	0,5	78,690001
2,483500	0,5	69,336301
2,491833	0,5	57,165451
2,500167	0,5	46,399851
2,508500	0,5	39,120151
2,516833	0,5	35,814801
2,525167	0,5	35,911501
2,533500	0,5	38,026901
2,541833	0,5	40,358601
2,550167	0,5	41,439101
2,558500	0,5	40,514401
2,566833	0,5	37,590151
2,575167	0,5	33,322350
2,583500	0,5	28,741150
2,591833	0,5	24,717700
2,600167	0,5	21,656250
2,608500	0,5	19,508600
2,616833	0,5	18,093000
2,625167	0,5	17,113800
2,633500	0,5	16,441900
2,641833	0,5	15,980350
2,650167	0,5	15,722300
2,658500	0,5	15,692450
2,666833	0,5	15,912600
2,675167	0,5	16,310950
2,683500	0,5	16,689950
2,691833	0,5	16,779150
2,700167	0,5	16,444750
2,708500	0,5	15,770950
2,716833	0,5	14,975950
2,725167	0,5	14,264700
2,733500	0,5	13,740700
2,741833	0,5	13,445300
2,750167	0,5	13,345400
2,758500	0,5	13,492800
2,766833	0,5	13,998150
2,775167	0,5	15,064000
2,783500	0,5	16,823650
2,791833	0,5	16,848700
2,800167	0,5	21,012800
2,808500	0,5	21,751600
2,816833	0,5	21,014100
2,825167	0,5	19,162050
2,833500	0,5	16,915450
2,841833	0,5	14,906450
2,850167	0,5	13,383000
2,858500	0,5	12,347350
2,866833	0,5	11,661300
2,875167	0,5	11,204250
2,883500	0,5	10,904650
2,891833	0,5	10,683950
2,900167	0,5	10,513700
2,908500	0,5	10,368450
2,916833	0,5	10,216700
2,925167	0,5	10,050350
2,933500	0,5	9,893650
2,941833	0,5	9,717450
2,950167	0,5	9,546550
2,958500	0,5	9,359150
2,966833	0,5	9,177350
2,975167	0,5	8,999250
2,983500	0,5	8,846200
2,991833	0,5	8,700250
3,000167	0,5	8,569850
3,008500	0,5	8,432400
3,016833	0,5	8,299850
3,025167	0,5	8,173150
3,033500	0,5	8,060650
3,041833	0,5	7,974200
3,050167	0,5	7,909450
3,058500	0,5	7,882950
3,066833	0,5	7,823500
3,075167	0,5	7,735850
3,083500	0,5	7,616650
3,091833	0,5	7,478700
3,100167	0,5	7,349050
3,108500	0,5	7,213950
3,116833	0,5	7,082950
3,125167	0,5	6,981700
3,133500	0,5	6,881100
3,141833	0,5	6,798350
3,150167	0,5	6,711200
3,158500	0,5	6,638700
3,166833	0,5	6,572600
3,175167	0,5	6,509000
3,183500	0,5	6,445300
3,191833	0,5	6,375400
3,200167	0,5	6,292900
3,208500	0,5	6,219350
3,216833	0,5	6,101350
3,225167	0,5	5,998650
3,233500	0,5	5,901750
3,241833	0,5	5,815650
3,250167	0,5	5,750300
3,258500	0,5	5,676600
3,266833	0,5	5,613350
3,275167	0,5	5,543800
3,283500	0,5	5,487550
3,291833	0,5	5,422400
3,300167	0,5	5,366950
3,308500	0,5	5,312100
3,316833	0,5	5,261950
3,325167	0,5	5,208250
3,333500	0,5	5,166550
3,341833	0,5	5,113800
3,350167	0,5	5,078550
3,358500	0,5	5,052900
3,366833	0,5	5,012850
3,375167	0,5	4,977550
3,383500	0,5	4,957300
3,391833	0,5	4,937350
3,400167	0,5	4,929400
3,408500	0,5	4,903100
3,416833	0,5	4,884350
3,425167	0,5	4,875250
3,433500	0,5	4,859000
3,441833	0,5	4,850850
3,450167	0,5	4,844000
3,458500	0,5	4,844850
3,466833	0,5	4,863900
3,475167	0,5	4,918800
3,483500	0,5	5,012500
3,491833	0,5	5,167600
3,500167	0,5	5,391100
3,508500	0,5	5,678850
3,516833	0,5	5,978600
3,525167	0,5	6,300350
3,533500	0,5	6,598400
3,541833	0,5	6,882850
3,550167	0,5	7,173950
3,558500	0,5	7,515500
3,566833	0,5	7,978350
3,575167	0,5	8,593550
3,583500	0,5	9,297400
3,591833	0,5	9,958450
3,600167	0,5	10,408800
3,608500	0,5	10,499600
3,616833	0,5	10,177000
3,625167	0,5	9,486600
3,633500	0,5	8,566100
3,641833	0,5	7,567000
3,650167	0,5	6,665800
3,658500	0,5	5,895900
3,666833	0,5	5,317250
3,675167	0,5	4,914750
3,683500	0,5	4,658900
3,691833	0,5	4,496200
3,700167	0,5	4,398700
3,708500	0,5	4,324500
3,716833	0,5	4,274950
3,725167	0,5	4,228600
3,733500	0,5	4,191800
3,741833	0,5	4,149500
3,750167	0,5	4,110700
3,758500	0,5	4,068350
3,766833	0,5	4,030300
3,775167	0,5	4,000800
3,783500	0,5	3,968550
3,791833	0,5	3,948500
3,800167	0,5	3,942150
3,808500	0,5	3,918000
3,816833	0,5	3,907250
3,825167	0,5	3,890900
3,833500	0,5	3,878600
3,841833	0,5	3,876050
3,850167	0,5	3,854300
3,858500	0,5	3,838850
3,866833	0,5	3,821100
3,875167	0,5	3,815600
3,883500	0,5	3,810450
3,891833	0,5	3,820600
3,900167	0,5	3,830650
3,908500	0,5	3,859200
3,916833	0,5	3,895100
3,925167	0,5	3,928150
3,933500	0,5	3,961700
3,941833	0,5	4,000400
3,950167	0,5	4,012300
3,958500	0,5	3,993900
3,966833	0,5	3,971850
3,975167	0,5	3,935250
3,983500	0,5	3,907450
3,991833	0,5	3,872100
4,000167	0,5	3,837450
4,008500	0,5	3,799600
4,016833	0,5	3,771500
4,025167	0,5	3,740900
4,033500	0,5	3,715400
4,041833	0,5	3,675750
4,050167	0,5	3,627150
4,058500	0,5	3,560750
4,066833	0,5	3,488400
4,075167	0,5	3,412000
4,083500	0,5	3,344450
4,091833	0,5	3,293750
4,100167	0,5	3,242200
4,108500	0,5	3,196650
4,116833	0,5	3,167100
4,125167	0,5	3,142950
4,133500	0,5	3,139150
4,141833	0,5	3,118350
4,150167	0,5	3,103000
4,158500	0,5	3,087550
4,166833	0,5	3,076700
4,175167	0,5	3,071850
4,183500	0,5	3,057900
4,191833	0,5	3,049650
4,200167	0,5	3,037950
4,208500	0,5	3,031350
4,216833	0,5	3,023050
4,225167	0,5	3,019450
4,233500	0,5	3,013100
4,241833	0,5	3,035200
4,250167	0,5	3,027750
4,258500	0,5	3,036500
4,266833	0,5	3,045350
4,275167	0,5	3,063750
4,283500	0,5	3,089800
4,291833	0,5	3,091400
4,300167	0,5	3,091300
4,308500	0,5	3,085200
4,316833	0,5	3,074100
4,325167	0,5	3,056850
4,333500	0,5	3,038450
4,341833	0,5	3,013350
4,350167	0,5	2,992550
4,358500	0,5	2,970750
4,366833	0,5	2,952200
4,375167	0,5	2,924450
4,383500	0,5	2,912700
4,391833	0,5	2,912350
4,400167	0,5	2,895800
4,408500	0,5	2,887100
4,416833	0,5	2,883400
4,425167	0,5	2,888500
4,433500	0,5	2,895000
4,441833	0,5	2,882100
4,450167	0,5	2,882350
4,458500	0,5	2,872950
4,466833	0,5	2,872950
4,475167	0,5	2,869450
4,483500	0,5	2,868200
4,491833	0,5	2,863950
4,500167	0,5	2,865050
4,508500	0,5	2,868500
4,516833	0,5	2,871850
4,525167	0,5	2,873200
4,533500	0,5	2,876250
4,541833	0,5	2,876050
4,550167	0,5	2,861800
4,558500	0,5	2,852800
4,566833	0,5	2,840650
4,575167	0,5	2,832400
4,583500	0,5	2,819200
4,591833	0,5	2,797500
4,600167	0,5	2,774150
4,608500	0,5	2,757450
4,616833	0,5	2,740050
4,625167	0,5	2,720850
4,633500	0,5	2,702050
4,641833	0,5	2,688400
4,650167	0,5	2,676150
4,658500	0,5	2,666000
4,666833	0,5	2,657100
4,675167	0,5	2,648250
4,683500	0,5	2,648100
4,691833	0,5	2,633700
4,700167	0,5	2,626650
4,708500	0,5	2,626600
4,716833	0,5	2,633550
4,725167	0,5	2,640750
4,733500	0,5	2,645150
4,741833	0,5	2,636800
4,750167	0,5	2,630300
4,758500	0,5	2,620600
4,766833	0,5	2,610850
4,775167	0,5	2,599200
4,783500	0,5	2,587050
4,791833	0,5	2,572400
4,800167	0,5	2,560300
4,808500	0,5	2,554050
4,816833	0,5	2,534200
4,825167	0,5	2,524650
4,833500	0,5	2,521450
4,841833	0,5	2,506050
4,850167	0,5	2,495500
4,858500	0,5	2,490500
4,866833	0,5	2,488750
4,875167	0,5	2,494700
4,883500	0,5	2,491950
4,891833	0,5	2,490850
4,900167	0,5	2,489100
4,908500	0,5	2,501250
4,916833	0,5	2,511150
4,925167	0,5	2,532050
4,933500	0,5	2,553800
4,941833	0,5	2,598300
4,950167	0,5	2,647850
4,958500	0,5	2,698850
4,966833	0,5	2,743700
4,975167	0,5	2,799950
4,983500	0,5	2,835950
4,991833	0,5	2,855250
5,000167	0,5	2,858950
5,008500	0,5	2,854650
5,016833	0,5	2,841650
5,025167	0,5	2,816800
5,033500	0,5	2,800700
5,041833	0,5	2,793000
5,050167	0,5	2,809400
5,058500	0,5	2,863000
5,066833	0,5	2,956200
5,075167	0,5	3,098950
5,083500	0,5	3,289700
5,091833	0,5	3,516800
5,100167	0,5	3,772050
5,108500	0,5	4,012400
5,116833	0,5	4,232100
5,125167	0,5	4,396850
5,133500	0,5	4,477500
5,141833	0,5	4,463100
5,150167	0,5	4,376050
5,158500	0,5	4,211500
5,166833	0,5	4,012100
5,175167	0,5	3,768450
5,183500	0,5	3,518750
5,191833	0,5	3,279400
5,200167	0,5	3,072800
5,208500	0,5	2,888400
5,216833	0,5	2,733950
5,225167	0,5	2,612300
5,233500	0,5	2,509650
5,241833	0,5	2,434500
5,250167	0,5	2,371900
5,258500	0,5	2,326250
5,266833	0,5	2,280100
5,275167	0,5	2,260900
5,283500	0,5	2,222350
5,291833	0,5	2,196850
5,300167	0,5	2,173600
5,308500	0,5	2,159150
5,316833	0,5	2,151450
5,325167	0,5	2,139650
5,333500	0,5	2,122500
5,341833	0,5	2,114550
5,350167	0,5	2,099150
5,358500	0,5	2,095050
5,366833	0,5	2,085100
5,375167	0,5	2,074150
5,383500	0,5	2,068050
5,391833	0,5	2,061850
5,400167	0,5	2,060750
5,408500	0,5	2,043150
5,416833	0,5	2,037450
5,425167	0,5	2,034700
5,433500	0,5	2,020350
5,441833	0,5	2,005650
5,450167	0,5	1,998300
5,458500	0,5	1,992200
5,466833	0,5	1,993200
5,475167	0,5	1,976100
5,483500	0,5	1,969350
5,491833	0,5	1,961000
5,500167	0,5	1,959500
5,508500	0,5	1,950200
5,516833	0,5	1,952550
5,525167	0,5	1,946500
5,533500	0,5	1,950550
5,541833	0,5	1,954000
5,550167	0,5	1,954150
5,558500	0,5	1,956900
5,566833	0,5	1,969500
5,575167	0,5	1,979850
5,583500	0,5	1,981050
5,591833	0,5	1,993350
5,600167	0,5	2,008200
5,608500	0,5	2,034100
5,616833	0,5	2,064050
5,625167	0,5	2,098600
5,633500	0,5	2,135800
5,641833	0,5	2,191450
5,650167	0,5	2,249000
5,658500	0,5	2,323200
5,666833	0,5	2,400750
5,675167	0,5	2,491200
5,683500	0,5	2,585100
5,691833	0,5	2,687400
5,700167	0,5	2,780400
5,708500	0,5	2,868050
5,716833	0,5	2,958650
5,725167	0,5	3,035250
5,733500	0,5	3,093400
5,741833	0,5	3,149900
5,750167	0,5	3,195950
5,758500	0,5	3,223150
5,766833	0,5	3,228600
5,775167	0,5	3,194550
5,783500	0,5	3,129700
5,791833	0,5	3,027650
5,800167	0,5	2,889250
5,808500	0,5	2,730650
5,816833	0,5	2,565750
5,825167	0,5	2,397650
5,833500	0,5	2,250250
5,841833	0,5	2,117050
5,850167	0,5	2,006300
5,858500	0,5	1,926000
5,866833	0,5	1,866650
5,875167	0,5	1,817450
5,883500	0,5	1,793100
5,891833	0,5	1,777300
5,900167	0,5	1,781550
5,908500	0,5	1,789900
5,916833	0,5	1,799100
5,925167	0,5	1,813900
5,933500	0,5	1,835750
5,941833	0,5	1,861200
5,950167	0,5	1,890300
5,958500	0,5	1,921900
5,966833	0,5	1,949450
5,975167	0,5	1,978900
5,983500	0,5	1,999150
5,991833	0,5	2,008100
6,000167	0,5	1,998600
6,008500	0,5	1,987900
6,016833	0,5	1,961600
6,025167	0,5	1,922250
6,033500	0,5	1,873150
6,041833	0,5	1,832700
6,050167	0,5	1,794050
6,058500	0,5	1,758700
6,066833	0,5	1,720700
6,075167	0,5	1,691950
6,083500	0,5	1,664000
6,091833	0,5	1,640500
6,100167	0,5	1,620000
6,108500	0,5	1,600700
6,116833	0,5	1,586300
6,125167	0,5	1,576650
6,133500	0,5	1,564150
6,141833	0,5	1,550200
6,150167	0,5	1,542250
6,158500	0,5	1,538300
6,166833	0,5	1,522650
6,175167	0,5	1,510600
6,183500	0,5	1,501950
6,191833	0,5	1,497500
6,200167	0,5	1,501150
6,208500	0,5	1,491150
6,216833	0,5	1,488350
6,225167	0,5	1,483900
6,233500	0,5	1,483350
6,241833	0,5	1,479400
6,250167	0,5	1,479450
6,258500	0,5	1,475600
6,266833	0,5	1,477750
6,275167	0,5	1,476550
6,283500	0,5	1,476450
6,291833	0,5	1,481750
6,300167	0,5	1,482700
6,308500	0,5	1,502050
6,316833	0,5	1,505000
6,325167	0,5	1,521900
6,333500	0,5	1,546500
6,341833	0,5	1,580350
6,350167	0,5	1,620800
6,358500	0,5	1,656950
6,366833	0,5	1,687300
6,375167	0,5	1,715800
6,383500	0,5	1,723800
6,391833	0,5	1,715100
6,400167	0,5	1,694800
6,408500	0,5	1,658800
6,416833	0,5	1,620700
6,425167	0,5	1,584450
6,433500	0,5	1,545150
6,441833	0,5	1,513600
6,450167	0,5	1,487450
6,458500	0,5	1,479050
6,466833	0,5	1,465450
6,475167	0,5	1,463000
6,483500	0,5	1,463450
6,491833	0,5	1,474450
6,500167	0,5	1,492300
6,508500	0,5	1,494050
6,516833	0,5	1,501500
6,525167	0,5	1,505150
6,533500	0,5	1,510300
6,541833	0,5	1,505750
6,550167	0,5	1,505450
6,558500	0,5	1,499650
6,566833	0,5	1,500150
6,575167	0,5	1,500300
6,583500	0,5	1,504100
6,591833	0,5	1,507000
6,600167	0,5	1,521100
6,608500	0,5	1,533250
6,616833	0,5	1,539800
6,625167	0,5	1,551250
6,633500	0,5	1,564500
6,641833	0,5	1,579300
6,650167	0,5	1,596800
6,658500	0,5	1,610700
6,666833	0,5	1,629900
6,675167	0,5	1,647700
6,683500	0,5	1,663850
6,691833	0,5	1,675800
6,700167	0,5	1,682450
6,708500	0,5	1,678200
6,716833	0,5	1,664550
6,725167	0,5	1,640300
6,733500	0,5	1,606600
6,741833	0,5	1,573000
6,750167	0,5	1,539450
6,758500	0,5	1,503350
6,766833	0,5	1,470800
6,775167	0,5	1,444250
6,783500	0,5	1,431200
6,791833	0,5	1,422650
6,800167	0,5	1,415750
6,808500	0,5	1,407800
6,816833	0,5	1,403650
6,825167	0,5	1,400750
6,833500	0,5	1,395600
6,841833	0,5	1,392600
6,850167	0,5	1,388500
6,858500	0,5	1,386500
6,866833	0,5	1,385850
6,875167	0,5	1,385650
6,883500	0,5	1,384750
6,891833	0,5	1,385150
6,900167	0,5	1,390500
6,908500	0,5	1,383300
6,916833	0,5	1,382100
6,925167	0,5	1,382250
6,933500	0,5	1,385600
6,941833	0,5	1,389550
6,950167	0,5	1,391400
6,958500	0,5	1,393350
6,966833	0,5	1,397600
6,975167	0,5	1,394800
6,983500	0,5	1,398850
6,991833	0,5	1,393250
7,000167	0,5	1,385450
7,008500	0,5	1,382450
7,016833	0,5	1,374050
7,025167	0,5	1,365800
7,033500	0,5	1,352400
7,041833	0,5	1,346700
7,050167	0,5	1,338800
7,058500	0,5	1,330800
7,066833	0,5	1,327700
7,075167	0,5	1,322450
7,083500	0,5	1,328400
7,091833	0,5	1,332200
7,100167	0,5	1,329900
7,108500	0,5	1,334150
7,116833	0,5	1,332100
7,125167	0,5	1,334850
7,133500	0,5	1,331000
7,141833	0,5	1,334000
7,150167	0,5	1,331800
7,158500	0,5	1,337050
7,166833	0,5	1,337350
7,175167	0,5	1,330150
7,183500	0,5	1,324900
7,191833	0,5	1,332850
7,200167	0,5	1,323700
7,208500	0,5	1,321700
7,216833	0,5	1,318900
7,225167	0,5	1,321300
7,233500	0,5	1,328150
7,241833	0,5	1,332450
7,250167	0,5	1,336100
7,258500	0,5	1,345250
7,266833	0,5	1,356900
7,275167	0,5	1,365750
7,283500	0,5	1,379400
7,291833	0,5	1,389200
7,300167	0,5	1,398300
7,308500	0,5	1,395700
7,316833	0,5	1,397050
7,325167	0,5	1,392550
7,333500	0,5	1,392500
7,341833	0,5	1,401200
7,350167	0,5	1,415600
7,358500	0,5	1,444000
7,366833	0,5	1,479550
7,375167	0,5	1,522200
7,383500	0,5	1,569000
7,391833	0,5	1,596150
7,400167	0,5	1,604250
7,408500	0,5	1,596450
7,416833	0,5	1,571250
7,425167	0,5	1,536700
7,433500	0,5	1,497950
7,441833	0,5	1,466950
7,450167	0,5	1,442400
7,458500	0,5	1,430800
7,466833	0,5	1,425650
7,475167	0,5	1,417300
7,483500	0,5	1,413250
7,491833	0,5	1,406750
7,500167	0,5	1,401000
7,508500	0,5	1,403100
7,516833	0,5	1,409650
7,525167	0,5	1,430000
7,533500	0,5	1,463350
7,541833	0,5	1,495500
7,550167	0,5	1,535850
7,558500	0,5	1,570350
7,566833	0,5	1,598250
7,575167	0,5	1,610100
7,583500	0,5	1,600800
7,591833	0,5	1,583400
7,600167	0,5	1,548450
7,608500	0,5	1,507000
7,616833	0,5	1,471200
7,625167	0,5	1,434350
7,633500	0,5	1,408800
7,641833	0,5	1,387250
7,650167	0,5	1,366200
7,658500	0,5	1,354950
7,666833	0,5	1,348600
7,675167	0,5	1,344950
7,683500	0,5	1,347600
7,691833	0,5	1,347300
7,700167	0,5	1,347050
7,708500	0,5	1,348600
7,716833	0,5	1,351900
7,725167	0,5	1,355900
7,733500	0,5	1,358950
7,741833	0,5	1,364300
7,750167	0,5	1,372150
7,758500	0,5	1,378900
7,766833	0,5	1,386350
7,775167	0,5	1,400550
7,783500	0,5	1,415350
7,791833	0,5	1,430500
7,800167	0,5	1,448150
7,808500	0,5	1,472150
7,816833	0,5	1,501500
7,825167	0,5	1,543700
7,833500	0,5	1,593000
7,841833	0,5	1,656100
7,850167	0,5	1,724900
7,858500	0,5	1,815200
7,866833	0,5	1,923300
7,875167	0,5	2,053650
7,883500	0,5	2,206300
7,891833	0,5	2,386400
7,900167	0,5	2,581750
7,908500	0,5	2,796900
7,916833	0,5	3,013650
7,925167	0,5	3,230150
7,933500	0,5	3,431100
7,941833	0,5	3,591550
7,950167	0,5	3,700950
7,958500	0,5	3,735200
7,966833	0,5	3,698200
7,975167	0,5	3,585350
7,983500	0,5	3,404750
7,991833	0,5	3,177650
8,000167	0,5	2,928900
8,008500	0,5	2,676300
8,016833	0,5	2,440250
8,025167	0,5	2,241800
8,033500	0,5	2,079650
8,041833	0,5	1,955750
8,050167	0,5	1,871650
8,058500	0,5	1,825350
8,066833	0,5	1,809900
8,075167	0,5	1,833050
8,083500	0,5	1,892200
8,091833	0,5	1,979200
8,100167	0,5	2,098400
8,108500	0,5	2,246700
8,116833	0,5	2,399600
8,125167	0,5	2,538550
8,133500	0,5	2,626900
8,141833	0,5	2,646300
8,150167	0,5	2,601250
8,158500	0,5	2,504200
8,166833	0,5	2,374750
8,175167	0,5	2,247400
8,183500	0,5	2,132100
8,191833	0,5	2,038600
8,200167	0,5	1,962750
8,208500	0,5	1,900300
8,216833	0,5	1,847350
8,225167	0,5	1,810900
8,233500	0,5	1,774800
8,241833	0,5	1,747600
8,250167	0,5	1,728000
8,258500	0,5	1,718200
8,266833	0,5	1,715400
8,275167	0,5	1,711950
8,283500	0,5	1,706800
8,291833	0,5	1,700200
8,300167	0,5	1,687650
8,308500	0,5	1,673100
8,316833	0,5	1,658000
8,325167	0,5	1,648350
8,333500	0,5	1,646600
8,341833	0,5	1,652050
8,350167	0,5	1,665850
8,358500	0,5	1,684750
8,366833	0,5	1,712100
8,375167	0,5	1,738100
8,383500	0,5	1,759300
8,391833	0,5	1,779900
8,400167	0,5	1,794750
8,408500	0,5	1,814350
8,416833	0,5	1,851150
8,425167	0,5	1,911600
8,433500	0,5	2,018300
8,441833	0,5	2,180000
8,450167	0,5	2,398650
8,458500	0,5	2,649050
8,466833	0,5	2,900000
8,475167	0,5	3,098650
8,483500	0,5	3,203950
8,491833	0,5	3,203150
8,500167	0,5	3,101000
8,508500	0,5	2,938950
8,516833	0,5	2,757550
8,525167	0,5	2,607450
8,533500	0,5	2,508400
8,541833	0,5	2,473500
8,550167	0,5	2,511700
8,558500	0,5	2,608550
8,566833	0,5	2,773350
8,575167	0,5	2,994050
8,583500	0,5	3,265200
8,591833	0,5	3,588100
8,600167	0,5	3,953400
8,608500	0,5	4,358850
8,616833	0,5	4,798750
8,625167	0,5	5,267600
8,633500	0,5	5,745500
8,641833	0,5	6,193150
8,650167	0,5	6,589950
8,658500	0,5	6,878150
8,666833	0,5	7,045050
8,675167	0,5	7,053800
8,683500	0,5	6,858200
8,691833	0,5	6,443900
8,700167	0,5	5,830250
8,708500	0,5	5,087150
8,716833	0,5	4,307550
8,725167	0,5	3,589800
8,733500	0,5	2,999150
8,741833	0,5	2,552050
8,750167	0,5	2,242800
8,758500	0,5	2,032450
8,766833	0,5	1,896000
8,775167	0,5	1,803950
8,783500	0,5	1,735050
8,791833	0,5	1,680150
8,800167	0,5	1,639150
8,808500	0,5	1,602450
8,816833	0,5	1,575900
8,825167	0,5	1,555250
8,833500	0,5	1,538450
8,841833	0,5	1,524500
8,850167	0,5	1,513300
8,858500	0,5	1,508050
8,866833	0,5	1,495750
8,875167	0,5	1,486100
8,883500	0,5	1,480550
8,891833	0,5	1,469550
8,900167	0,5	1,456350
8,908500	0,5	1,442200
8,916833	0,5	1,428450
8,925167	0,5	1,417850
8,933500	0,5	1,403350
8,941833	0,5	1,394600
8,950167	0,5	1,388500
8,958500	0,5	1,382950
8,966833	0,5	1,383350
8,975167	0,5	1,390150
8,983500	0,5	1,406550
8,991833	0,5	1,433750
9,000167	0,5	1,471500
9,008500	0,5	1,527150
9,016833	0,5	1,594650
9,025167	0,5	1,676550
9,033500	0,5	1,753700
9,041833	0,5	1,816550
9,050167	0,5	1,838600
9,058500	0,5	1,813100
9,066833	0,5	1,754200
9,075167	0,5	1,676600
9,083500	0,5	1,609000
9,091833	0,5	1,559800
9,100167	0,5	1,535550
9,108500	0,5	1,535600
9,116833	0,5	1,564350
9,125167	0,5	1,612050
9,133500	0,5	1,677100
9,141833	0,5	1,753900
9,150167	0,5	1,838100
9,158500	0,5	1,917750
9,166833	0,5	1,979600
9,175167	0,5	2,006600
9,183500	0,5	2,007150
9,191833	0,5	1,970900
9,200167	0,5	1,911500
9,208500	0,5	1,832850
9,216833	0,5	1,753950
9,225167	0,5	1,677900
9,233500	0,5	1,620950
9,241833	0,5	1,578000
9,250167	0,5	1,556900
9,258500	0,5	1,549450
9,266833	0,5	1,553000
9,275167	0,5	1,558300
9,283500	0,5	1,559450
9,291833	0,5	1,553000
9,300167	0,5	1,542550
9,308500	0,5	1,525800
9,316833	0,5	1,504450
9,325167	0,5	1,488250
9,333500	0,5	1,478250
9,341833	0,5	1,470000
9,350167	0,5	1,470450
9,358500	0,5	1,489150
9,366833	0,5	1,524000
9,375167	0,5	1,577300
9,383500	0,5	1,629550
9,391833	0,5	1,666050
9,400167	0,5	1,676900
9,408500	0,5	1,661800
9,416833	0,5	1,620650
9,425167	0,5	1,570250
9,433500	0,5	1,529150
9,441833	0,5	1,489150
9,450167	0,5	1,469700
9,458500	0,5	1,464550
9,466833	0,5	1,473500
9,475167	0,5	1,498200
9,483500	0,5	1,537900
9,491833	0,5	1,585050
9,500167	0,5	1,618850
9,508500	0,5	1,645150
9,516833	0,5	1,650750
9,525167	0,5	1,641200
9,533500	0,5	1,618800
9,541833	0,5	1,586850
9,550167	0,5	1,554550
9,558500	0,5	1,518900
9,566833	0,5	1,492600
9,575167	0,5	1,471900
9,583500	0,5	1,466200
9,591833	0,5	1,480650
9,600167	0,5	1,534200
9,608500	0,5	1,640150
9,616833	0,5	1,824950
9,625167	0,5	2,101850
9,633500	0,5	2,465300
9,641833	0,5	2,886400
9,650167	0,5	3,291150
9,658500	0,5	3,594900
9,666833	0,5	3,731000
9,675167	0,5	3,677300
9,683500	0,5	3,456800
9,691833	0,5	3,133350
9,700167	0,5	2,766200
9,708500	0,5	2,423000
9,716833	0,5	2,126750
9,725167	0,5	1,889950
9,733500	0,5	1,704650
9,741833	0,5	1,568150
9,750167	0,5	1,471450
9,758500	0,5	1,399450
9,766833	0,5	1,345400
9,775167	0,5	1,308750
9,783500	0,5	1,282900
9,791833	0,5	1,263800
9,800167	0,5	1,249500
9,808500	0,5	1,241350
9,816833	0,5	1,234350
9,825167	0,5	1,231400
9,833500	0,5	1,232900
9,841833	0,5	1,239000
9,850167	0,5	1,260550
9,858500	0,5	1,297000
9,866833	0,5	1,345300
9,875167	0,5	1,399200
9,883500	0,5	1,447150
9,891833	0,5	1,479600
9,900167	0,5	1,488000
9,908500	0,5	1,466750
9,916833	0,5	1,433650
9,925167	0,5	1,394800
9,933500	0,5	1,357050
9,941833	0,5	1,328200
9,950167	0,5	1,312150
9,958500	0,5	1,306000
9,966833	0,5	1,307150
9,975167	0,5	1,310100
9,983500	0,5	1,313350
9,991833	0,5	1,307050
10,000167	0,5	1,306000
10,008500	0,5	1,309750
10,016833	0,5	1,322900
10,025167	0,5	1,338850
10,033500	0,5	1,370850
10,041833	0,5	1,419150
10,050167	0,5	1,474200
10,058500	0,5	1,547500
10,066833	0,5	1,634750
10,075167	0,5	1,763450
10,083500	0,5	1,939850
10,091833	0,5	2,180700
10,100167	0,5	2,483900
10,108500	0,5	2,829050
10,116833	0,5	3,180300
10,125167	0,5	3,480750
10,133500	0,5	3,687800
10,141833	0,5	3,787400
10,150167	0,5	3,780100
10,158500	0,5	3,684550
10,166833	0,5	3,524800
10,175167	0,5	3,338200
10,183500	0,5	3,139950
10,191833	0,5	2,950700
10,200167	0,5	2,769050
10,208500	0,5	2,593350
10,216833	0,5	2,417300
10,225167	0,5	2,231250
10,233500	0,5	2,047950
10,241833	0,5	1,871050
10,250167	0,5	1,708750
10,258500	0,5	1,575150
10,266833	0,5	1,466250
10,275167	0,5	1,374750
10,283500	0,5	1,308750
10,291833	0,5	1,251450
10,300167	0,5	1,215900
10,308500	0,5	1,195350
10,316833	0,5	1,186950
10,325167	0,5	1,188750
10,333500	0,5	1,199650
10,341833	0,5	1,219600
10,350167	0,5	1,241550
10,358500	0,5	1,265100
10,366833	0,5	1,290300
10,375167	0,5	1,320800
10,383500	0,5	1,345600
10,391833	0,5	1,377950
10,400167	0,5	1,414100
10,408500	0,5	1,461150
10,416833	0,5	1,513150
10,425167	0,5	1,573300
10,433500	0,5	1,629650
10,441833	0,5	1,682100
10,450167	0,5	1,723400
10,458500	0,5	1,749000
10,466833	0,5	1,752450
10,475167	0,5	1,733300
10,483500	0,5	1,692550
10,491833	0,5	1,643050
10,500167	0,5	1,588350
10,508500	0,5	1,551200
10,516833	0,5	1,526300
10,525167	0,5	1,520200
10,533500	0,5	1,530600
10,541833	0,5	1,548150
10,550167	0,5	1,563100
10,558500	0,5	1,576150
10,566833	0,5	1,583650
10,575167	0,5	1,572700
10,583500	0,5	1,547800
10,591833	0,5	1,520100
10,600167	0,5	1,487050
10,608500	0,5	1,453200
10,616833	0,5	1,435750
10,625167	0,5	1,439500
10,633500	0,5	1,470400
10,641833	0,5	1,517800
10,650167	0,5	1,569300
10,658500	0,5	1,595400
10,666833	0,5	1,597000
10,675167	0,5	1,565550
10,683500	0,5	1,524400
10,691833	0,5	1,480300
10,700167	0,5	1,448300
10,708500	0,5	1,435600
10,716833	0,5	1,441100
10,725167	0,5	1,483900
10,733500	0,5	1,564300
10,741833	0,5	1,689200
10,750167	0,5	1,836650
10,758500	0,5	2,009000
10,766833	0,5	2,258600
10,775167	0,5	2,662050
10,783500	0,5	3,077250
10,791833	0,5	3,201200
10,800167	0,5	3,049050
10,808500	0,5	2,649450
10,816833	0,5	2,051000
10,825167	0,5	1,376900
10,833500	0,5	0,850700
10,841833	0,5	0,552650
10,850167	0,5	0,380450
10,858500	0,5	0,276300
10,866833	0,5	0,204550
10,875167	0,5	0,147300
10,883500	0,5	0,102850
10,891833	0,5	0,067000
10,900167	0,5	0,027900
10,908500	0,5	-0,004750
10,916833	0,5	-0,036350
10,925167	0,5	-0,061200
10,933500	0,5	-0,080100
10,941833	0,5	-0,094250
10,950167	0,5	-0,103700
10,958500	0,5	-0,116550
10,966833	0,5	-0,121350
10,975167	0,5	-0,127750
10,983500	0,5	-0,130400
10,991833	0,5	-0,134600
11,000167	0,5	-0,139900
11,008500	0,5	-0,142900
11,016833	0,5	-0,150200
11,025167	0,5	-0,162150
11,033500	0,5	-0,167050
11,041833	0,5	-0,182100
11,050167	0,5	-0,203400
11,058500	0,5	-0,223550
11,066833	0,5	-0,245950
11,075167	0,5	-0,263400
11,083500	0,5	-0,282950
11,091833	0,5	-0,298450
11,100167	0,5	-0,313000
11,108500	0,5	-0,328950
11,116833	0,5	-0,338500
11,125167	0,5	-0,349650
11,133500	0,5	-0,358800
11,141833	0,5	-0,367300
11,150167	0,5	-0,378950
11,158500	0,5	-0,383850
11,166833	0,5	-0,393150
11,175167	0,5	-0,406150
11,183500	0,5	-0,409900
11,191833	0,5	-0,413000
11,200167	0,5	-0,419150
11,208500	0,5	-0,421100
11,216833	0,5	-0,429550
11,225167	0,5	-0,429650
11,233500	0,5	-0,432450
11,241833	0,5	-0,433750
11,250167	0,5	-0,433950
11,258500	0,5	-0,436450
11,266833	0,5	-0,437350
11,275167	0,5	-0,436450
11,283500	0,5	-0,438450
11,291833	0,5	-0,435550
11,300167	0,5	-0,435300
11,308500	0,5	-0,433850
11,316833	0,5	-0,429150
11,325167	0,5	-0,433750
11,333500	0,5	-0,422650
11,341833	0,5	-0,417400
11,350167	0,5	-0,420000
11,358500	0,5	-0,419800
11,366833	0,5	-0,417750
11,375167	0,5	-0,414250
11,383500	0,5	-0,413750
11,391833	0,5	-0,418150
11,400167	0,5	-0,417000
11,408500	0,5	-0,421950
11,416833	0,5	-0,426600
11,425167	0,5	-0,433100
11,433500	0,5	-0,436600
11,441833	0,5	-0,445750
11,450167	0,5	-0,451500
11,458500	0,5	-0,457800
11,466833	0,5	-0,462300
11,475167	0,5	-0,467100
11,483500	0,5	-0,469650
11,491833	0,5	-0,474300
11,500167	0,5	-0,480500
11,508500	0,5	-0,478350
11,516833	0,5	-0,482300
11,525167	0,5	-0,477000
11,533500	0,5	-0,479100
11,541833	0,5	-0,476700
11,550167	0,5	-0,473100
11,558500	0,5	-0,468750
11,566833	0,5	-0,469500
11,575167	0,5	-0,466450
11,583500	0,5	-0,467150
11,591833	0,5	-0,462150
11,600167	0,5	-0,461400
11,608500	0,5	-0,455800
11,616833	0,5	-0,456350
11,625167	0,5	-0,453550
11,633500	0,5	-0,451750
11,641833	0,5	-0,450350
11,650167	0,5	-0,446750
11,658500	0,5	-0,451150
11,666833	0,5	-0,443100
11,675167	0,5	-0,442250
11,683500	0,5	-0,435500
11,691833	0,5	-0,436000
11,700167	0,5	-0,425300
11,708500	0,5	-0,420600
11,716833	0,5	-0,416650
11,725167	0,5	-0,411900
11,733500	0,5	-0,406750
11,741833	0,5	-0,397750
11,750167	0,5	-0,390450
11,758500	0,5	-0,385350
11,766833	0,5	-0,378400
11,775167	0,5	-0,369000
11,783500	0,5	-0,365900
11,791833	0,5	-0,361500
11,800167	0,5	-0,361400
11,808500	0,5	-0,357700
11,816833	0,5	-0,352250
11,825167	0,5	-0,348500
11,833500	0,5	-0,347350
11,841833	0,5	-0,343950
11,850167	0,5	-0,345900
11,858500	0,5	-0,342200
11,866833	0,5	-0,347350
11,875167	0,5	-0,348750
11,883500	0,5	-0,348800
11,891833	0,5	-0,351100
11,900167	0,5	-0,354300
11,908500	0,5	-0,358950
11,916833	0,5	-0,360200
11,925167	0,5	-0,355550
11,933500	0,5	-0,361350
11,941833	0,5	-0,366100
11,950167	0,5	-0,368650
11,958500	0,5	-0,369000
11,966833	0,5	-0,367100
11,975167	0,5	-0,364700
11,983500	0,5	-0,358700
11,991833	0,5	-0,356600
12,000167	0,5	-0,353600
12,008500	0,5	-0,344350
12,016833	0,5	-0,342550
12,025167	0,5	-0,335850
12,033500	0,5	-0,331350
12,041833	0,5	-0,316200
12,050167	0,5	-0,310850
12,058500	0,5	-0,305250
12,066833	0,5	-0,287350
12,075167	0,5	-0,272050
12,083500	0,5	-0,257350
12,091833	0,5	-0,243250
12,100167	0,5	-0,224200
12,108500	0,5	-0,201950
12,116833	0,5	-0,175500
12,125167	0,5	-0,149700
12,133500	0,5	-0,121750
12,141833	0,5	-0,091200
12,150167	0,5	-0,061350
12,158500	0,5	-0,029850
12,166833	0,5	0,003700
12,175167	0,5	0,038350
12,183500	0,5	0,068700
12,191833	0,5	0,101650
12,200167	0,5	0,131850
12,208500	0,5	0,157350
12,216833	0,5	0,188100
12,225167	0,5	0,212600
12,233500	0,5	0,231250
12,241833	0,5	0,254150
12,250167	0,5	0,266950
12,258500	0,5	0,290750
12,266833	0,5	0,309700
12,275167	0,5	0,331050
12,283500	0,5	0,347750
12,291833	0,5	0,370400
12,300167	0,5	0,392700
12,308500	0,5	0,417600
12,316833	0,5	0,439050
12,325167	0,5	0,461000
12,333500	0,5	0,488250
12,341833	0,5	0,511750
12,350167	0,5	0,534750
12,358500	0,5	0,553800
12,366833	0,5	0,574700
12,375167	0,5	0,587900
12,383500	0,5	0,595950
12,391833	0,5	0,597350
12,400167	0,5	0,596900
12,408500	0,5	0,604400
12,416833	0,5	0,605850
12,425167	0,5	0,606350
12,433500	0,5	0,609200
12,441833	0,5	0,608600
12,450167	0,5	0,605900
12,458500	0,5	0,615700
12,466833	0,5	0,616650
12,475167	0,5	0,621450
12,483500	0,5	0,623700
12,491833	0,5	0,629950
12,500167	0,5	0,634550
12,508500	0,5	0,644850
12,516833	0,5	0,653700
12,525167	0,5	0,660300
12,533500	0,5	0,663750
12,541833	0,5	0,666950
12,550167	0,5	0,676250
12,558500	0,5	0,691250
12,566833	0,5	0,697100
12,575167	0,5	0,711650
12,583500	0,5	0,721300
12,591833	0,5	0,730900
12,600167	0,5	0,735250
12,608500	0,5	0,746800
12,616833	0,5	0,750900
12,625167	0,5	0,757500
12,633500	0,5	0,767750
12,641833	0,5	0,774500
12,650167	0,5	0,780100
12,658500	0,5	0,792350
12,666833	0,5	0,797850
12,675167	0,5	0,804400
12,683500	0,5	0,807900
12,691833	0,5	0,802150
12,700167	0,5	0,808200
12,708500	0,5	0,806200
12,716833	0,5	0,811500
12,725167	0,5	0,810200
12,733500	0,5	0,814400
12,741833	0,5	0,813700
12,750167	0,5	0,819650
12,758500	0,5	0,819700
12,766833	0,5	0,822500
12,775167	0,5	0,830400
12,783500	0,5	0,838450
12,791833	0,5	0,841400
12,800167	0,5	0,846550
12,808500	0,5	0,854950
12,816833	0,5	0,858200
12,825167	0,5	0,861850
12,833500	0,5	0,862350
12,841833	0,5	0,871800
12,850167	0,5	0,876250
12,858500	0,5	0,884450
12,866833	0,5	0,893850
12,875167	0,5	0,904500
12,883500	0,5	0,912350
12,891833	0,5	0,926350
12,900167	0,5	0,931350
12,908500	0,5	0,937800
12,916833	0,5	0,941050
12,925167	0,5	0,946300
12,933500	0,5	0,950150
12,941833	0,5	0,953550
12,950167	0,5	0,954350
12,958500	0,5	0,955500
12,966833	0,5	0,955000
12,975167	0,5	0,951850
12,983500	0,5	0,947600
12,991833	0,5	0,950250
13,000167	0,5	0,954500
13,008500	0,5	0,957250
13,016833	0,5	0,957750
13,025167	0,5	0,958150
13,033500	0,5	0,962950
13,041833	0,5	0,958500
13,050167	0,5	0,962700
13,058500	0,5	0,956700
13,066833	0,5	0,961550
13,075167	0,5	0,960050
13,083500	0,5	0,962250
13,091833	0,5	0,954450
13,100167	0,5	0,959600
13,108500	0,5	0,960850
13,116833	0,5	0,959400
13,125167	0,5	0,953250
13,133500	0,5	0,952700
13,141833	0,5	0,955000
13,150167	0,5	0,955400
13,158500	0,5	0,955150
13,166833	0,5	0,959050
13,175167	0,5	0,962400
13,183500	0,5	0,967850
13,191833	0,5	0,971250
13,200167	0,5	0,970450
13,208500	0,5	0,970750
13,216833	0,5	0,966900
13,225167	0,5	0,971950
13,233500	0,5	0,968650
13,241833	0,5	0,961450
13,250167	0,5	0,963250
13,258500	0,5	0,962450
13,266833	0,5	0,957200
13,275167	0,5	0,952200
13,283500	0,5	0,944200
13,291833	0,5	0,947050
13,300167	0,5	0,939000
13,308500	0,5	0,943750
13,316833	0,5	0,941050
13,325167	0,5	0,943150
13,333500	0,5	0,940700
13,341833	0,5	0,941300
13,350167	0,5	0,940000
13,358500	0,5	0,942650
13,366833	0,5	0,948250
13,375167	0,5	0,951000
13,383500	0,5	0,951700
13,391833	0,5	0,959750
13,400167	0,5	0,966600
13,408500	0,5	0,965750
13,416833	0,5	0,959350
13,425167	0,5	0,944850
13,433500	0,5	0,937750
13,441833	0,5	0,932000
13,450167	0,5	0,930000
13,458500	0,5	0,920600
13,466833	0,5	0,923100
13,475167	0,5	0,924400
13,483500	0,5	0,933900
13,491833	0,5	0,945100
13,500167	0,5	0,957200
13,508500	0,5	0,968950
13,516833	0,5	0,981000
13,525167	0,5	0,989950
13,533500	0,5	0,985900
13,541833	0,5	0,984900
13,550167	0,5	0,976050
13,558500	0,5	0,968800
13,566833	0,5	0,950200
13,575167	0,5	0,937500
13,583500	0,5	0,924850
13,591833	0,5	0,926800
13,600167	0,5	0,918000
13,608500	0,5	0,918000
13,616833	0,5	0,910850
13,625167	0,5	0,906350
13,633500	0,5	0,904700
13,641833	0,5	0,903850
13,650167	0,5	0,905850
13,658500	0,5	0,916200
13,666833	0,5	0,944100
13,675167	0,5	0,963250
13,683500	0,5	0,973200
13,691833	0,5	0,987700
13,700167	0,5	0,980600
13,708500	0,5	0,970750
13,716833	0,5	0,948650
13,725167	0,5	0,929150
13,733500	0,5	0,923150
13,741833	0,5	0,915700
13,750167	0,5	0,911100
13,758500	0,5	0,913250
13,766833	0,5	0,918650
13,775167	0,5	0,917850
13,783500	0,5	0,922950
13,791833	0,5	0,932050
13,800167	0,5	0,944050
13,808500	0,5	0,967550
13,816833	0,5	1,003250
13,825167	0,5	1,030150
13,833500	0,5	1,061500
13,841833	0,5	1,074250
13,850167	0,5	1,057600
13,858500	0,5	1,030850
13,866833	0,5	0,985550
13,875167	0,5	0,944950
13,883500	0,5	0,918300
13,891833	0,5	0,900600
13,900167	0,5	0,891650
13,908500	0,5	0,893900
13,916833	0,5	0,901150
13,925167	0,5	0,913300
13,933500	0,5	0,930900
13,941833	0,5	0,960650
13,950167	0,5	0,987300
13,958500	0,5	1,021700
13,966833	0,5	1,036400
13,975167	0,5	1,035850
13,983500	0,5	1,023900
13,991833	0,5	0,997400
14,000167	0,5	0,950200
14,008500	0,5	0,905450
14,016833	0,5	0,867100
14,025167	0,5	0,847400
14,033500	0,5	0,847450
14,041833	0,5	0,858300
14,050167	0,5	0,881800
14,058500	0,5	0,913950
14,066833	0,5	0,944400
14,075167	0,5	0,964150
14,083500	0,5	0,978450
14,091833	0,5	0,968600
14,100167	0,5	0,952100
14,108500	0,5	0,922500
14,116833	0,5	0,890150
14,125167	0,5	0,845650
14,133500	0,5	0,823650
14,141833	0,5	0,799050
14,150167	0,5	0,787100
14,158500	0,5	0,785950
14,166833	0,5	0,793600
14,175167	0,5	0,813600
14,183500	0,5	0,827900
14,191833	0,5	0,832000
14,200167	0,5	0,829850
14,208500	0,5	0,813350
14,216833	0,5	0,792700
14,225167	0,5	0,767550
14,233500	0,5	0,736550
14,241833	0,5	0,713650
14,250167	0,5	0,702150
14,258500	0,5	0,708000
14,266833	0,5	0,711550
14,275167	0,5	0,733450
14,283500	0,5	0,754750
14,291833	0,5	0,767100
14,300167	0,5	0,775450
14,308500	0,5	0,770500
14,316833	0,5	0,756850
14,325167	0,5	0,747200
14,333500	0,5	0,718450
14,341833	0,5	0,693450
14,350167	0,5	0,673650
14,358500	0,5	0,663750
14,366833	0,5	0,656050
14,375167	0,5	0,651950
14,383500	0,5	0,644900
14,391833	0,5	0,640200
14,400167	0,5	0,640000
14,408500	0,5	0,631250
14,416833	0,5	0,614950
14,425167	0,5	0,608900
14,433500	0,5	0,599250
14,441833	0,5	0,589000
14,450167	0,5	0,581250
14,458500	0,5	0,564200
14,466833	0,5	0,567050
14,475167	0,5	0,561700
14,483500	0,5	0,559750
14,491833	0,5	0,548600
14,500167	0,5	0,546900
14,508500	0,5	0,536000
14,516833	0,5	0,536050
14,525167	0,5	0,529400
14,533500	0,5	0,525800
14,541833	0,5	0,524100
14,550167	0,5	0,524650
14,558500	0,5	0,524050
14,566833	0,5	0,512050
14,575167	0,5	0,508850
14,583500	0,5	0,499850
14,591833	0,5	0,491200
14,600167	0,5	0,476200
14,608500	0,5	0,468100
14,616833	0,5	0,464300
14,625167	0,5	0,467050
14,633500	0,5	0,461650
14,641833	0,5	0,468200
14,650167	0,5	0,466750
14,658500	0,5	0,470500
14,666833	0,5	0,462650
14,675167	0,5	0,459100
14,683500	0,5	0,449550
14,691833	0,5	0,443050
14,700167	0,5	0,441450
14,708500	0,5	0,428100
14,716833	0,5	0,423750
14,725167	0,5	0,427250
14,733500	0,5	0,421350
14,741833	0,5	0,424650
14,750167	0,5	0,414950
14,758500	0,5	0,410500
14,766833	0,5	0,408350
14,775167	0,5	0,403600
14,783500	0,5	0,400550
14,791833	0,5	0,387950
14,800167	0,5	0,390050
14,808500	0,5	0,386250
14,816833	0,5	0,385000
14,825167	0,5	0,384150
14,833500	0,5	0,378400
14,841833	0,5	0,381800
14,850167	0,5	0,383150
14,858500	0,5	0,366700
14,866833	0,5	0,372150
14,875167	0,5	0,369050
14,883500	0,5	0,364150
14,891833	0,5	0,359400
14,900167	0,5	0,353050
14,908500	0,5	0,356300
14,916833	0,5	0,358150
14,925167	0,5	0,356850
14,933500	0,5	0,349150
14,941833	0,5	0,356850
14,950167	0,5	0,351050
14,958500	0,5	0,348950
14,966833	0,5	0,348750
14,975167	0,5	0,347400
14,983500	0,5	0,340350
14,991833	0,5	0,337850
15,000167	0,5	0,325100
15,008500	0,5	0,314100
15,016833	0,5	0,318600
15,025167	0,5	0,315500
15,033500	0,5	0,302950
15,041833	0,5	0,297300
15,050167	0,5	0,292550
15,058500	0,5	0,296500
15,066833	0,5	0,297450
15,075167	0,5	0,296500
15,083500	0,5	0,295950
15,091833	0,5	0,300000
15,100167	0,5	0,299900
15,108500	0,5	0,295550
15,116833	0,5	0,296250
15,125167	0,5	0,286950
15,133500	0,5	0,288550
15,141833	0,5	0,287900
15,150167	0,5	0,277900
15,158500	0,5	0,276900
15,166833	0,5	0,279500
15,175167	0,5	0,275400
15,183500	0,5	0,272250
15,191833	0,5	0,262600
15,200167	0,5	0,266550
15,208500	0,5	0,269200
15,216833	0,5	0,269550
15,225167	0,5	0,265150
15,233500	0,5	0,264500
15,241833	0,5	0,263250
15,250167	0,5	0,260150
15,258500	0,5	0,262900
15,266833	0,5	0,257400
15,275167	0,5	0,259000
15,283500	0,5	0,262750
15,291833	0,5	0,269900
15,300167	0,5	0,260800
15,308500	0,5	0,271050
15,316833	0,5	0,269650
15,325167	0,5	0,272650
15,333500	0,5	0,266300
15,341833	0,5	0,264350
15,350167	0,5	0,266000
15,358500	0,5	0,273450
15,366833	0,5	0,273950
15,375167	0,5	0,278400
15,383500	0,5	0,282500
15,391833	0,5	0,288350
15,400167	0,5	0,288800
15,408500	0,5	0,290500
15,416833	0,5	0,292400
15,425167	0,5	0,286850
15,433500	0,5	0,290050
15,441833	0,5	0,289150
15,450167	0,5	0,279000
15,458500	0,5	0,288400
15,466833	0,5	0,292200
15,475167	0,5	0,291750
15,483500	0,5	0,295350
15,491833	0,5	0,284250
15,500167	0,5	0,291550
15,508500	0,5	0,293800
15,516833	0,5	0,296650
15,525167	0,5	0,283450
15,533500	0,5	0,293850
15,541833	0,5	0,297550
15,550167	0,5	0,306100
15,558500	0,5	0,310850
15,566833	0,5	0,313650
15,575167	0,5	0,310950
15,583500	0,5	0,308800
15,591833	0,5	0,291200
15,600167	0,5	0,277150
15,608500	0,5	0,268400
15,616833	0,5	0,250550
15,625167	0,5	0,236050
15,633500	0,5	0,224300
15,641833	0,5	0,215950
15,650167	0,5	0,217150
15,658500	0,5	0,216150
15,666833	0,5	0,214350
15,675167	0,5	0,209950
15,683500	0,5	0,203400
15,691833	0,5	0,199900
15,700167	0,5	0,195850
15,708500	0,5	0,192850
15,716833	0,5	0,186900
15,725167	0,5	0,185050
15,733500	0,5	0,184850
15,741833	0,5	0,179100
15,750167	0,5	0,177450
15,758500	0,5	0,182300
15,766833	0,5	0,175200
15,775167	0,5	0,167200
15,783500	0,5	0,158500
15,791833	0,5	0,152200
15,800167	0,5	0,153600
15,808500	0,5	0,152850
15,816833	0,5	0,150250
15,825167	0,5	0,148600
15,833500	0,5	0,152400
15,841833	0,5	0,148350
15,850167	0,5	0,149150
15,858500	0,5	0,144650
15,866833	0,5	0,142500
15,875167	0,5	0,141750
15,883500	0,5	0,136300
15,891833	0,5	0,126950
15,900167	0,5	0,137050
15,908500	0,5	0,135150
15,916833	0,5	0,126350
15,925167	0,5	0,113450
15,933500	0,5	0,104500
15,941833	0,5	0,100550
15,950167	0,5	0,096150
15,958500	0,5	0,092800
15,966833	0,5	0,087650
15,975167	0,5	0,081800
15,983500	0,5	0,078100
15,991833	0,5	0,079750
16,000167	0,5	0,077050
16,008500	0,5	0,074850
16,016833	0,5	0,070450
16,025167	0,5	0,080100
16,033500	0,5	0,067300
16,041833	0,5	0,069550
16,050167	0,5	0,079350
16,058500	0,5	0,090300
16,066833	0,5	0,084850
16,075167	0,5	0,078600
16,083500	0,5	0,078900
16,091833	0,5	0,085950
16,100167	0,5	0,090250
16,108500	0,5	0,091000
16,116833	0,5	0,086900
16,125167	0,5	0,088700
16,133500	0,5	0,094700
16,141833	0,5	0,098050
16,150167	0,5	0,097200
16,158500	0,5	0,091150
16,166833	0,5	0,091000
16,175167	0,5	0,085300
16,183500	0,5	0,075800
16,191833	0,5	0,082700
16,200167	0,5	0,093050
16,208500	0,5	0,090400
16,216833	0,5	0,090100
16,225167	0,5	0,086100
16,233500	0,5	0,095900
16,241833	0,5	0,097500
16,250167	0,5	0,099900
16,258500	0,5	0,093550
16,266833	0,5	0,094550
16,275167	0,5	0,089700
16,283500	0,5	0,088850
16,291833	0,5	0,090350
16,300167	0,5	0,088950
16,308500	0,5	0,093950
16,316833	0,5	0,092850
16,325167	0,5	0,107750
16,333500	0,5	0,102650
16,341833	0,5	0,122850
16,350167	0,5	0,126450
16,358500	0,5	0,135500
16,366833	0,5	0,136100
16,375167	0,5	0,136000
16,383500	0,5	0,147550
16,391833	0,5	0,162000
16,400167	0,5	0,165250
16,408500	0,5	0,176650
16,416833	0,5	0,187900
16,425167	0,5	0,201250
16,433500	0,5	0,214050
16,441833	0,5	0,223450
16,450167	0,5	0,229700
16,458500	0,5	0,225250
16,466833	0,5	0,230300
16,475167	0,5	0,219300
16,483500	0,5	0,213150
16,491833	0,5	0,212300
16,500167	0,5	0,208800
16,508500	0,5	0,193300
16,516833	0,5	0,182450
16,525167	0,5	0,171350
16,533500	0,5	0,175100
16,541833	0,5	0,174850
16,550167	0,5	0,176850
16,558500	0,5	0,170550
16,566833	0,5	0,176450
16,575167	0,5	0,174800
16,583500	0,5	0,179000
16,591833	0,5	0,183100
16,600167	0,5	0,183800
16,608500	0,5	0,192850
16,616833	0,5	0,195250
16,625167	0,5	0,194350
16,633500	0,5	0,200250
16,641833	0,5	0,202050
16,650167	0,5	0,195550
16,658500	0,5	0,190400
16,666833	0,5	0,175050
16,675167	0,5	0,176150
16,683500	0,5	0,173450
16,691833	0,5	0,185850
16,700167	0,5	0,182000
16,708500	0,5	0,182700
16,716833	0,5	0,190500
16,725167	0,5	0,196100
16,733500	0,5	0,197800
16,741833	0,5	0,197900
16,750167	0,5	0,195800
16,758500	0,5	0,195500
16,766833	0,5	0,186750
16,775167	0,5	0,177200
16,783500	0,5	0,181700
16,791833	0,5	0,180050
16,800167	0,5	0,174200
16,808500	0,5	0,157700
16,816833	0,5	0,155500
16,825167	0,5	0,151600
16,833500	0,5	0,158900
16,841833	0,5	0,158200
16,850167	0,5	0,162200
16,858500	0,5	0,161350
16,866833	0,5	0,165300
16,875167	0,5	0,166700
16,883500	0,5	0,168300
16,891833	0,5	0,161450
16,900167	0,5	0,162000
16,908500	0,5	0,161400
16,916833	0,5	0,150750
16,925167	0,5	0,150050
16,933500	0,5	0,157800
16,941833	0,5	0,153400
16,950167	0,5	0,145900
16,958500	0,5	0,126700
16,966833	0,5	0,120550
16,975167	0,5	0,123400
16,983500	0,5	0,116350
16,991833	0,5	0,117650
17,000167	0,5	0,116300
17,008500	0,5	0,118650
17,016833	0,5	0,122350
17,025167	0,5	0,131550
17,033500	0,5	0,131300
17,041833	0,5	0,133250
17,050167	0,5	0,128350
17,058500	0,5	0,127400
17,066833	0,5	0,098150
17,075167	0,5	0,096350
17,083500	0,5	0,084600
17,091833	0,5	0,069350
17,100167	0,5	0,049150
17,108500	0,5	0,023850
17,116833	0,5	0,027050
17,125167	0,5	0,018700
17,133500	0,5	0,015600
17,141833	0,5	0,007000
17,150167	0,5	0,005300
17,158500	0,5	-0,001200
17,166833	0,5	-0,002900
17,175167	0,5	-0,006700
17,183500	0,5	-0,008450
17,191833	0,5	-0,015750
17,200167	0,5	-0,017500
17,208500	0,5	-0,025400
17,216833	0,5	-0,030550
17,225167	0,5	-0,026250
17,233500	0,5	-0,027700
17,241833	0,5	-0,034300
17,250167	0,5	-0,043400
17,258500	0,5	-0,059450
17,266833	0,5	-0,051400
17,275167	0,5	-0,055000
17,283500	0,5	-0,057500
17,291833	0,5	-0,064600
17,300167	0,5	-0,072100
17,308500	0,5	-0,074200
17,316833	0,5	-0,073150
17,325167	0,5	-0,076550
17,333500	0,5	-0,081200
17,341833	0,5	-0,084650
17,350167	0,5	-0,084350
17,358500	0,5	-0,092600
17,366833	0,5	-0,094950
17,375167	0,5	-0,087750
17,383500	0,5	-0,091700
17,391833	0,5	-0,098600
17,400167	0,5	-0,117300
17,408500	0,5	-0,123750
17,416833	0,5	-0,119100
17,425167	0,5	-0,117900
17,433500	0,5	-0,124350
17,441833	0,5	-0,125700
17,450167	0,5	-0,125450
17,458500	0,5	-0,130350
17,466833	0,5	-0,127700
17,475167	0,5	-0,130900
17,483500	0,5	-0,133400
17,491833	0,5	-0,140350
17,500167	0,5	-0,139400
17,508500	0,5	-0,159150
17,516833	0,5	-0,148100
17,525167	0,5	-0,154900
17,533500	0,5	-0,155450
17,541833	0,5	-0,168700
17,550167	0,5	-0,180000
17,558500	0,5	-0,185450
17,566833	0,5	-0,185850
17,575167	0,5	-0,189850
17,583500	0,5	-0,192500
17,591833	0,5	-0,199850
17,600167	0,5	-0,199250
17,608500	0,5	-0,206350
17,616833	0,5	-0,207800
17,625167	0,5	-0,212350
17,633500	0,5	-0,216300
17,641833	0,5	-0,210200
17,650167	0,5	-0,217450
17,658500	0,5	-0,226700
17,666833	0,5	-0,222150
17,675167	0,5	-0,224950
17,683500	0,5	-0,230800
17,691833	0,5	-0,249550
17,700167	0,5	-0,261900
17,708500	0,5	-0,254900
17,716833	0,5	-0,257350
17,725167	0,5	-0,256700
17,733500	0,5	-0,261300
17,741833	0,5	-0,259050
17,750167	0,5	-0,259350
17,758500	0,5	-0,257800
17,766833	0,5	-0,262950
17,775167	0,5	-0,264600
17,783500	0,5	-0,260600
17,791833	0,5	-0,263950
17,800167	0,5	-0,277650
17,808500	0,5	-0,274700
17,816833	0,5	-0,267450
17,825167	0,5	-0,272350
17,833500	0,5	-0,272250
17,841833	0,5	-0,284200
17,850167	0,5	-0,282300
17,858500	0,5	-0,286450
17,866833	0,5	-0,278300
17,875167	0,5	-0,275100
17,883500	0,5	-0,270500
17,891833	0,5	-0,272950
17,900167	0,5	-0,258400
17,908500	0,5	-0,256500
17,916833	0,5	-0,247550
17,925167	0,5	-0,241150
17,933500	0,5	-0,228400
17,941833	0,5	-0,218450
17,950167	0,5	-0,223350
17,958500	0,5	-0,202800
17,966833	0,5	-0,191200
17,975167	0,5	-0,187650
17,983500	0,5	-0,183800
17,991833	0,5	-0,191450
18,000167	0,5	-0,184550
18,008500	0,5	-0,172450
18,016833	0,5	-0,174350
18,025167	0,5	-0,162650
18,033500	0,5	-0,161850
18,041833	0,5	-0,156550
18,050167	0,5	-0,155000
18,058500	0,5	-0,155050
18,066833	0,5	-0,155350
18,075167	0,5	-0,153700
18,083500	0,5	-0,149850
18,091833	0,5	-0,160250
18,100167	0,5	-0,172650
18,108500	0,5	-0,163450
18,116833	0,5	-0,164300
18,125167	0,5	-0,175450
18,133500	0,5	-0,180750
18,141833	0,5	-0,187750
18,150167	0,5	-0,178900
18,158500	0,5	-0,177150
18,166833	0,5	-0,172350
18,175167	0,5	-0,168250
18,183500	0,5	-0,165150
18,191833	0,5	-0,167200
18,200167	0,5	-0,161300
18,208500	0,5	-0,166800
18,216833	0,5	-0,172150
18,225167	0,5	-0,179700
18,233500	0,5	-0,181900
18,241833	0,5	-0,208100
18,250167	0,5	-0,214800
18,258500	0,5	-0,229550
18,266833	0,5	-0,244200
18,275167	0,5	-0,262700
18,283500	0,5	-0,291750
18,291833	0,5	-0,299500
18,300167	0,5	-0,303700
18,308500	0,5	-0,310500
18,316833	0,5	-0,321600
18,325167	0,5	-0,326050
18,333500	0,5	-0,334750
18,341833	0,5	-0,335300
18,350167	0,5	-0,342850
18,358500	0,5	-0,342600
18,366833	0,5	-0,351650
18,375167	0,5	-0,347350
18,383500	0,5	-0,351400
18,391833	0,5	-0,364850
18,400167	0,5	-0,358350
18,408500	0,5	-0,357850
18,416833	0,5	-0,367750
18,425167	0,5	-0,375350
18,433500	0,5	-0,395000
18,441833	0,5	-0,388950
18,450167	0,5	-0,384300
18,458500	0,5	-0,386250
18,466833	0,5	-0,386300
18,475167	0,5	-0,385250
18,483500	0,5	-0,390050
18,491833	0,5	-0,388000
18,500167	0,5	-0,386000
18,508500	0,5	-0,386850
18,516833	0,5	-0,380800
18,525167	0,5	-0,377900
18,533500	0,5	-0,379500
18,541833	0,5	-0,389850
18,550167	0,5	-0,382300
18,558500	0,5	-0,386050
18,566833	0,5	-0,383000
18,575167	0,5	-0,399700
18,583500	0,5	-0,415400
18,591833	0,5	-0,411050
18,600167	0,5	-0,402550
18,608500	0,5	-0,405250
18,616833	0,5	-0,402150
18,625167	0,5	-0,406600
18,633500	0,5	-0,402950
18,641833	0,5	-0,402650
18,650167	0,5	-0,407000
18,658500	0,5	-0,407500
18,666833	0,5	-0,401300
18,675167	0,5	-0,397750
18,683500	0,5	-0,416300
18,691833	0,5	-0,410750
18,700167	0,5	-0,412950
18,708500	0,5	-0,416650
18,716833	0,5	-0,428450
18,725167	0,5	-0,436850
18,733500	0,5	-0,447250
18,741833	0,5	-0,449150
18,750167	0,5	-0,447150
18,758500	0,5	-0,447400
18,766833	0,5	-0,451500
18,775167	0,5	-0,456000
18,783500	0,5	-0,459850
18,791833	0,5	-0,461650
18,800167	0,5	-0,459250
18,808500	0,5	-0,463600
18,816833	0,5	-0,456300
18,825167	0,5	-0,460850
18,833500	0,5	-0,470050
18,841833	0,5	-0,469800
18,850167	0,5	-0,468400
18,858500	0,5	-0,473950
18,866833	0,5	-0,485400
18,875167	0,5	-0,500550
18,883500	0,5	-0,501100
18,891833	0,5	-0,500700
18,900167	0,5	-0,500100
18,908500	0,5	-0,504000
18,916833	0,5	-0,504350
18,925167	0,5	-0,503300
18,933500	0,5	-0,503200
18,941833	0,5	-0,502250
18,950167	0,5	-0,506350
18,958500	0,5	-0,501150
18,966833	0,5	-0,496700
18,975167	0,5	-0,503900
18,983500	0,5	-0,506900
18,991833	0,5	-0,497400
19,000167	0,5	-0,496800
19,008500	0,5	-0,500600
19,016833	0,5	-0,520200
19,025167	0,5	-0,522950
19,033500	0,5	-0,527050
19,041833	0,5	-0,524650
19,050167	0,5	-0,533150
19,058500	0,5	-0,533450
19,066833	0,5	-0,534550
19,075167	0,5	-0,541800
19,083500	0,5	-0,541050
19,091833	0,5	-0,540050
19,100167	0,5	-0,542000
19,108500	0,5	-0,541000
19,116833	0,5	-0,534400
19,125167	0,5	-0,552750
19,133500	0,5	-0,545200
19,141833	0,5	-0,544550
19,150167	0,5	-0,542800
19,158500	0,5	-0,552650
19,166833	0,5	-0,566550
19,175167	0,5	-0,570300
19,183500	0,5	-0,562800
19,191833	0,5	-0,567050
19,200167	0,5	-0,562900
19,208500	0,5	-0,565800
19,216833	0,5	-0,563350
19,225167	0,5	-0,567750
19,233500	0,5	-0,565900
19,241833	0,5	-0,561600
19,250167	0,5	-0,567950
19,258500	0,5	-0,559000
19,266833	0,5	-0,560050
19,275167	0,5	-0,579450
19,283500	0,5	-0,563950
19,291833	0,5	-0,564100
19,300167	0,5	-0,571050
19,308500	0,5	-0,578250
19,316833	0,5	-0,593800
19,325167	0,5	-0,582250
19,333500	0,5	-0,585250
19,341833	0,5	-0,584900
19,350167	0,5	-0,586100
19,358500	0,5	-0,580500
19,366833	0,5	-0,586950
19,375167	0,5	-0,585900
19,383500	0,5	-0,584200
19,391833	0,5	-0,586250
19,400167	0,5	-0,582800
19,408500	0,5	-0,575700
19,416833	0,5	-0,583600
19,425167	0,5	-0,582800
19,433500	0,5	-0,576700
19,441833	0,5	-0,576800
19,450167	0,5	-0,579700
19,458500	0,5	-0,595150
19,466833	0,5	-0,602600
19,475167	0,5	-0,603700
19,483500	0,5	-0,595750
19,491833	0,5	-0,594400
19,500167	0,5	-0,590000
19,508500	0,5	-0,596350
19,516833	0,5	-0,590950
19,525167	0,5	-0,592950
19,533500	0,5	-0,591300
19,541833	0,5	-0,594650
19,550167	0,5	-0,589700
19,558500	0,5	-0,591800
19,566833	0,5	-0,604250
19,575167	0,5	-0,604650
19,583500	0,5	-0,600300
19,591833	0,5	-0,600500
19,600167	0,5	-0,605050
19,608500	0,5	-0,616100
19,616833	0,5	-0,629350
19,625167	0,5	-0,615750
19,633500	0,5	-0,619100
19,641833	0,5	-0,613000
19,650167	0,5	-0,616050
19,658500	0,5	-0,611650
19,666833	0,5	-0,619250
19,675167	0,5	-0,612300
19,683500	0,5	-0,616300
19,691833	0,5	-0,613750
19,700167	0,5	-0,611200
19,708500	0,5	-0,613500
19,716833	0,5	-0,615800
19,725167	0,5	-0,606300
19,733500	0,5	-0,610100
19,741833	0,5	-0,615200
19,750167	0,5	-0,626700
19,758500	0,5	-0,634100
19,766833	0,5	-0,637150
19,775167	0,5	-0,634150
19,783500	0,5	-0,628500
19,791833	0,5	-0,631400
19,800167	0,5	-0,624100
19,808500	0,5	-0,628000
19,816833	0,5	-0,622550
19,825167	0,5	-0,625700
19,833500	0,5	-0,621300
19,841833	0,5	-0,612250
19,850167	0,5	-0,605750
19,858500	0,5	-0,618550
19,866833	0,5	-0,614200
19,875167	0,5	-0,613350
19,883500	0,5	-0,614000
19,891833	0,5	-0,619050
19,900167	0,5	-0,633250
19,908500	0,5	-0,629500
19,916833	0,5	-0,626800
19,925167	0,5	-0,624800
19,933500	0,5	-0,627500
19,941833	0,5	-0,620850
19,950167	0,5	-0,622000
19,958500	0,5	-0,615300
19,966833	0,5	-0,617700
19,975167	0,5	-0,611850
19,983500	0,5	-0,615200
19,991833	0,5	-0,598550
20,000167	0,5	-0,598300
20,008500	0,5	-0,604550
20,016833	0,5	-0,600200
20,025167	0,5	-0,590450
20,033500	0,5	-0,595450
20,041833	0,5	-0,598400
20,050167	0,5	-0,607950
20,058500	0,5	-0,606350
20,066833	0,5	-0,603300
20,075167	0,5	-0,600050
20,083500	0,5	-0,591700
20,091833	0,5	-0,589750
20,100167	0,5	-0,588150
20,108500	0,5	-0,588050
20,116833	0,5	-0,583400
20,125167	0,5	-0,584100
20,133500	0,5	-0,576400
20,141833	0,5	-0,567900
20,150167	0,5	-0,574400
20,158500	0,5	-0,584700
20,166833	0,5	-0,578150
20,175167	0,5	-0,584000
20,183500	0,5	-0,589550
20,191833	0,5	-0,602250
20,200167	0,5	-0,607800
20,208500	0,5	-0,596400
20,216833	0,5	-0,593700
20,225167	0,5	-0,598550
20,233500	0,5	-0,596600
20,241833	0,5	-0,596650
20,250167	0,5	-0,590850
20,258500	0,5	-0,591450
20,266833	0,5	-0,594000
20,275167	0,5	-0,591150
20,283500	0,5	-0,582500
20,291833	0,5	-0,574450
20,300167	0,5	-0,589400
20,308500	0,5	-0,585100
20,316833	0,5	-0,592300
20,325167	0,5	-0,586250
20,333500	0,5	-0,601100
20,341833	0,5	-0,619850
20,350167	0,5	-0,615700
20,358500	0,5	-0,620950
20,366833	0,5	-0,620250
20,375167	0,5	-0,615950
20,383500	0,5	-0,617900
20,391833	0,5	-0,616800
20,400167	0,5	-0,613700
20,408500	0,5	-0,615200
20,416833	0,5	-0,613050
20,425167	0,5	-0,614400
20,433500	0,5	-0,598550
20,441833	0,5	-0,593900
20,450167	0,5	-0,603550
20,458500	0,5	-0,604250
20,466833	0,5	-0,607550
20,475167	0,5	-0,610250
20,483500	0,5	-0,622700
20,491833	0,5	-0,631350
20,500167	0,5	-0,622800
20,508500	0,5	-0,624300
20,516833	0,5	-0,618100
20,525167	0,5	-0,614550
20,533500	0,5	-0,613450
20,541833	0,5	-0,611500
20,550167	0,5	-0,613550
20,558500	0,5	-0,610450
20,566833	0,5	-0,605500
20,575167	0,5	-0,590350
20,583500	0,5	-0,580800
20,591833	0,5	-0,581550
20,600167	0,5	-0,584100
20,608500	0,5	-0,575250
20,616833	0,5	-0,580500
20,625167	0,5	-0,586600
20,633500	0,5	-0,595300
20,641833	0,5	-0,602300
20,650167	0,5	-0,602250
20,658500	0,5	-0,597750
20,666833	0,5	-0,597600
20,675167	0,5	-0,587850
20,683500	0,5	-0,586250
20,691833	0,5	-0,580250
20,700167	0,5	-0,575400
20,708500	0,5	-0,575050
20,716833	0,5	-0,573200
20,725167	0,5	-0,552450
20,733500	0,5	-0,541500
20,741833	0,5	-0,552000
20,750167	0,5	-0,547700
20,758500	0,5	-0,551100
20,766833	0,5	-0,551300
20,775167	0,5	-0,564500
20,783500	0,5	-0,566700
20,791833	0,5	-0,563850
20,800167	0,5	-0,559650
20,808500	0,5	-0,553000
20,816833	0,5	-0,543850
20,825167	0,5	-0,545800
20,833500	0,5	-0,537400
20,841833	0,5	-0,533200
20,850167	0,5	-0,529050
20,858500	0,5	-0,524300
20,866833	0,5	-0,508500
20,875167	0,5	-0,491150
20,883500	0,5	-0,479100
20,891833	0,5	-0,481350
20,900167	0,5	-0,479450
20,908500	0,5	-0,476950
20,916833	0,5	-0,481250
20,925167	0,5	-0,488750
20,933500	0,5	-0,483500
20,941833	0,5	-0,473900
20,950167	0,5	-0,482500
20,958500	0,5	-0,470750
20,966833	0,5	-0,465950
20,975167	0,5	-0,457150
20,983500	0,5	-0,452500
20,991833	0,5	-0,446900
21,000167	0,5	-0,442300
21,008500	0,5	-0,437250
21,016833	0,5	-0,413650
21,025167	0,5	-0,394200
21,033500	0,5	-0,396950
21,041833	0,5	-0,394950
21,050167	0,5	-0,395900
21,058500	0,5	-0,398500
21,066833	0,5	-0,393200
21,075167	0,5	-0,401650
21,083500	0,5	-0,386150
21,091833	0,5	-0,384400
21,100167	0,5	-0,372350
21,108500	0,5	-0,374050
21,116833	0,5	-0,362900
21,125167	0,5	-0,356300
21,133500	0,5	-0,350000
21,141833	0,5	-0,346450
21,150167	0,5	-0,346050
21,158500	0,5	-0,327650
21,166833	0,5	-0,304050
21,175167	0,5	-0,289500
21,183500	0,5	-0,293550
21,191833	0,5	-0,291950
21,200167	0,5	-0,292100
21,208500	0,5	-0,297550
21,216833	0,5	-0,308200
21,225167	0,5	-0,301550
21,233500	0,5	-0,291200
21,241833	0,5	-0,280400
21,250167	0,5	-0,285650
21,258500	0,5	-0,271500
21,266833	0,5	-0,263500
21,275167	0,5	-0,247750
21,283500	0,5	-0,235700
21,291833	0,5	-0,225950
21,300167	0,5	-0,208650
21,308500	0,5	-0,176300
21,316833	0,5	-0,153500
21,325167	0,5	-0,132450
21,333500	0,5	-0,116850
21,341833	0,5	-0,098400
21,350167	0,5	-0,074750
21,358500	0,5	-0,066250
21,366833	0,5	-0,058750
21,375167	0,5	-0,053000
21,383500	0,5	-0,043050
21,391833	0,5	-0,054150
21,400167	0,5	-0,050000
21,408500	0,5	-0,051000
21,416833	0,5	-0,040500
21,425167	0,5	-0,032150
21,433500	0,5	-0,019250
21,441833	0,5	-0,011250
21,450167	0,5	-0,006550
21,458500	0,5	0,024200
21,466833	0,5	0,041550
21,475167	0,5	0,032000
21,483500	0,5	0,033500
21,491833	0,5	0,026250
21,500167	0,5	0,021500
21,508500	0,5	0,018250
21,516833	0,5	0,013350
21,525167	0,5	0,030450
21,533500	0,5	0,038100
21,541833	0,5	0,052450
21,550167	0,5	0,062500
21,558500	0,5	0,087100
21,566833	0,5	0,101300
21,575167	0,5	0,123650
21,583500	0,5	0,135100
21,591833	0,5	0,144400
21,600167	0,5	0,170500
21,608500	0,5	0,193450
21,616833	0,5	0,203950
21,625167	0,5	0,207750
21,633500	0,5	0,221450
21,641833	0,5	0,220350
21,650167	0,5	0,231600
21,658500	0,5	0,234000
21,666833	0,5	0,250850
21,675167	0,5	0,264500
21,683500	0,5	0,289100
21,691833	0,5	0,299700
21,700167	0,5	0,317900
21,708500	0,5	0,334150
21,716833	0,5	0,354900
21,725167	0,5	0,374850
21,733500	0,5	0,388400
21,741833	0,5	0,404050
21,750167	0,5	0,440850
21,758500	0,5	0,459250
21,766833	0,5	0,478200
21,775167	0,5	0,490300
21,783500	0,5	0,503450
21,791833	0,5	0,515350
21,800167	0,5	0,514750
21,808500	0,5	0,533700
21,816833	0,5	0,552200
21,825167	0,5	0,578350
21,833500	0,5	0,603000
21,841833	0,5	0,627250
21,850167	0,5	0,652500
21,858500	0,5	0,678750
21,866833	0,5	0,710350
21,875167	0,5	0,736200
21,883500	0,5	0,770100
21,891833	0,5	0,802200
21,900167	0,5	0,846400
21,908500	0,5	0,865400
21,916833	0,5	0,892350
21,925167	0,5	0,912150
21,933500	0,5	0,925750
21,941833	0,5	0,934900
21,950167	0,5	0,942600
21,958500	0,5	0,965550
21,966833	0,5	0,986900
21,975167	0,5	0,994900
21,983500	0,5	1,013400
21,991833	0,5	1,031100
22,000167	0,5	1,055400
22,008500	0,5	1,071600
22,016833	0,5	1,101250
22,025167	0,5	1,123450
22,033500	0,5	1,145000
22,041833	0,5	1,181800
22,050167	0,5	1,207850
22,058500	0,5	1,221050
22,066833	0,5	1,253950
22,075167	0,5	1,283750
22,083500	0,5	1,301650
22,091833	0,5	1,328050
22,100167	0,5	1,347100
22,108500	0,5	1,388950
22,116833	0,5	1,421050
22,125167	0,5	1,459300
22,133500	0,5	1,482950
22,141833	0,5	1,525500
22,150167	0,5	1,554650
22,158500	0,5	1,585250
22,166833	0,5	1,616050
22,175167	0,5	1,643150
22,183500	0,5	1,673400
22,191833	0,5	1,708850
22,200167	0,5	1,736150
22,208500	0,5	1,784250
22,216833	0,5	1,826200
22,225167	0,5	1,862400
22,233500	0,5	1,894450
22,241833	0,5	1,922400
22,250167	0,5	1,976600
22,258500	0,5	2,027100
22,266833	0,5	2,077700
22,275167	0,5	2,126300
22,283500	0,5	2,175950
22,291833	0,5	2,223750
22,300167	0,5	2,271100
22,308500	0,5	2,318650
22,316833	0,5	2,356900
22,325167	0,5	2,398950
22,333500	0,5	2,416450
22,341833	0,5	2,472250
22,350167	0,5	2,517200
22,358500	0,5	2,584000
22,366833	0,5	2,625650
22,375167	0,5	2,675450
22,383500	0,5	2,723650
22,391833	0,5	2,768700
22,400167	0,5	2,822800
22,408500	0,5	2,892700
22,416833	0,5	2,945800
22,425167	0,5	3,005550
22,433500	0,5	3,061400
22,441833	0,5	3,126550
22,450167	0,5	3,185700
22,458500	0,5	3,245700
22,466833	0,5	3,301250
22,475167	0,5	3,341600
22,483500	0,5	3,385900
22,491833	0,5	3,439650
22,500167	0,5	3,502200
22,508500	0,5	3,558300
22,516833	0,5	3,604450
22,525167	0,5	3,634400
22,533500	0,5	3,676750
22,541833	0,5	3,706950
22,550167	0,5	3,756550
22,558500	0,5	3,789650
22,566833	0,5	3,828600
22,575167	0,5	3,855450
22,583500	0,5	3,888200
22,591833	0,5	3,909000
22,600167	0,5	3,932300
22,608500	0,5	3,946150
22,616833	0,5	3,955300
22,625167	0,5	3,934000
22,633500	0,5	3,929150
22,641833	0,5	3,946500
22,650167	0,5	3,944650
22,658500	0,5	3,925800
22,666833	0,5	3,891900
22,675167	0,5	3,847350
22,683500	0,5	3,795100
22,691833	0,5	3,752900
22,700167	0,5	3,697550
22,708500	0,5	3,648500
22,716833	0,5	3,579100
22,725167	0,5	3,513500
22,733500	0,5	3,441350
22,741833	0,5	3,374300
22,750167	0,5	3,290850
22,758500	0,5	3,206900
22,766833	0,5	3,111450
22,775167	0,5	2,975400
22,783500	0,5	2,883150
22,791833	0,5	2,806200
22,800167	0,5	2,692700
22,808500	0,5	2,579350
22,816833	0,5	2,452200
22,825167	0,5	2,330700
22,833500	0,5	2,200200
22,841833	0,5	2,078000
22,850167	0,5	1,951900
22,858500	0,5	1,831100
22,866833	0,5	1,705300
22,875167	0,5	1,582200
22,883500	0,5	1,465000
22,891833	0,5	1,345950
22,900167	0,5	1,218550
22,908500	0,5	1,104200
22,916833	0,5	0,990600
22,925167	0,5	0,868000
22,933500	0,5	0,749300
22,941833	0,5	0,623100
22,950167	0,5	0,497600
22,958500	0,5	0,375450
22,966833	0,5	0,272200
22,975167	0,5	0,164800
22,983500	0,5	0,047950
22,991833	0,5	-0,059700
23,000167	0,5	-0,148800
23,008500	0,5	-0,243600
23,016833	0,5	-0,328500
23,025167	0,5	-0,421400
23,033500	0,5	-0,496150
23,041833	0,5	-0,580700
23,050167	0,5	-0,657700
23,058500	0,5	-0,717100
23,066833	0,5	-0,783800
23,075167	0,5	-0,851200
23,083500	0,5	-0,937850
23,091833	0,5	-1,028450
23,100167	0,5	-1,094350
23,108500	0,5	-1,145400
23,116833	0,5	-1,199900
23,125167	0,5	-1,246900
23,133500	0,5	-1,305500
23,141833	0,5	-1,337350
23,150167	0,5	-1,381650
23,158500	0,5	-1,410500
23,166833	0,5	-1,447850
23,175167	0,5	-1,470700
23,183500	0,5	-1,500550
23,191833	0,5	-1,521150
23,200167	0,5	-1,547800
23,208500	0,5	-1,547550
23,216833	0,5	-1,590250
23,225167	0,5	-1,598450
23,233500	0,5	-1,633100
23,241833	0,5	-1,680600
23,250167	0,5	-1,702300
23,258500	0,5	-1,711650
23,266833	0,5	-1,716850
23,275167	0,5	-1,732350
23,283500	0,5	-1,740250
23,291833	0,5	-1,751100
23,300167	0,5	-1,744550
23,308500	0,5	-1,748400
23,316833	0,5	-1,745150
23,325167	0,5	-1,744400
23,333500	0,5	-1,734450
23,341833	0,5	-1,736950
23,350167	0,5	-1,729200
23,358500	0,5	-1,744750
23,366833	0,5	-1,729150
23,375167	0,5	-1,699400
23,383500	0,5	-1,710200
23,391833	0,5	-1,724050
23,400167	0,5	-1,729550
23,408500	0,5	-1,726900
23,416833	0,5	-1,720700
23,425167	0,5	-1,713500
23,433500	0,5	-1,714250
23,441833	0,5	-1,704950
23,450167	0,5	-1,696700
23,458500	0,5	-1,682000
23,466833	0,5	-1,676950
23,475167	0,5	-1,662550
23,483500	0,5	-1,650900
23,491833	0,5	-1,638200
23,500167	0,5	-1,623550
23,508500	0,5	-1,679350
23,516833	0,5	-1,627050
23,525167	0,5	-1,589600
23,533500	0,5	-1,576750
23,541833	0,5	-1,574850
23,550167	0,5	-1,573050
23,558500	0,5	-1,563700
23,566833	0,5	-1,555400
23,575167	0,5	-1,547150
23,583500	0,5	-1,540200
23,591833	0,5	-1,531250
23,600167	0,5	-1,521750
23,608500	0,5	-1,517600
23,616833	0,5	-1,505550
23,625167	0,5	-1,495100
23,633500	0,5	-1,485000
23,641833	0,5	-1,474700
23,650167	0,5	-1,511850
23,658500	0,5	-1,528300
23,666833	0,5	-1,499450
23,675167	0,5	-1,438900
23,683500	0,5	-1,420650
23,691833	0,5	-1,411750
23,700167	0,5	-1,401750
23,708500	0,5	-1,395200
23,716833	0,5	-1,384250
23,725167	0,5	-1,367000
23,733500	0,5	-1,357400
23,741833	0,5	-1,342900
23,750167	0,5	-1,329050
23,758500	0,5	-1,318000
23,766833	0,5	-1,305300
23,775167	0,5	-1,290600
23,783500	0,5	-1,278000
23,791833	0,5	-1,268900
23,800167	0,5	-1,367500
23,808500	0,5	-1,344350
23,816833	0,5	-1,304450
23,825167	0,5	-1,248950
23,833500	0,5	-1,221200
23,841833	0,5	-1,214700
23,850167	0,5	-1,199950
23,858500	0,5	-1,196850
23,866833	0,5	-1,183100
23,875167	0,5	-1,171400
23,883500	0,5	-1,154750
23,891833	0,5	-1,139550
23,900167	0,5	-1,119450
23,908500	0,5	-1,103850
23,916833	0,5	-1,083100
23,925167	0,5	-1,067650
23,933500	0,5	-1,050800
23,941833	0,5	-1,067200
23,950167	0,5	-1,144650
23,958500	0,5	-1,096800
23,966833	0,5	-1,052250
23,975167	0,5	-1,007000
23,983500	0,5	-0,984600
23,991833	0,5	-0,972500
24,000167	0,5	-0,969100
24,008500	0,5	-0,957300
24,016833	0,5	-0,938550
24,025167	0,5	-0,922250
24,033500	0,5	-0,912050
24,041833	0,5	-0,890950
24,050167	0,5	-0,883750
24,058500	0,5	-0,866350
24,066833	0,5	-0,850200
24,075167	0,5	-0,838000
24,083500	0,5	-0,822100
24,091833	0,5	-0,906450
24,100167	0,5	-0,886250
24,108500	0,5	-0,863250
24,116833	0,5	-0,806300
24,125167	0,5	-0,769350
24,133500	0,5	-0,746800
24,141833	0,5	-0,735650
24,150167	0,5	-0,728300
24,158500	0,5	-0,720900
24,166833	0,5	-0,697550
24,175167	0,5	-0,692150
24,183500	0,5	-0,675550
24,191833	0,5	-0,659600
24,200167	0,5	-0,642400
24,208500	0,5	-0,631000
24,216833	0,5	-0,612950
24,225167	0,5	-0,602650
24,233500	0,5	-0,592500
24,241833	0,5	-0,677450
24,250167	0,5	-0,637250
24,258500	0,5	-0,622550
24,266833	0,5	-0,578250
24,275167	0,5	-0,558450
24,283500	0,5	-0,541900
24,291833	0,5	-0,534700
24,300167	0,5	-0,536800
24,308500	0,5	-0,517950
24,316833	0,5	-0,502400
24,325167	0,5	-0,485450
24,333500	0,5	-0,473700
24,341833	0,5	-0,459700
24,350167	0,5	-0,447250
24,358500	0,5	-0,425900
24,366833	0,5	-0,420200
24,375167	0,5	-0,408800
24,383500	0,5	-0,424400
24,391833	0,5	-0,462650
24,400167	0,5	-0,438000
24,408500	0,5	-0,410100
24,416833	0,5	-0,380050
24,425167	0,5	-0,366250
24,433500	0,5	-0,358800
24,441833	0,5	-0,355950
24,450167	0,5	-0,355450
24,458500	0,5	-0,349650
24,466833	0,5	-0,342850
24,475167	0,5	-0,330500
24,483500	0,5	-0,319400
24,491833	0,5	-0,307300
24,500167	0,5	-0,294800
24,508500	0,5	-0,286150
24,516833	0,5	-0,270950
24,525167	0,5	-0,268050
24,533500	0,5	-0,295150
24,541833	0,5	-0,302550
24,550167	0,5	-0,281500
24,558500	0,5	-0,256650
24,566833	0,5	-0,236500
24,575167	0,5	-0,229400
24,583500	0,5	-0,224150
24,591833	0,5	-0,225100
24,600167	0,5	-0,225000
24,608500	0,5	-0,212850
24,616833	0,5	-0,203800
24,625167	0,5	-0,197400
24,633500	0,5	-0,190300
24,641833	0,5	-0,180100
24,650167	0,5	-0,175850
24,658500	0,5	-0,168150
24,666833	0,5	-0,166350
24,675167	0,5	-0,161550
24,683500	0,5	-0,195300
24,691833	0,5	-0,179950
24,700167	0,5	-0,167850
24,708500	0,5	-0,148850
24,716833	0,5	-0,133250
24,725167	0,5	-0,129650
24,733500	0,5	-0,132750
24,741833	0,5	-0,128250
24,750167	0,5	-0,123000
24,758500	0,5	-0,117500
24,766833	0,5	-0,113750
24,775167	0,5	-0,107700
24,783500	0,5	-0,100500
24,791833	0,5	-0,094400
24,800167	0,5	-0,088200
24,808500	0,5	-0,080950
24,816833	0,5	-0,076850
24,825167	0,5	-0,084350
24,833500	0,5	-0,095500
24,841833	0,5	-0,091850
24,850167	0,5	-0,080600
24,858500	0,5	-0,071400
24,866833	0,5	-0,060400
24,875167	0,5	-0,060750
24,883500	0,5	-0,057700
24,891833	0,5	-0,061400
24,900167	0,5	-0,051200
24,908500	0,5	-0,051800
24,916833	0,5	-0,047650
24,925167	0,5	-0,043950
24,933500	0,5	-0,038300
24,941833	0,5	-0,035500
24,950167	0,5	-0,030900
24,958500	0,5	-0,029400
24,966833	0,5	-0,022800
24,975167	0,5	-0,033200
24,983500	0,5	-0,035050
24,991833	0,5	-0,028900
25,000167	0,5	-0,019750
25,008500	0,5	-0,016450
25,016833	0,5	-0,012650
25,025167	0,5	-0,014950
25,033500	0,5	-0,018250
25,041833	0,5	-0,013800
25,050167	0,5	-0,015250
25,058500	0,5	-0,010150
25,066833	0,5	-0,007600
25,075167	0,5	-0,007850
25,083500	0,5	-0,004750
25,091833	0,5	0,000350
25,100167	0,5	0,002150
25,108500	0,5	0,007350
25,116833	0,5	0,007700
25,125167	0,5	-0,005350
25,133500	0,5	0,002000
25,141833	0,5	0,005350
25,150167	0,5	0,009950
25,158500	0,5	0,012450
25,166833	0,5	0,015150
25,175167	0,5	0,015650
25,183500	0,5	0,012700
25,191833	0,5	0,013800
25,200167	0,5	0,016050
25,208500	0,5	0,013650
25,216833	0,5	0,016400
25,225167	0,5	0,014600
25,233500	0,5	0,020350
25,241833	0,5	0,016200
25,250167	0,5	0,019100
25,258500	0,5	0,020500
25,266833	0,5	0,024450
25,275167	0,5	0,020250
25,283500	0,5	0,023200
25,291833	0,5	0,025700
25,300167	0,5	0,028050
25,308500	0,5	0,029000
25,316833	0,5	0,029700
25,325167	0,5	0,031050
25,333500	0,5	0,027050
25,341833	0,5	0,030300
25,350167	0,5	0,030750
25,358500	0,5	0,028400
25,366833	0,5	0,028900
25,375167	0,5	0,031300
25,383500	0,5	0,027500
25,391833	0,5	0,029550
25,400167	0,5	0,030600
25,408500	0,5	0,027550
25,416833	0,5	0,030600
25,425167	0,5	0,030950
25,433500	0,5	0,033500
25,441833	0,5	0,030100
25,450167	0,5	0,031250
25,458500	0,5	0,033350
25,466833	0,5	0,033350
25,475167	0,5	0,034450
25,483500	0,5	0,034600
25,491833	0,5	0,035950
25,500167	0,5	0,036550
25,508500	0,5	0,036150
25,516833	0,5	0,034500
25,525167	0,5	0,037250
25,533500	0,5	0,035650
25,541833	0,5	0,033650
25,550167	0,5	0,033600
25,558500	0,5	0,034350
25,566833	0,5	0,036700
25,575167	0,5	0,035100
25,583500	0,5	0,036300
25,591833	0,5	0,033900
25,600167	0,5	0,033700
25,608500	0,5	0,036150
25,616833	0,5	0,035500
25,625167	0,5	0,038400
25,633500	0,5	0,040000
25,641833	0,5	0,040250
25,650167	0,5	0,039800
25,658500	0,5	0,041200
25,666833	0,5	0,041400
25,675167	0,5	0,040500
25,683500	0,5	0,041300
25,691833	0,5	0,039700
25,700167	0,5	0,040150
25,708500	0,5	0,042150
25,716833	0,5	0,043200
25,725167	0,5	0,041750
25,733500	0,5	0,046150
25,741833	0,5	0,041650
25,750167	0,5	0,036850
25,758500	0,5	0,038050
25,766833	0,5	0,038750
25,775167	0,5	0,042250
25,783500	0,5	0,043650
25,791833	0,5	0,044300
25,800167	0,5	0,047150
25,808500	0,5	0,045450
25,816833	0,5	0,047550
25,825167	0,5	0,045500
25,833500	0,5	0,048200
25,841833	0,5	0,046950
25,850167	0,5	0,047150
25,858500	0,5	0,049350
25,866833	0,5	0,048800
25,875167	0,5	0,051650
25,883500	0,5	0,051050
25,891833	0,5	0,046750
25,900167	0,5	0,045200
25,908500	0,5	0,046300
25,916833	0,5	0,050250
25,925167	0,5	0,054800
25,933500	0,5	0,052450
25,941833	0,5	0,051400
25,950167	0,5	0,051200
25,958500	0,5	0,056500
25,966833	0,5	0,056450
25,975167	0,5	0,058450
25,983500	0,5	0,060200
25,991833	0,5	0,060050
26,000167	0,5	0,061850
