File Path	chrom://chromeleon01/ikbm_chromeleon/2022/ICS-5000/ED1/Esteban/20220612_Cell_7_4_eg.seq/592.smp/ED_1.channel/ED_1.chm
Channel	ED_1

Injection Information:
Data Vault	ikbm_chromeleon
Injection	7_24h-NT_1
Injection Number	38
Position	RD7
Comment	
Processing Method	Stop sequence after Cell Death
Instrument Method	ICS5000_PA200_FullNative_Ox_26min_ED1
Type	Unknown
Status	Finished
Injection Date	13.06.2022
Injection Time	09:39:33
Injection Volume (µl)	5,0
Dilution Factor	1,0000
Weight	1,0000

Chromatogram Data Information:
Time Min. (min)	0,000167
Time Max. (min)	26,000167
Data Points	3121
Detector	EDet1
Generating Data System	Chromeleon 7.2.9.11323
Exporting Data System	Chromeleon 7.2.9.0
Operator	Instrument Controller
Signal Quantity	
Signal Unit	nC
Signal Min.	-1,765650
Signal Max.	671,555010
Channel	ED_1
Driver Name	DC-5000
Channel Type	Evaluation
Min. Step (s)	0,5
Max. Step (s)	0,5
Average Step (s)	0,5

Signal Parameter Information:
Signal Info	

Chromatogram Data:
Time (min)	Step (s)	Value (nC)
0,000167	n.a.	-0,028300
0,008500	0,5	-0,038450
0,016833	0,5	-0,032900
0,025167	0,5	-0,024850
0,033500	0,5	-0,012000
0,041833	0,5	0,015350
0,050167	0,5	0,015200
0,058500	0,5	0,014650
0,066833	0,5	0,012250
0,075167	0,5	0,016200
0,083500	0,5	0,015350
0,091833	0,5	0,019500
0,100167	0,5	0,015900
0,108500	0,5	0,009000
0,116833	0,5	0,014900
0,125167	0,5	0,017300
0,133500	0,5	0,025550
0,141833	0,5	0,022100
0,150167	0,5	0,034350
0,158500	0,5	0,007250
0,166833	0,5	0,014200
0,175167	0,5	0,012650
0,183500	0,5	0,031050
0,191833	0,5	0,047800
0,200167	0,5	0,047200
0,208500	0,5	0,038000
0,216833	0,5	0,047000
0,225167	0,5	0,048250
0,233500	0,5	0,046350
0,241833	0,5	0,038300
0,250167	0,5	0,040400
0,258500	0,5	0,038450
0,266833	0,5	0,038250
0,275167	0,5	0,032950
0,283500	0,5	0,027600
0,291833	0,5	0,061500
0,300167	0,5	0,081800
0,308500	0,5	0,050750
0,316833	0,5	0,034950
0,325167	0,5	0,030800
0,333500	0,5	0,034650
0,341833	0,5	0,046050
0,350167	0,5	0,044100
0,358500	0,5	0,050550
0,366833	0,5	0,050500
0,375167	0,5	0,054100
0,383500	0,5	0,048550
0,391833	0,5	0,051450
0,400167	0,5	0,046750
0,408500	0,5	0,047650
0,416833	0,5	0,054050
0,425167	0,5	0,032400
0,433500	0,5	0,034600
0,441833	0,5	0,052200
0,450167	0,5	0,039850
0,458500	0,5	0,036050
0,466833	0,5	0,043050
0,475167	0,5	0,046800
0,483500	0,5	0,067200
0,491833	0,5	0,066800
0,500167	0,5	0,073850
0,508500	0,5	0,070950
0,516833	0,5	0,079350
0,525167	0,5	0,068300
0,533500	0,5	0,072450
0,541833	0,5	0,063650
0,550167	0,5	0,066000
0,558500	0,5	0,067950
0,566833	0,5	0,069800
0,575167	0,5	0,063400
0,583500	0,5	0,074800
0,591833	0,5	0,082800
0,600167	0,5	0,072750
0,608500	0,5	0,069100
0,616833	0,5	0,075300
0,625167	0,5	0,088500
0,633500	0,5	0,102400
0,641833	0,5	0,098900
0,650167	0,5	0,095900
0,658500	0,5	0,103600
0,666833	0,5	0,098900
0,675167	0,5	0,102600
0,683500	0,5	0,098800
0,691833	0,5	0,103500
0,700167	0,5	0,105350
0,708500	0,5	0,111500
0,716833	0,5	0,105150
0,725167	0,5	0,098300
0,733500	0,5	0,112500
0,741833	0,5	0,117650
0,750167	0,5	0,103200
0,758500	0,5	0,106150
0,766833	0,5	0,110950
0,775167	0,5	0,131450
0,783500	0,5	0,135350
0,791833	0,5	0,135450
0,800167	0,5	0,141550
0,808500	0,5	0,138550
0,816833	0,5	0,146800
0,825167	0,5	0,142900
0,833500	0,5	0,144500
0,841833	0,5	0,140600
0,850167	0,5	0,145050
0,858500	0,5	0,145400
0,866833	0,5	0,147800
0,875167	0,5	0,138500
0,883500	0,5	0,163050
0,891833	0,5	0,155050
0,900167	0,5	0,153900
0,908500	0,5	0,150100
0,916833	0,5	0,163400
0,925167	0,5	0,179550
0,933500	0,5	0,184100
0,941833	0,5	0,180800
0,950167	0,5	0,187900
0,958500	0,5	0,184900
0,966833	0,5	0,188250
0,975167	0,5	0,187000
0,983500	0,5	0,196000
0,991833	0,5	0,198250
1,000167	0,5	0,195650
1,008500	0,5	0,202300
1,016833	0,5	0,190750
1,025167	0,5	0,192550
1,033500	0,5	0,205050
1,041833	0,5	0,198100
1,050167	0,5	0,195550
1,058500	0,5	0,201000
1,066833	0,5	0,212400
1,075167	0,5	0,238750
1,083500	0,5	0,237950
1,091833	0,5	0,242200
1,100167	0,5	0,237700
1,108500	0,5	0,243400
1,116833	0,5	0,240050
1,125167	0,5	0,246700
1,133500	0,5	0,244550
1,141833	0,5	0,244750
1,150167	0,5	0,247150
1,158500	0,5	0,243850
1,166833	0,5	0,242550
1,175167	0,5	0,253050
1,183500	0,5	0,264750
1,191833	0,5	0,244150
1,200167	0,5	0,253750
1,208500	0,5	0,250450
1,216833	0,5	0,268950
1,225167	0,5	0,285700
1,233500	0,5	0,292450
1,241833	0,5	0,282700
1,250167	0,5	0,285900
1,258500	0,5	0,282650
1,266833	0,5	0,290000
1,275167	0,5	0,286100
1,283500	0,5	0,288200
1,291833	0,5	0,286550
1,300167	0,5	0,290950
1,308500	0,5	0,286050
1,316833	0,5	0,286650
1,325167	0,5	0,294700
1,333500	0,5	0,290550
1,341833	0,5	0,280700
1,350167	0,5	0,286050
1,358500	0,5	0,288750
1,366833	0,5	0,311350
1,375167	0,5	0,317650
1,383500	0,5	0,309850
1,391833	0,5	0,312650
1,400167	0,5	0,309100
1,408500	0,5	0,309550
1,416833	0,5	0,307600
1,425167	0,5	0,308500
1,433500	0,5	0,300500
1,441833	0,5	0,299900
1,450167	0,5	0,297250
1,458500	0,5	0,294450
1,466833	0,5	0,292750
1,475167	0,5	0,315200
1,483500	0,5	0,297450
1,491833	0,5	0,289400
1,500167	0,5	0,290000
1,508500	0,5	0,296850
1,516833	0,5	0,309700
1,525167	0,5	0,306150
1,533500	0,5	0,305400
1,541833	0,5	0,306350
1,550167	0,5	0,323600
1,558500	0,5	0,342300
1,566833	0,5	0,371650
1,575167	0,5	0,361100
1,583500	0,5	0,898700
1,591833	0,5	5,093300
1,600167	0,5	22,429800
1,608500	0,5	78,526551
1,616833	0,5	215,304253
1,625167	0,5	425,713806
1,633500	0,5	610,172159
1,641833	0,5	671,555010
1,650167	0,5	601,791259
1,658500	0,5	466,751007
1,666833	0,5	335,157705
1,675167	0,5	236,009454
1,683500	0,5	169,671353
1,691833	0,5	127,759052
1,700167	0,5	102,430902
1,708500	0,5	87,230351
1,716833	0,5	76,873401
1,725167	0,5	68,504401
1,733500	0,5	61,387401
1,741833	0,5	55,805901
1,750167	0,5	52,630351
1,758500	0,5	52,506151
1,766833	0,5	54,553901
1,775167	0,5	56,786801
1,783500	0,5	57,628851
1,791833	0,5	56,547151
1,800167	0,5	53,835901
1,808500	0,5	50,325001
1,816833	0,5	46,726851
1,825167	0,5	43,488101
1,833500	0,5	40,835051
1,841833	0,5	38,922401
1,850167	0,5	37,721501
1,858500	0,5	37,017451
1,866833	0,5	36,285801
1,875167	0,5	35,081351
1,883500	0,5	33,466750
1,891833	0,5	31,882150
1,900167	0,5	30,766750
1,908500	0,5	30,438250
1,916833	0,5	31,354650
1,925167	0,5	33,876651
1,933500	0,5	38,285151
1,941833	0,5	43,987351
1,950167	0,5	48,847151
1,958500	0,5	50,105001
1,966833	0,5	47,114351
1,975167	0,5	42,265101
1,983500	0,5	38,741401
1,991833	0,5	37,368301
2,000167	0,5	36,320251
2,008500	0,5	34,155651
2,016833	0,5	31,609850
2,025167	0,5	29,443750
2,033500	0,5	27,392600
2,041833	0,5	25,314550
2,050167	0,5	23,463850
2,058500	0,5	21,979550
2,066833	0,5	20,864900
2,075167	0,5	20,029000
2,083500	0,5	19,529850
2,091833	0,5	19,330850
2,100167	0,5	19,146000
2,108500	0,5	18,645650
2,116833	0,5	17,865000
2,125167	0,5	17,144700
2,133500	0,5	16,594050
2,141833	0,5	16,227900
2,150167	0,5	15,979200
2,158500	0,5	15,813750
2,166833	0,5	15,624100
2,175167	0,5	15,387500
2,183500	0,5	15,139600
2,191833	0,5	14,933650
2,200167	0,5	14,798500
2,208500	0,5	14,783100
2,216833	0,5	14,994600
2,225167	0,5	15,781250
2,233500	0,5	17,046100
2,241833	0,5	17,082650
2,250167	0,5	15,932000
2,258500	0,5	15,037400
2,266833	0,5	14,644450
2,275167	0,5	14,502250
2,283500	0,5	14,495800
2,291833	0,5	14,582100
2,300167	0,5	14,788650
2,308500	0,5	15,164650
2,316833	0,5	15,820350
2,325167	0,5	17,031500
2,333500	0,5	19,256000
2,341833	0,5	22,702550
2,350167	0,5	26,807150
2,358500	0,5	30,293350
2,366833	0,5	32,076700
2,375167	0,5	32,003350
2,383500	0,5	30,806750
2,391833	0,5	29,485250
2,400167	0,5	28,878050
2,408500	0,5	29,293700
2,416833	0,5	30,774750
2,425167	0,5	33,751851
2,433500	0,5	39,759501
2,441833	0,5	50,680651
2,450167	0,5	65,537151
2,458500	0,5	78,415451
2,466833	0,5	82,699451
2,475167	0,5	77,058551
2,483500	0,5	65,493851
2,491833	0,5	53,234951
2,500167	0,5	43,664401
2,508500	0,5	38,099351
2,516833	0,5	36,453351
2,525167	0,5	37,777951
2,533500	0,5	40,345501
2,541833	0,5	42,376801
2,550167	0,5	42,660751
2,558500	0,5	40,709851
2,566833	0,5	36,884951
2,575167	0,5	32,144000
2,583500	0,5	27,563650
2,591833	0,5	23,844850
2,600167	0,5	21,167300
2,608500	0,5	19,345950
2,616833	0,5	18,132100
2,625167	0,5	17,306600
2,633500	0,5	16,735200
2,641833	0,5	16,345400
2,650167	0,5	16,180500
2,658500	0,5	16,265500
2,666833	0,5	16,581300
2,675167	0,5	17,006400
2,683500	0,5	17,293900
2,691833	0,5	17,208600
2,700167	0,5	16,719700
2,708500	0,5	15,957600
2,716833	0,5	15,206250
2,725167	0,5	14,608650
2,733500	0,5	14,242150
2,741833	0,5	14,083550
2,750167	0,5	14,152850
2,758500	0,5	14,508950
2,766833	0,5	15,368700
2,775167	0,5	16,929100
2,783500	0,5	19,078350
2,791833	0,5	21,174850
2,800167	0,5	22,332750
2,808500	0,5	21,984750
2,816833	0,5	20,338450
2,825167	0,5	18,082550
2,833500	0,5	15,923350
2,841833	0,5	14,247150
2,850167	0,5	13,067000
2,858500	0,5	12,280100
2,866833	0,5	11,758500
2,875167	0,5	11,419300
2,883500	0,5	11,178600
2,891833	0,5	11,001950
2,900167	0,5	10,837850
2,908500	0,5	10,684050
2,916833	0,5	10,521500
2,925167	0,5	10,350800
2,933500	0,5	10,167200
2,941833	0,5	9,956450
2,950167	0,5	9,763900
2,958500	0,5	9,557000
2,966833	0,5	9,369400
2,975167	0,5	9,206600
2,983500	0,5	9,066000
2,991833	0,5	8,932300
3,000167	0,5	8,804450
3,008500	0,5	8,661400
3,016833	0,5	8,530600
3,025167	0,5	8,410300
3,033500	0,5	8,323500
3,041833	0,5	8,254400
3,050167	0,5	8,209300
3,058500	0,5	8,145400
3,066833	0,5	8,060500
3,075167	0,5	7,939850
3,083500	0,5	7,784500
3,091833	0,5	7,630950
3,100167	0,5	7,500800
3,108500	0,5	7,362800
3,116833	0,5	7,256100
3,125167	0,5	7,155900
3,133500	0,5	7,084600
3,141833	0,5	7,012700
3,150167	0,5	6,935450
3,158500	0,5	6,869400
3,166833	0,5	6,807350
3,175167	0,5	6,747100
3,183500	0,5	6,670450
3,191833	0,5	6,591950
3,200167	0,5	6,493450
3,208500	0,5	6,389100
3,216833	0,5	6,283300
3,225167	0,5	6,177800
3,233500	0,5	6,076800
3,241833	0,5	6,005150
3,250167	0,5	5,930800
3,258500	0,5	5,856400
3,266833	0,5	5,792150
3,275167	0,5	5,730750
3,283500	0,5	5,684750
3,291833	0,5	5,638050
3,300167	0,5	5,586100
3,308500	0,5	5,530650
3,316833	0,5	5,484300
3,325167	0,5	5,442050
3,333500	0,5	5,400550
3,341833	0,5	5,367700
3,350167	0,5	5,345000
3,358500	0,5	5,330600
3,366833	0,5	5,328450
3,375167	0,5	5,319200
3,383500	0,5	5,323300
3,391833	0,5	5,342600
3,400167	0,5	5,354950
3,408500	0,5	5,357850
3,416833	0,5	5,375400
3,425167	0,5	5,381850
3,433500	0,5	5,404500
3,441833	0,5	5,413750
3,450167	0,5	5,425750
3,458500	0,5	5,450700
3,466833	0,5	5,511150
3,475167	0,5	5,614400
3,483500	0,5	5,787050
3,491833	0,5	6,015700
3,500167	0,5	6,295200
3,508500	0,5	6,603600
3,516833	0,5	6,895250
3,525167	0,5	7,159400
3,533500	0,5	7,419250
3,541833	0,5	7,731100
3,550167	0,5	8,122900
3,558500	0,5	8,664350
3,566833	0,5	9,334100
3,575167	0,5	10,036950
3,583500	0,5	10,607250
3,591833	0,5	10,859050
3,600167	0,5	10,703200
3,608500	0,5	10,155150
3,616833	0,5	9,305800
3,625167	0,5	8,333400
3,633500	0,5	7,377800
3,641833	0,5	6,565100
3,650167	0,5	5,936800
3,658500	0,5	5,490850
3,666833	0,5	5,197450
3,675167	0,5	4,995350
3,683500	0,5	4,881650
3,691833	0,5	4,817450
3,700167	0,5	4,753650
3,708500	0,5	4,700050
3,716833	0,5	4,658850
3,725167	0,5	4,618750
3,733500	0,5	4,584150
3,741833	0,5	4,526350
3,750167	0,5	4,478150
3,758500	0,5	4,431900
3,766833	0,5	4,392700
3,775167	0,5	4,355050
3,783500	0,5	4,328300
3,791833	0,5	4,296750
3,800167	0,5	4,276350
3,808500	0,5	4,254150
3,816833	0,5	4,221050
3,825167	0,5	4,181000
3,833500	0,5	4,165000
3,841833	0,5	4,142200
3,850167	0,5	4,110450
3,858500	0,5	4,091100
3,866833	0,5	4,087100
3,875167	0,5	4,097800
3,883500	0,5	4,111200
3,891833	0,5	4,127100
3,900167	0,5	4,153550
3,908500	0,5	4,191900
3,916833	0,5	4,224100
3,925167	0,5	4,254450
3,933500	0,5	4,265350
3,941833	0,5	4,270650
3,950167	0,5	4,248100
3,958500	0,5	4,214900
3,966833	0,5	4,167500
3,975167	0,5	4,121300
3,983500	0,5	4,084450
3,991833	0,5	4,045650
4,000167	0,5	4,007150
4,008500	0,5	3,976850
4,016833	0,5	3,950650
4,025167	0,5	3,930600
4,033500	0,5	3,895550
4,041833	0,5	3,833450
4,050167	0,5	3,758850
4,058500	0,5	3,681300
4,066833	0,5	3,605050
4,075167	0,5	3,533950
4,083500	0,5	3,479800
4,091833	0,5	3,433800
4,100167	0,5	3,401000
4,108500	0,5	3,370650
4,116833	0,5	3,344300
4,125167	0,5	3,322450
4,133500	0,5	3,315750
4,141833	0,5	3,286300
4,150167	0,5	3,275700
4,158500	0,5	3,263900
4,166833	0,5	3,264050
4,175167	0,5	3,262300
4,183500	0,5	3,254650
4,191833	0,5	3,244850
4,200167	0,5	3,239250
4,208500	0,5	3,229850
4,216833	0,5	3,230200
4,225167	0,5	3,234650
4,233500	0,5	3,238850
4,241833	0,5	3,250350
4,250167	0,5	3,256800
4,258500	0,5	3,268000
4,266833	0,5	3,271500
4,275167	0,5	3,288800
4,283500	0,5	3,292550
4,291833	0,5	3,285200
4,300167	0,5	3,270650
4,308500	0,5	3,259250
4,316833	0,5	3,248200
4,325167	0,5	3,241950
4,333500	0,5	3,215950
4,341833	0,5	3,196450
4,350167	0,5	3,170000
4,358500	0,5	3,156050
4,366833	0,5	3,132750
4,375167	0,5	3,121350
4,383500	0,5	3,109250
4,391833	0,5	3,097250
4,400167	0,5	3,090500
4,408500	0,5	3,078750
4,416833	0,5	3,072600
4,425167	0,5	3,076700
4,433500	0,5	3,064800
4,441833	0,5	3,056250
4,450167	0,5	3,056350
4,458500	0,5	3,055600
4,466833	0,5	3,073750
4,475167	0,5	3,079300
4,483500	0,5	3,091300
4,491833	0,5	3,095600
4,500167	0,5	3,106600
4,508500	0,5	3,112900
4,516833	0,5	3,124500
4,525167	0,5	3,123750
4,533500	0,5	3,122700
4,541833	0,5	3,110900
4,550167	0,5	3,098250
4,558500	0,5	3,075900
4,566833	0,5	3,058200
4,575167	0,5	3,044800
4,583500	0,5	3,010000
4,591833	0,5	2,984200
4,600167	0,5	2,957750
4,608500	0,5	2,948000
4,616833	0,5	2,942800
4,625167	0,5	2,922700
4,633500	0,5	2,896450
4,641833	0,5	2,886650
4,650167	0,5	2,874050
4,658500	0,5	2,864800
4,666833	0,5	2,850950
4,675167	0,5	2,844650
4,683500	0,5	2,832550
4,691833	0,5	2,828000
4,700167	0,5	2,823550
4,708500	0,5	2,818400
4,716833	0,5	2,812800
4,725167	0,5	2,817850
4,733500	0,5	2,796900
4,741833	0,5	2,785750
4,750167	0,5	2,775200
4,758500	0,5	2,769100
4,766833	0,5	2,768500
4,775167	0,5	2,747050
4,783500	0,5	2,734800
4,791833	0,5	2,722350
4,800167	0,5	2,709050
4,808500	0,5	2,702700
4,816833	0,5	2,695850
4,825167	0,5	2,681200
4,833500	0,5	2,673650
4,841833	0,5	2,665500
4,850167	0,5	2,657950
4,858500	0,5	2,642900
4,866833	0,5	2,643800
4,875167	0,5	2,645500
4,883500	0,5	2,645150
4,891833	0,5	2,651900
4,900167	0,5	2,676850
4,908500	0,5	2,716800
4,916833	0,5	2,757750
4,925167	0,5	2,798700
4,933500	0,5	2,849300
4,941833	0,5	2,902800
4,950167	0,5	2,946600
4,958500	0,5	2,985750
4,966833	0,5	3,003400
4,975167	0,5	3,012850
4,983500	0,5	2,997700
4,991833	0,5	2,974700
5,000167	0,5	2,943350
5,008500	0,5	2,917900
5,016833	0,5	2,908400
5,025167	0,5	2,902300
5,033500	0,5	2,931100
5,041833	0,5	3,002200
5,050167	0,5	3,117850
5,058500	0,5	3,291900
5,066833	0,5	3,507400
5,075167	0,5	3,747350
5,083500	0,5	4,004750
5,091833	0,5	4,263500
5,100167	0,5	4,477650
5,108500	0,5	4,626100
5,116833	0,5	4,689700
5,125167	0,5	4,662400
5,133500	0,5	4,556000
5,141833	0,5	4,376000
5,150167	0,5	4,145900
5,158500	0,5	3,893750
5,166833	0,5	3,645900
5,175167	0,5	3,399500
5,183500	0,5	3,187950
5,191833	0,5	3,009050
5,200167	0,5	2,867750
5,208500	0,5	2,756350
5,216833	0,5	2,665650
5,225167	0,5	2,589450
5,233500	0,5	2,530200
5,241833	0,5	2,480150
5,250167	0,5	2,447500
5,258500	0,5	2,412300
5,266833	0,5	2,384850
5,275167	0,5	2,359550
5,283500	0,5	2,335800
5,291833	0,5	2,322250
5,300167	0,5	2,299200
5,308500	0,5	2,294350
5,316833	0,5	2,278850
5,325167	0,5	2,257350
5,333500	0,5	2,244700
5,341833	0,5	2,238550
5,350167	0,5	2,238100
5,358500	0,5	2,237300
5,366833	0,5	2,228400
5,375167	0,5	2,222600
5,383500	0,5	2,213700
5,391833	0,5	2,211000
5,400167	0,5	2,199000
5,408500	0,5	2,190100
5,416833	0,5	2,177800
5,425167	0,5	2,171100
5,433500	0,5	2,160250
5,441833	0,5	2,147750
5,450167	0,5	2,135500
5,458500	0,5	2,136150
5,466833	0,5	2,124050
5,475167	0,5	2,111750
5,483500	0,5	2,109750
5,491833	0,5	2,108900
5,500167	0,5	2,120500
5,508500	0,5	2,124900
5,516833	0,5	2,130850
5,525167	0,5	2,133400
5,533500	0,5	2,142000
5,541833	0,5	2,148900
5,550167	0,5	2,160700
5,558500	0,5	2,171650
5,566833	0,5	2,189400
5,575167	0,5	2,207400
5,583500	0,5	2,232350
5,591833	0,5	2,263050
5,600167	0,5	2,304050
5,608500	0,5	2,364250
5,616833	0,5	2,419200
5,625167	0,5	2,490550
5,633500	0,5	2,577800
5,641833	0,5	2,674000
5,650167	0,5	2,780950
5,658500	0,5	2,879950
5,666833	0,5	2,975700
5,675167	0,5	3,067100
5,683500	0,5	3,147600
5,691833	0,5	3,217150
5,700167	0,5	3,267400
5,708500	0,5	3,307250
5,716833	0,5	3,331700
5,725167	0,5	3,346300
5,733500	0,5	3,344200
5,741833	0,5	3,315450
5,750167	0,5	3,258250
5,758500	0,5	3,180900
5,766833	0,5	3,054650
5,775167	0,5	2,917000
5,783500	0,5	2,764150
5,791833	0,5	2,611200
5,800167	0,5	2,467700
5,808500	0,5	2,327650
5,816833	0,5	2,217650
5,825167	0,5	2,126800
5,833500	0,5	2,060100
5,841833	0,5	2,011150
5,850167	0,5	1,980650
5,858500	0,5	1,960850
5,866833	0,5	1,957850
5,875167	0,5	1,956700
5,883500	0,5	1,972750
5,891833	0,5	1,975900
5,900167	0,5	2,001300
5,908500	0,5	2,023600
5,916833	0,5	2,049650
5,925167	0,5	2,078600
5,933500	0,5	2,115000
5,941833	0,5	2,150800
5,950167	0,5	2,177050
5,958500	0,5	2,180900
5,966833	0,5	2,180450
5,975167	0,5	2,167650
5,983500	0,5	2,142350
5,991833	0,5	2,102950
6,000167	0,5	2,059600
6,008500	0,5	2,016100
6,016833	0,5	1,974150
6,025167	0,5	1,935100
6,033500	0,5	1,893550
6,041833	0,5	1,862000
6,050167	0,5	1,842350
6,058500	0,5	1,811750
6,066833	0,5	1,791550
6,075167	0,5	1,777500
6,083500	0,5	1,763950
6,091833	0,5	1,758550
6,100167	0,5	1,751100
6,108500	0,5	1,740750
6,116833	0,5	1,731500
6,125167	0,5	1,725500
6,133500	0,5	1,713100
6,141833	0,5	1,706250
6,150167	0,5	1,695950
6,158500	0,5	1,686650
6,166833	0,5	1,680200
6,175167	0,5	1,674850
6,183500	0,5	1,672750
6,191833	0,5	1,673150
6,200167	0,5	1,667900
6,208500	0,5	1,659600
6,216833	0,5	1,656600
6,225167	0,5	1,652850
6,233500	0,5	1,661100
6,241833	0,5	1,666400
6,250167	0,5	1,669000
6,258500	0,5	1,668250
6,266833	0,5	1,675800
6,275167	0,5	1,681500
6,283500	0,5	1,693350
6,291833	0,5	1,701800
6,300167	0,5	1,729750
6,308500	0,5	1,756500
6,316833	0,5	1,792100
6,325167	0,5	1,826000
6,333500	0,5	1,858850
6,341833	0,5	1,888750
6,350167	0,5	1,899450
6,358500	0,5	1,889900
6,366833	0,5	1,876600
6,375167	0,5	1,847250
6,383500	0,5	1,817550
6,391833	0,5	1,784750
6,400167	0,5	1,749500
6,408500	0,5	1,718950
6,416833	0,5	1,688450
6,425167	0,5	1,677700
6,433500	0,5	1,666150
6,441833	0,5	1,662200
6,450167	0,5	1,661050
6,458500	0,5	1,667450
6,466833	0,5	1,677550
6,475167	0,5	1,687550
6,483500	0,5	1,692700
6,491833	0,5	1,707600
6,500167	0,5	1,702350
6,508500	0,5	1,700650
6,516833	0,5	1,695700
6,525167	0,5	1,697400
6,533500	0,5	1,704950
6,541833	0,5	1,702650
6,550167	0,5	1,709600
6,558500	0,5	1,718400
6,566833	0,5	1,732050
6,575167	0,5	1,744400
6,583500	0,5	1,762100
6,591833	0,5	1,779600
6,600167	0,5	1,795550
6,608500	0,5	1,815200
6,616833	0,5	1,834250
6,625167	0,5	1,851550
6,633500	0,5	1,877450
6,641833	0,5	1,909200
6,650167	0,5	1,930600
6,658500	0,5	1,951700
6,666833	0,5	1,966150
6,675167	0,5	1,971350
6,683500	0,5	1,968000
6,691833	0,5	1,935700
6,700167	0,5	1,901800
6,708500	0,5	1,857400
6,716833	0,5	1,813000
6,725167	0,5	1,771500
6,733500	0,5	1,733200
6,741833	0,5	1,698750
6,750167	0,5	1,675000
6,758500	0,5	1,661750
6,766833	0,5	1,652050
6,775167	0,5	1,637750
6,783500	0,5	1,633650
6,791833	0,5	1,633150
6,800167	0,5	1,621450
6,808500	0,5	1,617950
6,816833	0,5	1,614600
6,825167	0,5	1,616700
6,833500	0,5	1,622300
6,841833	0,5	1,623100
6,850167	0,5	1,624700
6,858500	0,5	1,626550
6,866833	0,5	1,629650
6,875167	0,5	1,634900
6,883500	0,5	1,635400
6,891833	0,5	1,638650
6,900167	0,5	1,637500
6,908500	0,5	1,641200
6,916833	0,5	1,642050
6,925167	0,5	1,637400
6,933500	0,5	1,642250
6,941833	0,5	1,640050
6,950167	0,5	1,635250
6,958500	0,5	1,633350
6,966833	0,5	1,633400
6,975167	0,5	1,630400
6,983500	0,5	1,628100
6,991833	0,5	1,617900
7,000167	0,5	1,607950
7,008500	0,5	1,601600
7,016833	0,5	1,596850
7,025167	0,5	1,589250
7,033500	0,5	1,587100
7,041833	0,5	1,579950
7,050167	0,5	1,581150
7,058500	0,5	1,581450
7,066833	0,5	1,576050
7,075167	0,5	1,575200
7,083500	0,5	1,576900
7,091833	0,5	1,572600
7,100167	0,5	1,568450
7,108500	0,5	1,570900
7,116833	0,5	1,575100
7,125167	0,5	1,581850
7,133500	0,5	1,586650
7,141833	0,5	1,587250
7,150167	0,5	1,585200
7,158500	0,5	1,587750
7,166833	0,5	1,580950
7,175167	0,5	1,578300
7,183500	0,5	1,572600
7,191833	0,5	1,572700
7,200167	0,5	1,572900
7,208500	0,5	1,573500
7,216833	0,5	1,571750
7,225167	0,5	1,576700
7,233500	0,5	1,586450
7,241833	0,5	1,594350
7,250167	0,5	1,604000
7,258500	0,5	1,614350
7,266833	0,5	1,630250
7,275167	0,5	1,637700
7,283500	0,5	1,642050
7,291833	0,5	1,640050
7,300167	0,5	1,637700
7,308500	0,5	1,641000
7,316833	0,5	1,646400
7,325167	0,5	1,661250
7,333500	0,5	1,687800
7,341833	0,5	1,722900
7,350167	0,5	1,763150
7,358500	0,5	1,801300
7,366833	0,5	1,823800
7,375167	0,5	1,843250
7,383500	0,5	1,835400
7,391833	0,5	1,812750
7,400167	0,5	1,785250
7,408500	0,5	1,751800
7,416833	0,5	1,730300
7,425167	0,5	1,716600
7,433500	0,5	1,693800
7,441833	0,5	1,682000
7,450167	0,5	1,671500
7,458500	0,5	1,664550
7,466833	0,5	1,655100
7,475167	0,5	1,655300
7,483500	0,5	1,662900
7,491833	0,5	1,678250
7,500167	0,5	1,702650
7,508500	0,5	1,734400
7,516833	0,5	1,764150
7,525167	0,5	1,796550
7,533500	0,5	1,809500
7,541833	0,5	1,820200
7,550167	0,5	1,819400
7,558500	0,5	1,812300
7,566833	0,5	1,800900
7,575167	0,5	1,777900
7,583500	0,5	1,747000
7,591833	0,5	1,719100
7,600167	0,5	1,690550
7,608500	0,5	1,665700
7,616833	0,5	1,643550
7,625167	0,5	1,630250
7,633500	0,5	1,620100
7,641833	0,5	1,612750
7,650167	0,5	1,609300
7,658500	0,5	1,605150
7,666833	0,5	1,602400
7,675167	0,5	1,608900
7,683500	0,5	1,606550
7,691833	0,5	1,607300
7,700167	0,5	1,608750
7,708500	0,5	1,618650
7,716833	0,5	1,630700
7,725167	0,5	1,635950
7,733500	0,5	1,649100
7,741833	0,5	1,658200
7,750167	0,5	1,675050
7,758500	0,5	1,696050
7,766833	0,5	1,712600
7,775167	0,5	1,738000
7,783500	0,5	1,765950
7,791833	0,5	1,802350
7,800167	0,5	1,848350
7,808500	0,5	1,901450
7,816833	0,5	1,974750
7,825167	0,5	2,063450
7,833500	0,5	2,173700
7,841833	0,5	2,311500
7,850167	0,5	2,472100
7,858500	0,5	2,663700
7,866833	0,5	2,886200
7,875167	0,5	3,117300
7,883500	0,5	3,356750
7,891833	0,5	3,590650
7,900167	0,5	3,793900
7,908500	0,5	3,956250
7,916833	0,5	4,050500
7,925167	0,5	4,067050
7,933500	0,5	3,995300
7,941833	0,5	3,854500
7,950167	0,5	3,636400
7,958500	0,5	3,385600
7,966833	0,5	3,118450
7,975167	0,5	2,856650
7,983500	0,5	2,618650
7,991833	0,5	2,419850
8,000167	0,5	2,262350
8,008500	0,5	2,150800
8,016833	0,5	2,076700
8,025167	0,5	2,033850
8,033500	0,5	2,028700
8,041833	0,5	2,053950
8,050167	0,5	2,109900
8,058500	0,5	2,193500
8,066833	0,5	2,299450
8,075167	0,5	2,415800
8,083500	0,5	2,532750
8,091833	0,5	2,636700
8,100167	0,5	2,714250
8,108500	0,5	2,760700
8,116833	0,5	2,760050
8,125167	0,5	2,710200
8,133500	0,5	2,617950
8,141833	0,5	2,503950
8,150167	0,5	2,390050
8,158500	0,5	2,286900
8,166833	0,5	2,202200
8,175167	0,5	2,135450
8,183500	0,5	2,082950
8,191833	0,5	2,041900
8,200167	0,5	2,002450
8,208500	0,5	1,973000
8,216833	0,5	1,946650
8,225167	0,5	1,927550
8,233500	0,5	1,916500
8,241833	0,5	1,910650
8,250167	0,5	1,902700
8,258500	0,5	1,900600
8,266833	0,5	1,893750
8,275167	0,5	1,881300
8,283500	0,5	1,870200
8,291833	0,5	1,854000
8,300167	0,5	1,844650
8,308500	0,5	1,842700
8,316833	0,5	1,847900
8,325167	0,5	1,861600
8,333500	0,5	1,883250
8,341833	0,5	1,910600
8,350167	0,5	1,937250
8,358500	0,5	1,961850
8,366833	0,5	1,982200
8,375167	0,5	1,997300
8,383500	0,5	2,018000
8,391833	0,5	2,043550
8,400167	0,5	2,102800
8,408500	0,5	2,212250
8,416833	0,5	2,378800
8,425167	0,5	2,602950
8,433500	0,5	2,867000
8,441833	0,5	3,133650
8,450167	0,5	3,358700
8,458500	0,5	3,488500
8,466833	0,5	3,504000
8,475167	0,5	3,419100
8,483500	0,5	3,264950
8,491833	0,5	3,094550
8,500167	0,5	2,954800
8,508500	0,5	2,866800
8,516833	0,5	2,856050
8,525167	0,5	2,925650
8,533500	0,5	3,067000
8,541833	0,5	3,271700
8,550167	0,5	3,537700
8,558500	0,5	3,850200
8,566833	0,5	4,204250
8,575167	0,5	4,585250
8,583500	0,5	4,995700
8,591833	0,5	5,423600
8,600167	0,5	5,865450
8,608500	0,5	6,296650
8,616833	0,5	6,705650
8,625167	0,5	7,038650
8,633500	0,5	7,241000
8,641833	0,5	7,254700
8,650167	0,5	7,031100
8,658500	0,5	6,570500
8,666833	0,5	5,902300
8,675167	0,5	5,119600
8,683500	0,5	4,335400
8,691833	0,5	3,631050
8,700167	0,5	3,060750
8,708500	0,5	2,638850
8,716833	0,5	2,344350
8,725167	0,5	2,151850
8,733500	0,5	2,030850
8,741833	0,5	1,956900
8,750167	0,5	1,904500
8,758500	0,5	1,862900
8,766833	0,5	1,823250
8,775167	0,5	1,790050
8,783500	0,5	1,760850
8,791833	0,5	1,732150
8,800167	0,5	1,711700
8,808500	0,5	1,696000
8,816833	0,5	1,684150
8,825167	0,5	1,676700
8,833500	0,5	1,667250
8,841833	0,5	1,656200
8,850167	0,5	1,644800
8,858500	0,5	1,635350
8,866833	0,5	1,621700
8,875167	0,5	1,606100
8,883500	0,5	1,594800
8,891833	0,5	1,584150
8,900167	0,5	1,577300
8,908500	0,5	1,570600
8,916833	0,5	1,564250
8,925167	0,5	1,558950
8,933500	0,5	1,559700
8,941833	0,5	1,558300
8,950167	0,5	1,564300
8,958500	0,5	1,573950
8,966833	0,5	1,598150
8,975167	0,5	1,630750
8,983500	0,5	1,669250
8,991833	0,5	1,715000
9,000167	0,5	1,773900
9,008500	0,5	1,839850
9,016833	0,5	1,902800
9,025167	0,5	1,956750
9,033500	0,5	1,975850
9,041833	0,5	1,965600
9,050167	0,5	1,916200
9,058500	0,5	1,856700
9,066833	0,5	1,801650
9,075167	0,5	1,774150
9,083500	0,5	1,782900
9,091833	0,5	1,823500
9,100167	0,5	1,894450
9,108500	0,5	1,980050
9,116833	0,5	2,067000
9,125167	0,5	2,139600
9,133500	0,5	2,180000
9,141833	0,5	2,189000
9,150167	0,5	2,157800
9,158500	0,5	2,107100
9,166833	0,5	2,032100
9,175167	0,5	1,947050
9,183500	0,5	1,867950
9,191833	0,5	1,796050
9,200167	0,5	1,737950
9,208500	0,5	1,695850
9,216833	0,5	1,673800
9,225167	0,5	1,670350
9,233500	0,5	1,675700
9,241833	0,5	1,692950
9,250167	0,5	1,707900
9,258500	0,5	1,716850
9,266833	0,5	1,713850
9,275167	0,5	1,707000
9,283500	0,5	1,688200
9,291833	0,5	1,665450
9,300167	0,5	1,651150
9,308500	0,5	1,631700
9,316833	0,5	1,621500
9,325167	0,5	1,610700
9,333500	0,5	1,612350
9,341833	0,5	1,628450
9,350167	0,5	1,669150
9,358500	0,5	1,717250
9,366833	0,5	1,771700
9,375167	0,5	1,814150
9,383500	0,5	1,831900
9,391833	0,5	1,813900
9,400167	0,5	1,774800
9,408500	0,5	1,725450
9,416833	0,5	1,674400
9,425167	0,5	1,639000
9,433500	0,5	1,618600
9,441833	0,5	1,616400
9,450167	0,5	1,636000
9,458500	0,5	1,666450
9,466833	0,5	1,703500
9,475167	0,5	1,744900
9,483500	0,5	1,773000
9,491833	0,5	1,787600
9,500167	0,5	1,783600
9,508500	0,5	1,761750
9,516833	0,5	1,735550
9,525167	0,5	1,703950
9,533500	0,5	1,672300
9,541833	0,5	1,645000
9,550167	0,5	1,618700
9,558500	0,5	1,612300
9,566833	0,5	1,618200
9,575167	0,5	1,655850
9,583500	0,5	1,730200
9,591833	0,5	1,870700
9,600167	0,5	2,094700
9,608500	0,5	2,414600
9,616833	0,5	2,797700
9,625167	0,5	3,213700
9,633500	0,5	3,572750
9,641833	0,5	3,796500
9,650167	0,5	3,837050
9,658500	0,5	3,697800
9,666833	0,5	3,426350
9,675167	0,5	3,086650
9,683500	0,5	2,743550
9,691833	0,5	2,437950
9,700167	0,5	2,180900
9,708500	0,5	1,978400
9,716833	0,5	1,817350
9,725167	0,5	1,692950
9,733500	0,5	1,599600
9,741833	0,5	1,529700
9,750167	0,5	1,484050
9,758500	0,5	1,445950
9,766833	0,5	1,422800
9,775167	0,5	1,403950
9,783500	0,5	1,391400
9,791833	0,5	1,383850
9,800167	0,5	1,379450
9,808500	0,5	1,378700
9,816833	0,5	1,386100
9,825167	0,5	1,399650
9,833500	0,5	1,425200
9,841833	0,5	1,467500
9,850167	0,5	1,514000
9,858500	0,5	1,568150
9,866833	0,5	1,608500
9,875167	0,5	1,631400
9,883500	0,5	1,627050
9,891833	0,5	1,601900
9,900167	0,5	1,567150
9,908500	0,5	1,527550
9,916833	0,5	1,489750
9,925167	0,5	1,464150
9,933500	0,5	1,451950
9,941833	0,5	1,453350
9,950167	0,5	1,461250
9,958500	0,5	1,475150
9,966833	0,5	1,487300
9,975167	0,5	1,498850
9,983500	0,5	1,502700
9,991833	0,5	1,512600
10,000167	0,5	1,528550
10,008500	0,5	1,559350
10,016833	0,5	1,609600
10,025167	0,5	1,681000
10,033500	0,5	1,784400
10,041833	0,5	1,933100
10,050167	0,5	2,135350
10,058500	0,5	2,404500
10,066833	0,5	2,727850
10,075167	0,5	3,084750
10,083500	0,5	3,420100
10,091833	0,5	3,700250
10,100167	0,5	3,877900
10,108500	0,5	3,941900
10,116833	0,5	3,900050
10,125167	0,5	3,772550
10,133500	0,5	3,585950
10,141833	0,5	3,372300
10,150167	0,5	3,144150
10,158500	0,5	2,922650
10,166833	0,5	2,723000
10,175167	0,5	2,547750
10,183500	0,5	2,403550
10,191833	0,5	2,283800
10,200167	0,5	2,172100
10,208500	0,5	2,056450
10,216833	0,5	1,940800
10,225167	0,5	1,827850
10,233500	0,5	1,715550
10,241833	0,5	1,623000
10,250167	0,5	1,540600
10,258500	0,5	1,470950
10,266833	0,5	1,415450
10,275167	0,5	1,374200
10,283500	0,5	1,342850
10,291833	0,5	1,324300
10,300167	0,5	1,323550
10,308500	0,5	1,327400
10,316833	0,5	1,342900
10,325167	0,5	1,359450
10,333500	0,5	1,387150
10,341833	0,5	1,413950
10,350167	0,5	1,437850
10,358500	0,5	1,463850
10,366833	0,5	1,497000
10,375167	0,5	1,533850
10,383500	0,5	1,577150
10,391833	0,5	1,622550
10,400167	0,5	1,677950
10,408500	0,5	1,729200
10,416833	0,5	1,778450
10,425167	0,5	1,821400
10,433500	0,5	1,856250
10,441833	0,5	1,875400
10,450167	0,5	1,883400
10,458500	0,5	1,883850
10,466833	0,5	1,866300
10,475167	0,5	1,841450
10,483500	0,5	1,818600
10,491833	0,5	1,797500
10,500167	0,5	1,775500
10,508500	0,5	1,759250
10,516833	0,5	1,739800
10,525167	0,5	1,726350
10,533500	0,5	1,707050
10,541833	0,5	1,687850
10,550167	0,5	1,664700
10,558500	0,5	1,643400
10,566833	0,5	1,624100
10,575167	0,5	1,598700
10,583500	0,5	1,575100
10,591833	0,5	1,557900
10,600167	0,5	1,545600
10,608500	0,5	1,556100
10,616833	0,5	1,585650
10,625167	0,5	1,639050
10,633500	0,5	1,699400
10,641833	0,5	1,740500
10,650167	0,5	1,765900
10,658500	0,5	1,757700
10,666833	0,5	1,719350
10,675167	0,5	1,665250
10,683500	0,5	1,618300
10,691833	0,5	1,594900
10,700167	0,5	1,607000
10,708500	0,5	1,660250
10,716833	0,5	1,769700
10,725167	0,5	1,933350
10,733500	0,5	2,174050
10,741833	0,5	2,565450
10,750167	0,5	3,064950
10,758500	0,5	3,408600
10,766833	0,5	3,396950
10,775167	0,5	3,114250
10,783500	0,5	2,591650
10,791833	0,5	1,917500
10,800167	0,5	1,274700
10,808500	0,5	0,840650
10,816833	0,5	0,596800
10,825167	0,5	0,454650
10,833500	0,5	0,364200
10,841833	0,5	0,301400
10,850167	0,5	0,249600
10,858500	0,5	0,213550
10,866833	0,5	0,176000
10,875167	0,5	0,143700
10,883500	0,5	0,117600
10,891833	0,5	0,100900
10,900167	0,5	0,083100
10,908500	0,5	0,074850
10,916833	0,5	0,069250
10,925167	0,5	0,067950
10,933500	0,5	0,070450
10,941833	0,5	0,071750
10,950167	0,5	0,072950
10,958500	0,5	0,076850
10,966833	0,5	0,082900
10,975167	0,5	0,089450
10,983500	0,5	0,094350
10,991833	0,5	0,092450
11,000167	0,5	0,090400
11,008500	0,5	0,078850
11,016833	0,5	0,061500
11,025167	0,5	0,045750
11,033500	0,5	0,023550
11,041833	0,5	-0,002850
11,050167	0,5	-0,024050
11,058500	0,5	-0,052950
11,066833	0,5	-0,076400
11,075167	0,5	-0,096800
11,083500	0,5	-0,115800
11,091833	0,5	-0,135450
11,100167	0,5	-0,156450
11,108500	0,5	-0,172050
11,116833	0,5	-0,183250
11,125167	0,5	-0,193650
11,133500	0,5	-0,204050
11,141833	0,5	-0,215300
11,150167	0,5	-0,226200
11,158500	0,5	-0,237400
11,166833	0,5	-0,246650
11,175167	0,5	-0,251400
11,183500	0,5	-0,259550
11,191833	0,5	-0,264400
11,200167	0,5	-0,268300
11,208500	0,5	-0,272050
11,216833	0,5	-0,276000
11,225167	0,5	-0,274850
11,233500	0,5	-0,279000
11,241833	0,5	-0,280600
11,250167	0,5	-0,284350
11,258500	0,5	-0,283300
11,266833	0,5	-0,281050
11,275167	0,5	-0,279700
11,283500	0,5	-0,277200
11,291833	0,5	-0,274800
11,300167	0,5	-0,273500
11,308500	0,5	-0,270600
11,316833	0,5	-0,267700
11,325167	0,5	-0,264000
11,333500	0,5	-0,260200
11,341833	0,5	-0,261500
11,350167	0,5	-0,257600
11,358500	0,5	-0,263600
11,366833	0,5	-0,257700
11,375167	0,5	-0,255600
11,383500	0,5	-0,256950
11,391833	0,5	-0,260350
11,400167	0,5	-0,263900
11,408500	0,5	-0,263950
11,416833	0,5	-0,259050
11,425167	0,5	-0,266500
11,433500	0,5	-0,263750
11,441833	0,5	-0,267200
11,450167	0,5	-0,267450
11,458500	0,5	-0,273250
11,466833	0,5	-0,277500
11,475167	0,5	-0,278700
11,483500	0,5	-0,280900
11,491833	0,5	-0,281200
11,500167	0,5	-0,281100
11,508500	0,5	-0,292600
11,516833	0,5	-0,294650
11,525167	0,5	-0,292900
11,533500	0,5	-0,301900
11,541833	0,5	-0,304800
11,550167	0,5	-0,307550
11,558500	0,5	-0,304200
11,566833	0,5	-0,303550
11,575167	0,5	-0,299700
11,583500	0,5	-0,304250
11,591833	0,5	-0,300650
11,600167	0,5	-0,301600
11,608500	0,5	-0,294000
11,616833	0,5	-0,294350
11,625167	0,5	-0,291800
11,633500	0,5	-0,289500
11,641833	0,5	-0,283500
11,650167	0,5	-0,282200
11,658500	0,5	-0,284250
11,666833	0,5	-0,275500
11,675167	0,5	-0,274950
11,683500	0,5	-0,274150
11,691833	0,5	-0,273500
11,700167	0,5	-0,273950
11,708500	0,5	-0,271750
11,716833	0,5	-0,269150
11,725167	0,5	-0,268800
11,733500	0,5	-0,265100
11,741833	0,5	-0,260250
11,750167	0,5	-0,259700
11,758500	0,5	-0,260750
11,766833	0,5	-0,253550
11,775167	0,5	-0,250300
11,783500	0,5	-0,246550
11,791833	0,5	-0,240300
11,800167	0,5	-0,236300
11,808500	0,5	-0,227700
11,816833	0,5	-0,220000
11,825167	0,5	-0,218650
11,833500	0,5	-0,209600
11,841833	0,5	-0,204700
11,850167	0,5	-0,197350
11,858500	0,5	-0,187050
11,866833	0,5	-0,183200
11,875167	0,5	-0,173600
11,883500	0,5	-0,168250
11,891833	0,5	-0,158550
11,900167	0,5	-0,160850
11,908500	0,5	-0,153750
11,916833	0,5	-0,154050
11,925167	0,5	-0,150550
11,933500	0,5	-0,152550
11,941833	0,5	-0,147750
11,950167	0,5	-0,158350
11,958500	0,5	-0,158700
11,966833	0,5	-0,157100
11,975167	0,5	-0,158300
11,983500	0,5	-0,162400
11,991833	0,5	-0,165350
12,000167	0,5	-0,165250
12,008500	0,5	-0,159900
12,016833	0,5	-0,157750
12,025167	0,5	-0,155350
12,033500	0,5	-0,152100
12,041833	0,5	-0,141400
12,050167	0,5	-0,131100
12,058500	0,5	-0,126250
12,066833	0,5	-0,113400
12,075167	0,5	-0,099700
12,083500	0,5	-0,084150
12,091833	0,5	-0,073900
12,100167	0,5	-0,058550
12,108500	0,5	-0,031900
12,116833	0,5	-0,009600
12,125167	0,5	0,006350
12,133500	0,5	0,029650
12,141833	0,5	0,055100
12,150167	0,5	0,085050
12,158500	0,5	0,115350
12,166833	0,5	0,149650
12,175167	0,5	0,179600
12,183500	0,5	0,214500
12,191833	0,5	0,246200
12,200167	0,5	0,282250
12,208500	0,5	0,318150
12,216833	0,5	0,346700
12,225167	0,5	0,379350
12,233500	0,5	0,408750
12,241833	0,5	0,431950
12,250167	0,5	0,456000
12,258500	0,5	0,480350
12,266833	0,5	0,495900
12,275167	0,5	0,513700
12,283500	0,5	0,523450
12,291833	0,5	0,537250
12,300167	0,5	0,552200
12,308500	0,5	0,564300
12,316833	0,5	0,574600
12,325167	0,5	0,587650
12,333500	0,5	0,597650
12,341833	0,5	0,617450
12,350167	0,5	0,629600
12,358500	0,5	0,649000
12,366833	0,5	0,667350
12,375167	0,5	0,688750
12,383500	0,5	0,713250
12,391833	0,5	0,733200
12,400167	0,5	0,760650
12,408500	0,5	0,783000
12,416833	0,5	0,799400
12,425167	0,5	0,809500
12,433500	0,5	0,813800
12,441833	0,5	0,822500
12,450167	0,5	0,825850
12,458500	0,5	0,829250
12,466833	0,5	0,836350
12,475167	0,5	0,832850
12,483500	0,5	0,836350
12,491833	0,5	0,839900
12,500167	0,5	0,840150
12,508500	0,5	0,840650
12,516833	0,5	0,846200
12,525167	0,5	0,856350
12,533500	0,5	0,859700
12,541833	0,5	0,860450
12,550167	0,5	0,867700
12,558500	0,5	0,875950
12,566833	0,5	0,878150
12,575167	0,5	0,883850
12,583500	0,5	0,890900
12,591833	0,5	0,904650
12,600167	0,5	0,916200
12,608500	0,5	0,926400
12,616833	0,5	0,936350
12,625167	0,5	0,949850
12,633500	0,5	0,953800
12,641833	0,5	0,962550
12,650167	0,5	0,966650
12,658500	0,5	0,978350
12,666833	0,5	0,985050
12,675167	0,5	0,995100
12,683500	0,5	0,998250
12,691833	0,5	1,007050
12,700167	0,5	1,020300
12,708500	0,5	1,027150
12,716833	0,5	1,031600
12,725167	0,5	1,034000
12,733500	0,5	1,043250
12,741833	0,5	1,040200
12,750167	0,5	1,042250
12,758500	0,5	1,042150
12,766833	0,5	1,045550
12,775167	0,5	1,043050
12,783500	0,5	1,046050
12,791833	0,5	1,047400
12,800167	0,5	1,050900
12,808500	0,5	1,051150
12,816833	0,5	1,055750
12,825167	0,5	1,058950
12,833500	0,5	1,060100
12,841833	0,5	1,063600
12,850167	0,5	1,072000
12,858500	0,5	1,076550
12,866833	0,5	1,076900
12,875167	0,5	1,076550
12,883500	0,5	1,082400
12,891833	0,5	1,092000
12,900167	0,5	1,097250
12,908500	0,5	1,099450
12,916833	0,5	1,108350
12,925167	0,5	1,114550
12,933500	0,5	1,120200
12,941833	0,5	1,126050
12,950167	0,5	1,127650
12,958500	0,5	1,129950
12,966833	0,5	1,135050
12,975167	0,5	1,135700
12,983500	0,5	1,135150
12,991833	0,5	1,142350
13,000167	0,5	1,137600
13,008500	0,5	1,141200
13,016833	0,5	1,132250
13,025167	0,5	1,130000
13,033500	0,5	1,130050
13,041833	0,5	1,136200
13,050167	0,5	1,133550
13,058500	0,5	1,140800
13,066833	0,5	1,141700
13,075167	0,5	1,141850
13,083500	0,5	1,137800
13,091833	0,5	1,139350
13,100167	0,5	1,139500
13,108500	0,5	1,137000
13,116833	0,5	1,137050
13,125167	0,5	1,132700
13,133500	0,5	1,130500
13,141833	0,5	1,133050
13,150167	0,5	1,130750
13,158500	0,5	1,128650
13,166833	0,5	1,121650
13,175167	0,5	1,116900
13,183500	0,5	1,121000
13,191833	0,5	1,123150
13,200167	0,5	1,125250
13,208500	0,5	1,129650
13,216833	0,5	1,135150
13,225167	0,5	1,135500
13,233500	0,5	1,134300
13,241833	0,5	1,132650
13,250167	0,5	1,129500
13,258500	0,5	1,133750
13,266833	0,5	1,133050
13,275167	0,5	1,126550
13,283500	0,5	1,128750
13,291833	0,5	1,130500
13,300167	0,5	1,123450
13,308500	0,5	1,120750
13,316833	0,5	1,109950
13,325167	0,5	1,108850
13,333500	0,5	1,102700
13,341833	0,5	1,103500
13,350167	0,5	1,103500
13,358500	0,5	1,101850
13,366833	0,5	1,100300
13,375167	0,5	1,101150
13,383500	0,5	1,105150
13,391833	0,5	1,106700
13,400167	0,5	1,111200
13,408500	0,5	1,121450
13,416833	0,5	1,123750
13,425167	0,5	1,122950
13,433500	0,5	1,128850
13,441833	0,5	1,128000
13,450167	0,5	1,125250
13,458500	0,5	1,110000
13,466833	0,5	1,096850
13,475167	0,5	1,091950
13,483500	0,5	1,089900
13,491833	0,5	1,086250
13,500167	0,5	1,087950
13,508500	0,5	1,093100
13,516833	0,5	1,105350
13,525167	0,5	1,115950
13,533500	0,5	1,131800
13,541833	0,5	1,143400
13,550167	0,5	1,147900
13,558500	0,5	1,152050
13,566833	0,5	1,142650
13,575167	0,5	1,132500
13,583500	0,5	1,129450
13,591833	0,5	1,120600
13,600167	0,5	1,103450
13,608500	0,5	1,091700
13,616833	0,5	1,081550
13,625167	0,5	1,081550
13,633500	0,5	1,073450
13,641833	0,5	1,068400
13,650167	0,5	1,059400
13,658500	0,5	1,058950
13,666833	0,5	1,054700
13,675167	0,5	1,061100
13,683500	0,5	1,067650
13,691833	0,5	1,091250
13,700167	0,5	1,115750
13,708500	0,5	1,133650
13,716833	0,5	1,128800
13,725167	0,5	1,128300
13,733500	0,5	1,115800
13,741833	0,5	1,102800
13,750167	0,5	1,081100
13,758500	0,5	1,067400
13,766833	0,5	1,063400
13,775167	0,5	1,063950
13,783500	0,5	1,069650
13,791833	0,5	1,067400
13,800167	0,5	1,075850
13,808500	0,5	1,076750
13,816833	0,5	1,082850
13,825167	0,5	1,095000
13,833500	0,5	1,117200
13,841833	0,5	1,150250
13,850167	0,5	1,186800
13,858500	0,5	1,210800
13,866833	0,5	1,212800
13,875167	0,5	1,206150
13,883500	0,5	1,176900
13,891833	0,5	1,132250
13,900167	0,5	1,088700
13,908500	0,5	1,054800
13,916833	0,5	1,038450
13,925167	0,5	1,033850
13,933500	0,5	1,037150
13,941833	0,5	1,049550
13,950167	0,5	1,065100
13,958500	0,5	1,083450
13,966833	0,5	1,109900
13,975167	0,5	1,141650
13,983500	0,5	1,164450
13,991833	0,5	1,182900
14,000167	0,5	1,186000
14,008500	0,5	1,169300
14,016833	0,5	1,133300
14,025167	0,5	1,098200
14,033500	0,5	1,054600
14,041833	0,5	1,022400
14,050167	0,5	0,992500
14,058500	0,5	0,986900
14,066833	0,5	0,999450
14,075167	0,5	1,028650
14,083500	0,5	1,051800
14,091833	0,5	1,088150
14,100167	0,5	1,107200
14,108500	0,5	1,125000
14,116833	0,5	1,120400
14,125167	0,5	1,100250
14,133500	0,5	1,081650
14,141833	0,5	1,043700
14,150167	0,5	1,010850
14,158500	0,5	0,968500
14,166833	0,5	0,951100
14,175167	0,5	0,941050
14,183500	0,5	0,935050
14,191833	0,5	0,945150
14,200167	0,5	0,955550
14,208500	0,5	0,965050
14,216833	0,5	0,977900
14,225167	0,5	0,976700
14,233500	0,5	0,972400
14,241833	0,5	0,956850
14,250167	0,5	0,938700
14,258500	0,5	0,906900
14,266833	0,5	0,883050
14,275167	0,5	0,866150
14,283500	0,5	0,856500
14,291833	0,5	0,866650
14,300167	0,5	0,877250
14,308500	0,5	0,891600
14,316833	0,5	0,913100
14,325167	0,5	0,933750
14,333500	0,5	0,935700
14,341833	0,5	0,930550
14,350167	0,5	0,913950
14,358500	0,5	0,898200
14,366833	0,5	0,876600
14,375167	0,5	0,853500
14,383500	0,5	0,832850
14,391833	0,5	0,821450
14,400167	0,5	0,808450
14,408500	0,5	0,806250
14,416833	0,5	0,795900
14,425167	0,5	0,797150
14,433500	0,5	0,790800
14,441833	0,5	0,783450
14,450167	0,5	0,768150
14,458500	0,5	0,761300
14,466833	0,5	0,756750
14,475167	0,5	0,749450
14,483500	0,5	0,741150
14,491833	0,5	0,728950
14,500167	0,5	0,723550
14,508500	0,5	0,716800
14,516833	0,5	0,717950
14,525167	0,5	0,706950
14,533500	0,5	0,707200
14,541833	0,5	0,701650
14,550167	0,5	0,700450
14,558500	0,5	0,692200
14,566833	0,5	0,690550
14,575167	0,5	0,685300
14,583500	0,5	0,680650
14,591833	0,5	0,683200
14,600167	0,5	0,673300
14,608500	0,5	0,668450
14,616833	0,5	0,665500
14,625167	0,5	0,655100
14,633500	0,5	0,650200
14,641833	0,5	0,635200
14,650167	0,5	0,632450
14,658500	0,5	0,637500
14,666833	0,5	0,633950
14,675167	0,5	0,637850
14,683500	0,5	0,634800
14,691833	0,5	0,636450
14,700167	0,5	0,630900
14,708500	0,5	0,621700
14,716833	0,5	0,613000
14,725167	0,5	0,609200
14,733500	0,5	0,600400
14,741833	0,5	0,595600
14,750167	0,5	0,582800
14,758500	0,5	0,593250
14,766833	0,5	0,591050
14,775167	0,5	0,595050
14,783500	0,5	0,587550
14,791833	0,5	0,579900
14,800167	0,5	0,581050
14,808500	0,5	0,570700
14,816833	0,5	0,565000
14,825167	0,5	0,558250
14,833500	0,5	0,556350
14,841833	0,5	0,549850
14,850167	0,5	0,553650
14,858500	0,5	0,554700
14,866833	0,5	0,554350
14,875167	0,5	0,552250
14,883500	0,5	0,554600
14,891833	0,5	0,539350
14,900167	0,5	0,539450
14,908500	0,5	0,536350
14,916833	0,5	0,533050
14,925167	0,5	0,530100
14,933500	0,5	0,524350
14,941833	0,5	0,516950
14,950167	0,5	0,520550
14,958500	0,5	0,525650
14,966833	0,5	0,524300
14,975167	0,5	0,522900
14,983500	0,5	0,522200
14,991833	0,5	0,519000
15,000167	0,5	0,516000
15,008500	0,5	0,509700
15,016833	0,5	0,504250
15,025167	0,5	0,501250
15,033500	0,5	0,493250
15,041833	0,5	0,481100
15,050167	0,5	0,480400
15,058500	0,5	0,481550
15,066833	0,5	0,476900
15,075167	0,5	0,475450
15,083500	0,5	0,463900
15,091833	0,5	0,462800
15,100167	0,5	0,462550
15,108500	0,5	0,461350
15,116833	0,5	0,462050
15,125167	0,5	0,459150
15,133500	0,5	0,455050
15,141833	0,5	0,452550
15,150167	0,5	0,456050
15,158500	0,5	0,449650
15,166833	0,5	0,446050
15,175167	0,5	0,448450
15,183500	0,5	0,446150
15,191833	0,5	0,436000
15,200167	0,5	0,441800
15,208500	0,5	0,446300
15,216833	0,5	0,442750
15,225167	0,5	0,438750
15,233500	0,5	0,431200
15,241833	0,5	0,430200
15,250167	0,5	0,429900
15,258500	0,5	0,423850
15,266833	0,5	0,425000
15,275167	0,5	0,423650
15,283500	0,5	0,425650
15,291833	0,5	0,421950
15,300167	0,5	0,421750
15,308500	0,5	0,426250
15,316833	0,5	0,429150
15,325167	0,5	0,440250
15,333500	0,5	0,432950
15,341833	0,5	0,436750
15,350167	0,5	0,447850
15,358500	0,5	0,449600
15,366833	0,5	0,448150
15,375167	0,5	0,444400
15,383500	0,5	0,442550
15,391833	0,5	0,453500
15,400167	0,5	0,448800
15,408500	0,5	0,456150
15,416833	0,5	0,451700
15,425167	0,5	0,455000
15,433500	0,5	0,454850
15,441833	0,5	0,454350
15,450167	0,5	0,450150
15,458500	0,5	0,450650
15,466833	0,5	0,452950
15,475167	0,5	0,456600
15,483500	0,5	0,448650
15,491833	0,5	0,453650
15,500167	0,5	0,460700
15,508500	0,5	0,466050
15,516833	0,5	0,469500
15,525167	0,5	0,459700
15,533500	0,5	0,462950
15,541833	0,5	0,459900
15,550167	0,5	0,465150
15,558500	0,5	0,463050
15,566833	0,5	0,470400
15,575167	0,5	0,476750
15,583500	0,5	0,483900
15,591833	0,5	0,480950
15,600167	0,5	0,476150
15,608500	0,5	0,466950
15,616833	0,5	0,453600
15,625167	0,5	0,443000
15,633500	0,5	0,419250
15,641833	0,5	0,419900
15,650167	0,5	0,407900
15,658500	0,5	0,396800
15,666833	0,5	0,382850
15,675167	0,5	0,367200
15,683500	0,5	0,366650
15,691833	0,5	0,358250
15,700167	0,5	0,350950
15,708500	0,5	0,350300
15,716833	0,5	0,342200
15,725167	0,5	0,343600
15,733500	0,5	0,335800
15,741833	0,5	0,342100
15,750167	0,5	0,332050
15,758500	0,5	0,329200
15,766833	0,5	0,326500
15,775167	0,5	0,325250
15,783500	0,5	0,313550
15,791833	0,5	0,320900
15,800167	0,5	0,313350
15,808500	0,5	0,309200
15,816833	0,5	0,301300
15,825167	0,5	0,288950
15,833500	0,5	0,294050
15,841833	0,5	0,292950
15,850167	0,5	0,293350
15,858500	0,5	0,294400
15,866833	0,5	0,294400
15,875167	0,5	0,294500
15,883500	0,5	0,295200
15,891833	0,5	0,288450
15,900167	0,5	0,294750
15,908500	0,5	0,292800
15,916833	0,5	0,296050
15,925167	0,5	0,285100
15,933500	0,5	0,288300
15,941833	0,5	0,291200
15,950167	0,5	0,285250
15,958500	0,5	0,275000
15,966833	0,5	0,267850
15,975167	0,5	0,255400
15,983500	0,5	0,250900
15,991833	0,5	0,249850
16,000167	0,5	0,252050
16,008500	0,5	0,249400
16,016833	0,5	0,251400
16,025167	0,5	0,259550
16,033500	0,5	0,254250
16,041833	0,5	0,260350
16,050167	0,5	0,261250
16,058500	0,5	0,267100
16,066833	0,5	0,264200
16,075167	0,5	0,267500
16,083500	0,5	0,269250
16,091833	0,5	0,272100
16,100167	0,5	0,265550
16,108500	0,5	0,260300
16,116833	0,5	0,252050
16,125167	0,5	0,248950
16,133500	0,5	0,249150
16,141833	0,5	0,255000
16,150167	0,5	0,257750
16,158500	0,5	0,267300
16,166833	0,5	0,265700
16,175167	0,5	0,260950
16,183500	0,5	0,257600
16,191833	0,5	0,252950
16,200167	0,5	0,255450
16,208500	0,5	0,257050
16,216833	0,5	0,253150
16,225167	0,5	0,259050
16,233500	0,5	0,272150
16,241833	0,5	0,279800
16,250167	0,5	0,278650
16,258500	0,5	0,266250
16,266833	0,5	0,260950
16,275167	0,5	0,263100
16,283500	0,5	0,260500
16,291833	0,5	0,255150
16,300167	0,5	0,258800
16,308500	0,5	0,259700
16,316833	0,5	0,264900
16,325167	0,5	0,269000
16,333500	0,5	0,277750
16,341833	0,5	0,281850
16,350167	0,5	0,283950
16,358500	0,5	0,301850
16,366833	0,5	0,296950
16,375167	0,5	0,317350
16,383500	0,5	0,319750
16,391833	0,5	0,337300
16,400167	0,5	0,339950
16,408500	0,5	0,341650
16,416833	0,5	0,354050
16,425167	0,5	0,377150
16,433500	0,5	0,380000
16,441833	0,5	0,388550
16,450167	0,5	0,385850
16,458500	0,5	0,386450
16,466833	0,5	0,382250
16,475167	0,5	0,376200
16,483500	0,5	0,371050
16,491833	0,5	0,363400
16,500167	0,5	0,365750
16,508500	0,5	0,362550
16,516833	0,5	0,348750
16,525167	0,5	0,358550
16,533500	0,5	0,355850
16,541833	0,5	0,351900
16,550167	0,5	0,347450
16,558500	0,5	0,332200
16,566833	0,5	0,340150
16,575167	0,5	0,337850
16,583500	0,5	0,343200
16,591833	0,5	0,341850
16,600167	0,5	0,351000
16,608500	0,5	0,355650
16,616833	0,5	0,361250
16,625167	0,5	0,362550
16,633500	0,5	0,369000
16,641833	0,5	0,371000
16,650167	0,5	0,372300
16,658500	0,5	0,368900
16,666833	0,5	0,364600
16,675167	0,5	0,365400
16,683500	0,5	0,366150
16,691833	0,5	0,362450
16,700167	0,5	0,355650
16,708500	0,5	0,351200
16,716833	0,5	0,357700
16,725167	0,5	0,366100
16,733500	0,5	0,362800
16,741833	0,5	0,368450
16,750167	0,5	0,364350
16,758500	0,5	0,364900
16,766833	0,5	0,358050
16,775167	0,5	0,349750
16,783500	0,5	0,345400
16,791833	0,5	0,344350
16,800167	0,5	0,342400
16,808500	0,5	0,339800
16,816833	0,5	0,342150
16,825167	0,5	0,346400
16,833500	0,5	0,343100
16,841833	0,5	0,336650
16,850167	0,5	0,326700
16,858500	0,5	0,320950
16,866833	0,5	0,328150
16,875167	0,5	0,322000
16,883500	0,5	0,328650
16,891833	0,5	0,320150
16,900167	0,5	0,321650
16,908500	0,5	0,317750
16,916833	0,5	0,325550
16,925167	0,5	0,314750
16,933500	0,5	0,314750
16,941833	0,5	0,312600
16,950167	0,5	0,310050
16,958500	0,5	0,292650
16,966833	0,5	0,297950
16,975167	0,5	0,292300
16,983500	0,5	0,288400
16,991833	0,5	0,282700
17,000167	0,5	0,279100
17,008500	0,5	0,287400
17,016833	0,5	0,286600
17,025167	0,5	0,289100
17,033500	0,5	0,286900
17,041833	0,5	0,285300
17,050167	0,5	0,276200
17,058500	0,5	0,264300
17,066833	0,5	0,249950
17,075167	0,5	0,233750
17,083500	0,5	0,224500
17,091833	0,5	0,222250
17,100167	0,5	0,202800
17,108500	0,5	0,197450
17,116833	0,5	0,190500
17,125167	0,5	0,188800
17,133500	0,5	0,177600
17,141833	0,5	0,160850
17,150167	0,5	0,154150
17,158500	0,5	0,150450
17,166833	0,5	0,146450
17,175167	0,5	0,144600
17,183500	0,5	0,141500
17,191833	0,5	0,140600
17,200167	0,5	0,137650
17,208500	0,5	0,137450
17,216833	0,5	0,136550
17,225167	0,5	0,131750
17,233500	0,5	0,137650
17,241833	0,5	0,134650
17,250167	0,5	0,121500
17,258500	0,5	0,118350
17,266833	0,5	0,118200
17,275167	0,5	0,110300
17,283500	0,5	0,105850
17,291833	0,5	0,086000
17,300167	0,5	0,085050
17,308500	0,5	0,085650
17,316833	0,5	0,085150
17,325167	0,5	0,078100
17,333500	0,5	0,081700
17,341833	0,5	0,075200
17,350167	0,5	0,076550
17,358500	0,5	0,068400
17,366833	0,5	0,064750
17,375167	0,5	0,063900
17,383500	0,5	0,064600
17,391833	0,5	0,065100
17,400167	0,5	0,049900
17,408500	0,5	0,060800
17,416833	0,5	0,057750
17,425167	0,5	0,055650
17,433500	0,5	0,042500
17,441833	0,5	0,034400
17,450167	0,5	0,038450
17,458500	0,5	0,041950
17,466833	0,5	0,028050
17,475167	0,5	0,029400
17,483500	0,5	0,026350
17,491833	0,5	0,024550
17,500167	0,5	0,020950
17,508500	0,5	0,018800
17,516833	0,5	0,015600
17,525167	0,5	0,013950
17,533500	0,5	0,014900
17,541833	0,5	0,008600
17,550167	0,5	-0,003850
17,558500	0,5	0,001600
17,566833	0,5	-0,008350
17,575167	0,5	-0,017800
17,583500	0,5	-0,024700
17,591833	0,5	-0,040600
17,600167	0,5	-0,031850
17,608500	0,5	-0,041550
17,616833	0,5	-0,044500
17,625167	0,5	-0,049500
17,633500	0,5	-0,047850
17,641833	0,5	-0,050950
17,650167	0,5	-0,051850
17,658500	0,5	-0,060350
17,666833	0,5	-0,061250
17,675167	0,5	-0,063450
17,683500	0,5	-0,061300
17,691833	0,5	-0,075600
17,700167	0,5	-0,069200
17,708500	0,5	-0,068100
17,716833	0,5	-0,071100
17,725167	0,5	-0,081100
17,733500	0,5	-0,093200
17,741833	0,5	-0,099000
17,750167	0,5	-0,099550
17,758500	0,5	-0,097700
17,766833	0,5	-0,102550
17,775167	0,5	-0,096100
17,783500	0,5	-0,101650
17,791833	0,5	-0,102100
17,800167	0,5	-0,103100
17,808500	0,5	-0,101900
17,816833	0,5	-0,104800
17,825167	0,5	-0,102300
17,833500	0,5	-0,105350
17,841833	0,5	-0,108050
17,850167	0,5	-0,095250
17,858500	0,5	-0,096850
17,866833	0,5	-0,099700
17,875167	0,5	-0,107000
17,883500	0,5	-0,108750
17,891833	0,5	-0,104500
17,900167	0,5	-0,090800
17,908500	0,5	-0,090150
17,916833	0,5	-0,078400
17,925167	0,5	-0,070450
17,933500	0,5	-0,059050
17,941833	0,5	-0,053000
17,950167	0,5	-0,040100
17,958500	0,5	-0,036950
17,966833	0,5	-0,026550
17,975167	0,5	-0,018300
17,983500	0,5	-0,015900
17,991833	0,5	-0,010000
18,000167	0,5	0,002400
18,008500	0,5	0,007650
18,016833	0,5	0,003850
18,025167	0,5	-0,003250
18,033500	0,5	-0,006550
18,041833	0,5	-0,002400
18,050167	0,5	-0,005800
18,058500	0,5	-0,004750
18,066833	0,5	-0,007650
18,075167	0,5	-0,002300
18,083500	0,5	-0,006850
18,091833	0,5	-0,005100
18,100167	0,5	-0,011200
18,108500	0,5	-0,013150
18,116833	0,5	-0,008300
18,125167	0,5	-0,005250
18,133500	0,5	-0,015550
18,141833	0,5	-0,002000
18,150167	0,5	0,001650
18,158500	0,5	-0,000600
18,166833	0,5	-0,000600
18,175167	0,5	-0,015400
18,183500	0,5	-0,014000
18,191833	0,5	-0,015050
18,200167	0,5	-0,021750
18,208500	0,5	-0,033600
18,216833	0,5	-0,042450
18,225167	0,5	-0,060350
18,233500	0,5	-0,067800
18,241833	0,5	-0,083550
18,250167	0,5	-0,097050
18,258500	0,5	-0,112200
18,266833	0,5	-0,117850
18,275167	0,5	-0,135650
18,283500	0,5	-0,148500
18,291833	0,5	-0,148950
18,300167	0,5	-0,151250
18,308500	0,5	-0,163700
18,316833	0,5	-0,178200
18,325167	0,5	-0,193350
18,333500	0,5	-0,192250
18,341833	0,5	-0,195200
18,350167	0,5	-0,205550
18,358500	0,5	-0,207900
18,366833	0,5	-0,207250
18,375167	0,5	-0,206700
18,383500	0,5	-0,211700
18,391833	0,5	-0,214100
18,400167	0,5	-0,223600
18,408500	0,5	-0,221450
18,416833	0,5	-0,220850
18,425167	0,5	-0,231400
18,433500	0,5	-0,233300
18,441833	0,5	-0,223900
18,450167	0,5	-0,229550
18,458500	0,5	-0,235250
18,466833	0,5	-0,250550
18,475167	0,5	-0,248450
18,483500	0,5	-0,246250
18,491833	0,5	-0,246050
18,500167	0,5	-0,248650
18,508500	0,5	-0,250550
18,516833	0,5	-0,254250
18,525167	0,5	-0,253850
18,533500	0,5	-0,249900
18,541833	0,5	-0,256450
18,550167	0,5	-0,260050
18,558500	0,5	-0,259500
18,566833	0,5	-0,246700
18,575167	0,5	-0,264550
18,583500	0,5	-0,253700
18,591833	0,5	-0,256550
18,600167	0,5	-0,255100
18,608500	0,5	-0,265850
18,616833	0,5	-0,281750
18,625167	0,5	-0,274400
18,633500	0,5	-0,270600
18,641833	0,5	-0,277250
18,650167	0,5	-0,276800
18,658500	0,5	-0,275000
18,666833	0,5	-0,275250
18,675167	0,5	-0,271800
18,683500	0,5	-0,277550
18,691833	0,5	-0,273350
18,700167	0,5	-0,277250
18,708500	0,5	-0,271900
18,716833	0,5	-0,274750
18,725167	0,5	-0,281400
18,733500	0,5	-0,277450
18,741833	0,5	-0,282900
18,750167	0,5	-0,291150
18,758500	0,5	-0,298850
18,766833	0,5	-0,315750
18,775167	0,5	-0,308600
18,783500	0,5	-0,311000
18,791833	0,5	-0,306600
18,800167	0,5	-0,312200
18,808500	0,5	-0,308700
18,816833	0,5	-0,314550
18,825167	0,5	-0,316250
18,833500	0,5	-0,316100
18,841833	0,5	-0,325550
18,850167	0,5	-0,315150
18,858500	0,5	-0,315000
18,866833	0,5	-0,324700
18,875167	0,5	-0,323200
18,883500	0,5	-0,319200
18,891833	0,5	-0,327250
18,900167	0,5	-0,331000
18,908500	0,5	-0,347200
18,916833	0,5	-0,351600
18,925167	0,5	-0,354100
18,933500	0,5	-0,349800
18,941833	0,5	-0,357600
18,950167	0,5	-0,350300
18,958500	0,5	-0,353550
18,966833	0,5	-0,345650
18,975167	0,5	-0,343900
18,983500	0,5	-0,345350
18,991833	0,5	-0,343950
19,000167	0,5	-0,343000
19,008500	0,5	-0,346450
19,016833	0,5	-0,355350
19,025167	0,5	-0,356200
19,033500	0,5	-0,358450
19,041833	0,5	-0,367600
19,050167	0,5	-0,378800
19,058500	0,5	-0,384050
19,066833	0,5	-0,393550
19,075167	0,5	-0,385900
19,083500	0,5	-0,399600
19,091833	0,5	-0,393550
19,100167	0,5	-0,395900
19,108500	0,5	-0,394600
19,116833	0,5	-0,397550
19,125167	0,5	-0,399350
19,133500	0,5	-0,401450
19,141833	0,5	-0,405100
19,150167	0,5	-0,399500
19,158500	0,5	-0,408650
19,166833	0,5	-0,409250
19,175167	0,5	-0,402300
19,183500	0,5	-0,402750
19,191833	0,5	-0,407100
19,200167	0,5	-0,419900
19,208500	0,5	-0,426450
19,216833	0,5	-0,413600
19,225167	0,5	-0,425600
19,233500	0,5	-0,428850
19,241833	0,5	-0,432050
19,250167	0,5	-0,427900
19,258500	0,5	-0,429850
19,266833	0,5	-0,424300
19,275167	0,5	-0,427100
19,283500	0,5	-0,426250
19,291833	0,5	-0,419700
19,300167	0,5	-0,414600
19,308500	0,5	-0,430750
19,316833	0,5	-0,418650
19,325167	0,5	-0,417250
19,333500	0,5	-0,424700
19,341833	0,5	-0,427150
19,350167	0,5	-0,444750
19,358500	0,5	-0,437750
19,366833	0,5	-0,445100
19,375167	0,5	-0,437550
19,383500	0,5	-0,439750
19,391833	0,5	-0,438300
19,400167	0,5	-0,440200
19,408500	0,5	-0,433500
19,416833	0,5	-0,434500
19,425167	0,5	-0,434600
19,433500	0,5	-0,439500
19,441833	0,5	-0,429700
19,450167	0,5	-0,431150
19,458500	0,5	-0,436400
19,466833	0,5	-0,424600
19,475167	0,5	-0,422700
19,483500	0,5	-0,427450
19,491833	0,5	-0,436100
19,500167	0,5	-0,445850
19,508500	0,5	-0,443300
19,516833	0,5	-0,438850
19,525167	0,5	-0,442250
19,533500	0,5	-0,449050
19,541833	0,5	-0,450700
19,550167	0,5	-0,447600
19,558500	0,5	-0,452900
19,566833	0,5	-0,449700
19,575167	0,5	-0,451150
19,583500	0,5	-0,448450
19,591833	0,5	-0,445750
19,600167	0,5	-0,442700
19,608500	0,5	-0,446650
19,616833	0,5	-0,438600
19,625167	0,5	-0,444150
19,633500	0,5	-0,452850
19,641833	0,5	-0,459350
19,650167	0,5	-0,469250
19,658500	0,5	-0,456950
19,666833	0,5	-0,462700
19,675167	0,5	-0,458750
19,683500	0,5	-0,461150
19,691833	0,5	-0,459500
19,700167	0,5	-0,459550
19,708500	0,5	-0,457200
19,716833	0,5	-0,462650
19,725167	0,5	-0,462300
19,733500	0,5	-0,453950
19,741833	0,5	-0,450650
19,750167	0,5	-0,459150
19,758500	0,5	-0,451500
19,766833	0,5	-0,453350
19,775167	0,5	-0,451150
19,783500	0,5	-0,463000
19,791833	0,5	-0,477150
19,800167	0,5	-0,477500
19,808500	0,5	-0,475600
19,816833	0,5	-0,465700
19,825167	0,5	-0,471750
19,833500	0,5	-0,469050
19,841833	0,5	-0,471600
19,850167	0,5	-0,463600
19,858500	0,5	-0,463000
19,866833	0,5	-0,466050
19,875167	0,5	-0,464700
19,883500	0,5	-0,457750
19,891833	0,5	-0,461800
19,900167	0,5	-0,459500
19,908500	0,5	-0,455850
19,916833	0,5	-0,457750
19,925167	0,5	-0,464550
19,933500	0,5	-0,472850
19,941833	0,5	-0,478500
19,950167	0,5	-0,475200
19,958500	0,5	-0,471850
19,966833	0,5	-0,471350
19,975167	0,5	-0,463450
19,983500	0,5	-0,460550
19,991833	0,5	-0,460550
20,000167	0,5	-0,458500
20,008500	0,5	-0,449900
20,016833	0,5	-0,453200
20,025167	0,5	-0,448700
20,033500	0,5	-0,445600
20,041833	0,5	-0,450100
20,050167	0,5	-0,446250
20,058500	0,5	-0,435150
20,066833	0,5	-0,438550
20,075167	0,5	-0,437900
20,083500	0,5	-0,453550
20,091833	0,5	-0,454200
20,100167	0,5	-0,450200
20,108500	0,5	-0,449400
20,116833	0,5	-0,455600
20,125167	0,5	-0,451950
20,133500	0,5	-0,449000
20,141833	0,5	-0,450250
20,150167	0,5	-0,449200
20,158500	0,5	-0,453850
20,166833	0,5	-0,454450
20,175167	0,5	-0,450400
20,183500	0,5	-0,448850
20,191833	0,5	-0,461950
20,200167	0,5	-0,449500
20,208500	0,5	-0,450900
20,216833	0,5	-0,458100
20,225167	0,5	-0,464100
20,233500	0,5	-0,469000
20,241833	0,5	-0,462550
20,250167	0,5	-0,462550
20,258500	0,5	-0,465100
20,266833	0,5	-0,466900
20,275167	0,5	-0,470050
20,283500	0,5	-0,470500
20,291833	0,5	-0,471100
20,300167	0,5	-0,474150
20,308500	0,5	-0,472500
20,316833	0,5	-0,476400
20,325167	0,5	-0,466300
20,333500	0,5	-0,474650
20,341833	0,5	-0,477700
20,350167	0,5	-0,476750
20,358500	0,5	-0,473850
20,366833	0,5	-0,483400
20,375167	0,5	-0,497250
20,383500	0,5	-0,496550
20,391833	0,5	-0,489350
20,400167	0,5	-0,495700
20,408500	0,5	-0,493350
20,416833	0,5	-0,499950
20,425167	0,5	-0,496600
20,433500	0,5	-0,493800
20,441833	0,5	-0,493650
20,450167	0,5	-0,492150
20,458500	0,5	-0,491950
20,466833	0,5	-0,479250
20,475167	0,5	-0,470700
20,483500	0,5	-0,482750
20,491833	0,5	-0,476950
20,500167	0,5	-0,475250
20,508500	0,5	-0,482500
20,516833	0,5	-0,488700
20,525167	0,5	-0,501350
20,533500	0,5	-0,493400
20,541833	0,5	-0,489600
20,550167	0,5	-0,484850
20,558500	0,5	-0,485300
20,566833	0,5	-0,482200
20,575167	0,5	-0,486350
20,583500	0,5	-0,478550
20,591833	0,5	-0,476950
20,600167	0,5	-0,475850
20,608500	0,5	-0,469800
20,616833	0,5	-0,451850
20,625167	0,5	-0,448550
20,633500	0,5	-0,455300
20,641833	0,5	-0,451150
20,650167	0,5	-0,456350
20,658500	0,5	-0,454200
20,666833	0,5	-0,468500
20,675167	0,5	-0,477700
20,683500	0,5	-0,472800
20,691833	0,5	-0,465600
20,700167	0,5	-0,467800
20,708500	0,5	-0,467950
20,716833	0,5	-0,465100
20,725167	0,5	-0,459250
20,733500	0,5	-0,452400
20,741833	0,5	-0,448500
20,750167	0,5	-0,444050
20,758500	0,5	-0,430850
20,766833	0,5	-0,417650
20,775167	0,5	-0,413300
20,783500	0,5	-0,416050
20,791833	0,5	-0,411400
20,800167	0,5	-0,411400
20,808500	0,5	-0,425350
20,816833	0,5	-0,430600
20,825167	0,5	-0,429750
20,833500	0,5	-0,421900
20,841833	0,5	-0,424500
20,850167	0,5	-0,409600
20,858500	0,5	-0,404250
20,866833	0,5	-0,393900
20,875167	0,5	-0,391400
20,883500	0,5	-0,382600
20,891833	0,5	-0,378200
20,900167	0,5	-0,373050
20,908500	0,5	-0,350350
20,916833	0,5	-0,336000
20,925167	0,5	-0,336850
20,933500	0,5	-0,333000
20,941833	0,5	-0,330750
20,950167	0,5	-0,338700
20,958500	0,5	-0,344050
20,966833	0,5	-0,349450
20,975167	0,5	-0,343650
20,983500	0,5	-0,341550
20,991833	0,5	-0,334850
21,000167	0,5	-0,335050
21,008500	0,5	-0,326000
21,016833	0,5	-0,325850
21,025167	0,5	-0,310800
21,033500	0,5	-0,305850
21,041833	0,5	-0,297900
21,050167	0,5	-0,281350
21,058500	0,5	-0,259950
21,066833	0,5	-0,248250
21,075167	0,5	-0,245350
21,083500	0,5	-0,239150
21,091833	0,5	-0,242400
21,100167	0,5	-0,246900
21,108500	0,5	-0,266350
21,116833	0,5	-0,253250
21,125167	0,5	-0,249650
21,133500	0,5	-0,239550
21,141833	0,5	-0,235550
21,150167	0,5	-0,228600
21,158500	0,5	-0,227550
21,166833	0,5	-0,220850
21,175167	0,5	-0,210400
21,183500	0,5	-0,205900
21,191833	0,5	-0,202300
21,200167	0,5	-0,175750
21,208500	0,5	-0,159850
21,216833	0,5	-0,158550
21,225167	0,5	-0,156000
21,233500	0,5	-0,154450
21,241833	0,5	-0,156900
21,250167	0,5	-0,157600
21,258500	0,5	-0,158200
21,266833	0,5	-0,145550
21,275167	0,5	-0,131750
21,283500	0,5	-0,124750
21,291833	0,5	-0,107850
21,300167	0,5	-0,099100
21,308500	0,5	-0,077600
21,316833	0,5	-0,060400
21,325167	0,5	-0,031500
21,333500	0,5	-0,000850
21,341833	0,5	0,033650
21,350167	0,5	0,070000
21,358500	0,5	0,093500
21,366833	0,5	0,080500
21,375167	0,5	0,079300
21,383500	0,5	0,075000
21,391833	0,5	0,061300
21,400167	0,5	0,042650
21,408500	0,5	0,047400
21,416833	0,5	0,067700
21,425167	0,5	0,073100
21,433500	0,5	0,086350
21,441833	0,5	0,091100
21,450167	0,5	0,099300
21,458500	0,5	0,105150
21,466833	0,5	0,109500
21,475167	0,5	0,110600
21,483500	0,5	0,111800
21,491833	0,5	0,138650
21,500167	0,5	0,150700
21,508500	0,5	0,153400
21,516833	0,5	0,160450
21,525167	0,5	0,164850
21,533500	0,5	0,169300
21,541833	0,5	0,174800
21,550167	0,5	0,174350
21,558500	0,5	0,195250
21,566833	0,5	0,204050
21,575167	0,5	0,226200
21,583500	0,5	0,230600
21,591833	0,5	0,244450
21,600167	0,5	0,247600
21,608500	0,5	0,263450
21,616833	0,5	0,277400
21,625167	0,5	0,287250
21,633500	0,5	0,310700
21,641833	0,5	0,342000
21,650167	0,5	0,358850
21,658500	0,5	0,370650
21,666833	0,5	0,383300
21,675167	0,5	0,383350
21,683500	0,5	0,393800
21,691833	0,5	0,393500
21,700167	0,5	0,401400
21,708500	0,5	0,418800
21,716833	0,5	0,440850
21,725167	0,5	0,454150
21,733500	0,5	0,478000
21,741833	0,5	0,492550
21,750167	0,5	0,513050
21,758500	0,5	0,524800
21,766833	0,5	0,540550
21,775167	0,5	0,559250
21,783500	0,5	0,584850
21,791833	0,5	0,608950
21,800167	0,5	0,622300
21,808500	0,5	0,639450
21,816833	0,5	0,654850
21,825167	0,5	0,676950
21,833500	0,5	0,682800
21,841833	0,5	0,700950
21,850167	0,5	0,720950
21,858500	0,5	0,757200
21,866833	0,5	0,778650
21,875167	0,5	0,812600
21,883500	0,5	0,841700
21,891833	0,5	0,868300
21,900167	0,5	0,897200
21,908500	0,5	0,922450
21,916833	0,5	0,941300
21,925167	0,5	0,960450
21,933500	0,5	0,997500
21,941833	0,5	1,011250
21,950167	0,5	1,018550
21,958500	0,5	1,037600
21,966833	0,5	1,048750
21,975167	0,5	1,057450
21,983500	0,5	1,062600
21,991833	0,5	1,073000
22,000167	0,5	1,103500
22,008500	0,5	1,125250
22,016833	0,5	1,153050
22,025167	0,5	1,178350
22,033500	0,5	1,202600
22,041833	0,5	1,226650
22,050167	0,5	1,257250
22,058500	0,5	1,282200
22,066833	0,5	1,304650
22,075167	0,5	1,340700
22,083500	0,5	1,370450
22,091833	0,5	1,394650
22,100167	0,5	1,436550
22,108500	0,5	1,469550
22,116833	0,5	1,498050
22,125167	0,5	1,531050
22,133500	0,5	1,550950
22,141833	0,5	1,591150
22,150167	0,5	1,615950
22,158500	0,5	1,650250
22,166833	0,5	1,670500
22,175167	0,5	1,710350
22,183500	0,5	1,737900
22,191833	0,5	1,781550
22,200167	0,5	1,816000
22,208500	0,5	1,851350
22,216833	0,5	1,889950
22,225167	0,5	1,924200
22,233500	0,5	1,953500
22,241833	0,5	2,007450
22,250167	0,5	2,059150
22,258500	0,5	2,106950
22,266833	0,5	2,152450
22,275167	0,5	2,187750
22,283500	0,5	2,234000
22,291833	0,5	2,285800
22,300167	0,5	2,337450
22,308500	0,5	2,375700
22,316833	0,5	2,416600
22,325167	0,5	2,451900
22,333500	0,5	2,498250
22,341833	0,5	2,539250
22,350167	0,5	2,580550
22,358500	0,5	2,629450
22,366833	0,5	2,662350
22,375167	0,5	2,713600
22,383500	0,5	2,755950
22,391833	0,5	2,834100
22,400167	0,5	2,886700
22,408500	0,5	2,945250
22,416833	0,5	2,996200
22,425167	0,5	3,042950
22,433500	0,5	3,102000
22,441833	0,5	3,168650
22,450167	0,5	3,222150
22,458500	0,5	3,286850
22,466833	0,5	3,339550
22,475167	0,5	3,396900
22,483500	0,5	3,449350
22,491833	0,5	3,509700
22,500167	0,5	3,559000
22,508500	0,5	3,607350
22,516833	0,5	3,634150
22,525167	0,5	3,689450
22,533500	0,5	3,746550
22,541833	0,5	3,808900
22,550167	0,5	3,849600
22,558500	0,5	3,883250
22,566833	0,5	3,913250
22,575167	0,5	3,928800
22,583500	0,5	3,973600
22,591833	0,5	4,000350
22,600167	0,5	4,032500
22,608500	0,5	4,045650
22,616833	0,5	4,075950
22,625167	0,5	4,081550
22,633500	0,5	4,095250
22,641833	0,5	4,096850
22,650167	0,5	4,091700
22,658500	0,5	4,055650
22,666833	0,5	4,015100
22,675167	0,5	4,005200
22,683500	0,5	3,987750
22,691833	0,5	3,943600
22,700167	0,5	3,882900
22,708500	0,5	3,809650
22,716833	0,5	3,723400
22,725167	0,5	3,638400
22,733500	0,5	3,548650
22,741833	0,5	3,469400
22,750167	0,5	3,364550
22,758500	0,5	3,265750
22,766833	0,5	3,160800
22,775167	0,5	3,057700
22,783500	0,5	2,943050
22,791833	0,5	2,826700
22,800167	0,5	2,705600
22,808500	0,5	2,546600
22,816833	0,5	2,417600
22,825167	0,5	2,303350
22,833500	0,5	2,167800
22,841833	0,5	2,021650
22,850167	0,5	1,871250
22,858500	0,5	1,736850
22,866833	0,5	1,591650
22,875167	0,5	1,448200
22,883500	0,5	1,302600
22,891833	0,5	1,173100
22,900167	0,5	1,038850
22,908500	0,5	0,917350
22,916833	0,5	0,789350
22,925167	0,5	0,668700
22,933500	0,5	0,548100
22,941833	0,5	0,432150
22,950167	0,5	0,332150
22,958500	0,5	0,209850
22,966833	0,5	0,102500
22,975167	0,5	-0,029450
22,983500	0,5	-0,160200
22,991833	0,5	-0,256800
23,000167	0,5	-0,355650
23,008500	0,5	-0,441650
23,016833	0,5	-0,537450
23,025167	0,5	-0,633050
23,033500	0,5	-0,706600
23,041833	0,5	-0,785650
23,050167	0,5	-0,848050
23,058500	0,5	-0,921650
23,066833	0,5	-0,983350
23,075167	0,5	-1,048600
23,083500	0,5	-1,103000
23,091833	0,5	-1,158200
23,100167	0,5	-1,181200
23,108500	0,5	-1,240350
23,116833	0,5	-1,289900
23,125167	0,5	-1,379600
23,133500	0,5	-1,431600
23,141833	0,5	-1,469600
23,150167	0,5	-1,501450
23,158500	0,5	-1,527900
23,166833	0,5	-1,571550
23,175167	0,5	-1,593550
23,183500	0,5	-1,618000
23,191833	0,5	-1,630300
23,200167	0,5	-1,649450
23,208500	0,5	-1,657450
23,216833	0,5	-1,675950
23,225167	0,5	-1,682600
23,233500	0,5	-1,690950
23,241833	0,5	-1,691000
23,250167	0,5	-1,713050
23,258500	0,5	-1,702450
23,266833	0,5	-1,699050
23,275167	0,5	-1,742150
23,283500	0,5	-1,759750
23,291833	0,5	-1,763300
23,300167	0,5	-1,761750
23,308500	0,5	-1,761950
23,316833	0,5	-1,765100
23,325167	0,5	-1,765650
23,333500	0,5	-1,759250
23,341833	0,5	-1,750950
23,350167	0,5	-1,741050
23,358500	0,5	-1,730300
23,366833	0,5	-1,719500
23,375167	0,5	-1,711500
23,383500	0,5	-1,700800
23,391833	0,5	-1,685000
23,400167	0,5	-1,703850
23,408500	0,5	-1,662800
23,416833	0,5	-1,639150
23,425167	0,5	-1,648200
23,433500	0,5	-1,647350
23,441833	0,5	-1,640450
23,450167	0,5	-1,629150
23,458500	0,5	-1,622050
23,466833	0,5	-1,618650
23,475167	0,5	-1,607650
23,483500	0,5	-1,598900
23,491833	0,5	-1,585650
23,500167	0,5	-1,573700
23,508500	0,5	-1,558550
23,516833	0,5	-1,548200
23,525167	0,5	-1,527750
23,533500	0,5	-1,515000
23,541833	0,5	-1,585000
23,550167	0,5	-1,536600
23,558500	0,5	-1,508150
23,566833	0,5	-1,458700
23,575167	0,5	-1,448300
23,583500	0,5	-1,441200
23,591833	0,5	-1,427750
23,600167	0,5	-1,418000
23,608500	0,5	-1,404250
23,616833	0,5	-1,393200
23,625167	0,5	-1,380150
23,633500	0,5	-1,367500
23,641833	0,5	-1,354300
23,650167	0,5	-1,342600
23,658500	0,5	-1,330750
23,666833	0,5	-1,315250
23,675167	0,5	-1,300950
23,683500	0,5	-1,297350
23,691833	0,5	-1,386650
23,700167	0,5	-1,342200
23,708500	0,5	-1,284500
23,716833	0,5	-1,245850
23,725167	0,5	-1,229850
23,733500	0,5	-1,220050
23,741833	0,5	-1,210450
23,750167	0,5	-1,200450
23,758500	0,5	-1,183750
23,766833	0,5	-1,165150
23,775167	0,5	-1,146500
23,783500	0,5	-1,132300
23,791833	0,5	-1,113250
23,800167	0,5	-1,099150
23,808500	0,5	-1,080500
23,816833	0,5	-1,062450
23,825167	0,5	-1,051850
23,833500	0,5	-1,102950
23,841833	0,5	-1,135650
23,850167	0,5	-1,095500
23,858500	0,5	-1,041850
23,866833	0,5	-0,998800
23,875167	0,5	-0,984700
23,883500	0,5	-0,970850
23,891833	0,5	-0,968550
23,900167	0,5	-0,957700
23,908500	0,5	-0,948050
23,916833	0,5	-0,925300
23,925167	0,5	-0,916150
23,933500	0,5	-0,896000
23,941833	0,5	-0,878850
23,950167	0,5	-0,858750
23,958500	0,5	-0,842000
23,966833	0,5	-0,825850
23,975167	0,5	-0,811750
23,983500	0,5	-0,908550
23,991833	0,5	-0,873700
24,000167	0,5	-0,843100
24,008500	0,5	-0,783600
24,016833	0,5	-0,749500
24,025167	0,5	-0,739200
24,033500	0,5	-0,726700
24,041833	0,5	-0,724550
24,050167	0,5	-0,712400
24,058500	0,5	-0,691100
24,066833	0,5	-0,677650
24,075167	0,5	-0,661500
24,083500	0,5	-0,652000
24,091833	0,5	-0,633550
24,100167	0,5	-0,623300
24,108500	0,5	-0,605000
24,116833	0,5	-0,598000
24,125167	0,5	-0,611600
24,133500	0,5	-0,666700
24,141833	0,5	-0,636000
24,150167	0,5	-0,606300
24,158500	0,5	-0,558050
24,166833	0,5	-0,534250
24,175167	0,5	-0,523350
24,183500	0,5	-0,515250
24,191833	0,5	-0,510600
24,200167	0,5	-0,484600
24,208500	0,5	-0,478200
24,216833	0,5	-0,462200
24,225167	0,5	-0,457750
24,233500	0,5	-0,436000
24,241833	0,5	-0,425450
24,250167	0,5	-0,405150
24,258500	0,5	-0,393250
24,266833	0,5	-0,383950
24,275167	0,5	-0,440400
24,283500	0,5	-0,436450
24,291833	0,5	-0,423700
24,300167	0,5	-0,383850
24,308500	0,5	-0,356050
24,316833	0,5	-0,342100
24,325167	0,5	-0,341600
24,333500	0,5	-0,339400
24,341833	0,5	-0,329000
24,350167	0,5	-0,318450
24,358500	0,5	-0,303550
24,366833	0,5	-0,292850
24,375167	0,5	-0,278350
24,383500	0,5	-0,270200
24,391833	0,5	-0,254350
24,400167	0,5	-0,244650
24,408500	0,5	-0,230000
24,416833	0,5	-0,232600
24,425167	0,5	-0,285800
24,433500	0,5	-0,257800
24,441833	0,5	-0,246850
24,450167	0,5	-0,217950
24,458500	0,5	-0,196800
24,466833	0,5	-0,187700
24,475167	0,5	-0,181850
24,483500	0,5	-0,188550
24,491833	0,5	-0,182700
24,500167	0,5	-0,172250
24,508500	0,5	-0,165300
24,516833	0,5	-0,164300
24,525167	0,5	-0,153850
24,533500	0,5	-0,141800
24,541833	0,5	-0,134850
24,550167	0,5	-0,122150
24,558500	0,5	-0,116800
24,566833	0,5	-0,116400
24,575167	0,5	-0,153800
24,583500	0,5	-0,125700
24,591833	0,5	-0,117150
24,600167	0,5	-0,089200
24,608500	0,5	-0,084050
24,616833	0,5	-0,078050
24,625167	0,5	-0,076450
24,633500	0,5	-0,078200
24,641833	0,5	-0,071550
24,650167	0,5	-0,063650
24,658500	0,5	-0,058750
24,666833	0,5	-0,050800
24,675167	0,5	-0,045000
24,683500	0,5	-0,040500
24,691833	0,5	-0,035250
24,700167	0,5	-0,033850
24,708500	0,5	-0,027700
24,716833	0,5	-0,050400
24,725167	0,5	-0,045100
24,733500	0,5	-0,038500
24,741833	0,5	-0,022650
24,750167	0,5	-0,006000
24,758500	0,5	0,002600
24,766833	0,5	0,001150
24,775167	0,5	0,001500
24,783500	0,5	0,001100
24,791833	0,5	0,011500
24,800167	0,5	0,006750
24,808500	0,5	0,015300
24,816833	0,5	0,022500
24,825167	0,5	0,025950
24,833500	0,5	0,032100
24,841833	0,5	0,036250
24,850167	0,5	0,041150
24,858500	0,5	0,043700
24,866833	0,5	0,031650
24,875167	0,5	0,032650
24,883500	0,5	0,034800
24,891833	0,5	0,048400
24,900167	0,5	0,054850
24,908500	0,5	0,054850
24,916833	0,5	0,058250
24,925167	0,5	0,054600
24,933500	0,5	0,058750
24,941833	0,5	0,063650
24,950167	0,5	0,069150
24,958500	0,5	0,069350
24,966833	0,5	0,073150
24,975167	0,5	0,079600
24,983500	0,5	0,085850
24,991833	0,5	0,086300
25,000167	0,5	0,084850
25,008500	0,5	0,086450
25,016833	0,5	0,077600
25,025167	0,5	0,086650
25,033500	0,5	0,092800
25,041833	0,5	0,100000
25,050167	0,5	0,103050
25,058500	0,5	0,104400
25,066833	0,5	0,105050
25,075167	0,5	0,100250
25,083500	0,5	0,101450
25,091833	0,5	0,102550
25,100167	0,5	0,102850
25,108500	0,5	0,108300
25,116833	0,5	0,110950
25,125167	0,5	0,109250
25,133500	0,5	0,115000
25,141833	0,5	0,120050
25,150167	0,5	0,120150
25,158500	0,5	0,115950
25,166833	0,5	0,117600
25,175167	0,5	0,119000
25,183500	0,5	0,124900
25,191833	0,5	0,126450
25,200167	0,5	0,128550
25,208500	0,5	0,128300
25,216833	0,5	0,126600
25,225167	0,5	0,128100
25,233500	0,5	0,131150
25,241833	0,5	0,126300
25,250167	0,5	0,128300
25,258500	0,5	0,128850
25,266833	0,5	0,128500
25,275167	0,5	0,130150
25,283500	0,5	0,132250
25,291833	0,5	0,129850
25,300167	0,5	0,133350
25,308500	0,5	0,130350
25,316833	0,5	0,134850
25,325167	0,5	0,137050
25,333500	0,5	0,137150
25,341833	0,5	0,137500
25,350167	0,5	0,139650
25,358500	0,5	0,137750
25,366833	0,5	0,136950
25,375167	0,5	0,138350
25,383500	0,5	0,139000
25,391833	0,5	0,140750
25,400167	0,5	0,138700
25,408500	0,5	0,137200
25,416833	0,5	0,139950
25,425167	0,5	0,138650
25,433500	0,5	0,143000
25,441833	0,5	0,142400
25,450167	0,5	0,141800
25,458500	0,5	0,142950
25,466833	0,5	0,142350
25,475167	0,5	0,143200
25,483500	0,5	0,139250
25,491833	0,5	0,143550
25,500167	0,5	0,143000
25,508500	0,5	0,141000
25,516833	0,5	0,144950
25,525167	0,5	0,146450
25,533500	0,5	0,146500
25,541833	0,5	0,146500
25,550167	0,5	0,146200
25,558500	0,5	0,145650
25,566833	0,5	0,148850
25,575167	0,5	0,147950
25,583500	0,5	0,146800
25,591833	0,5	0,147150
25,600167	0,5	0,147800
25,608500	0,5	0,149800
25,616833	0,5	0,150900
25,625167	0,5	0,149050
25,633500	0,5	0,142600
25,641833	0,5	0,148500
25,650167	0,5	0,144000
25,658500	0,5	0,147750
25,666833	0,5	0,151800
25,675167	0,5	0,154100
25,683500	0,5	0,152700
25,691833	0,5	0,153100
25,700167	0,5	0,152000
25,708500	0,5	0,151600
25,716833	0,5	0,154500
25,725167	0,5	0,154400
25,733500	0,5	0,153350
25,741833	0,5	0,155000
25,750167	0,5	0,157100
25,758500	0,5	0,154300
25,766833	0,5	0,156850
25,775167	0,5	0,157750
25,783500	0,5	0,152450
25,791833	0,5	0,151400
25,800167	0,5	0,153250
25,808500	0,5	0,157750
25,816833	0,5	0,162250
25,825167	0,5	0,160600
25,833500	0,5	0,162900
25,841833	0,5	0,162350
25,850167	0,5	0,164700
25,858500	0,5	0,163250
25,866833	0,5	0,163900
25,875167	0,5	0,165000
25,883500	0,5	0,163750
25,891833	0,5	0,164650
25,900167	0,5	0,163350
25,908500	0,5	0,165250
25,916833	0,5	0,169600
25,925167	0,5	0,165450
25,933500	0,5	0,164750
25,941833	0,5	0,166450
25,950167	0,5	0,166000
25,958500	0,5	0,173900
25,966833	0,5	0,177800
25,975167	0,5	0,182850
25,983500	0,5	0,173850
25,991833	0,5	0,181550
26,000167	0,5	0,178650
