File Path	chrom://chromeleon01/ikbm_chromeleon/2022/ICS-5000/ED1/Esteban/20220612_Cell_7_4_eg.seq/884.smp/ED_1.channel/ED_1.chm
Channel	ED_1

Injection Information:
Data Vault	ikbm_chromeleon
Injection	7_24h-NT_NA
Injection Number	41
Position	RE2
Comment	
Processing Method	Stop sequence after Cell Death
Instrument Method	ICS5000_PA200_FullNative_Ox_26min_ED1
Type	Unknown
Status	Finished
Injection Date	13.06.2022
Injection Time	11:05:50
Injection Volume (µl)	5,0
Dilution Factor	1,0000
Weight	1,0000

Chromatogram Data Information:
Time Min. (min)	0,000333
Time Max. (min)	26,000333
Data Points	3121
Detector	EDet1
Generating Data System	Chromeleon 7.2.9.11323
Exporting Data System	Chromeleon 7.2.9.0
Operator	Instrument Controller
Signal Quantity	
Signal Unit	nC
Signal Min.	-1,520650
Signal Max.	1 206,007468
Channel	ED_1
Driver Name	DC-5000
Channel Type	Evaluation
Min. Step (s)	0,5
Max. Step (s)	0,5
Average Step (s)	0,5

Signal Parameter Information:
Signal Info	

Chromatogram Data:
Time (min)	Step (s)	Value (nC)
0,000333	n.a.	-0,039950
0,008667	0,5	-0,054900
0,017000	0,5	-0,048450
0,025333	0,5	-0,043700
0,033667	0,5	-0,021200
0,042000	0,5	-0,041850
0,050333	0,5	-0,040650
0,058667	0,5	-0,037450
0,067000	0,5	-0,023650
0,075333	0,5	0,000950
0,083667	0,5	-0,010300
0,092000	0,5	-0,006950
0,100333	0,5	-0,008450
0,108667	0,5	-0,001000
0,117000	0,5	-0,007950
0,125333	0,5	0,003100
0,133667	0,5	-0,009250
0,142000	0,5	-0,006300
0,150333	0,5	-0,012000
0,158667	0,5	-0,012400
0,167000	0,5	-0,023350
0,175333	0,5	-0,023050
0,183667	0,5	-0,007600
0,192000	0,5	-0,027550
0,200333	0,5	-0,029650
0,208667	0,5	-0,023400
0,217000	0,5	-0,010700
0,225333	0,5	0,012350
0,233667	0,5	0,004450
0,242000	0,5	0,000700
0,250333	0,5	0,000700
0,258667	0,5	-0,000400
0,267000	0,5	-0,004700
0,275333	0,5	-0,011550
0,283667	0,5	-0,004550
0,292000	0,5	0,001450
0,300333	0,5	0,032800
0,308667	0,5	0,024300
0,317000	0,5	-0,004750
0,325333	0,5	-0,024750
0,333667	0,5	-0,024150
0,342000	0,5	-0,039300
0,350333	0,5	-0,035100
0,358667	0,5	-0,032500
0,367000	0,5	-0,021500
0,375333	0,5	-0,002150
0,383667	0,5	-0,009350
0,392000	0,5	-0,014500
0,400333	0,5	-0,013800
0,408667	0,5	-0,007800
0,417000	0,5	-0,008450
0,425333	0,5	-0,013300
0,433667	0,5	-0,019400
0,442000	0,5	-0,017700
0,450333	0,5	-0,023400
0,458667	0,5	-0,022500
0,467000	0,5	-0,030250
0,475333	0,5	-0,011850
0,483667	0,5	-0,027800
0,492000	0,5	-0,037450
0,500333	0,5	-0,038200
0,508667	0,5	-0,028550
0,517000	0,5	-0,016400
0,525333	0,5	-0,006500
0,533667	0,5	-0,010750
0,542000	0,5	-0,005250
0,550333	0,5	-0,013100
0,558667	0,5	-0,015800
0,567000	0,5	-0,017050
0,575333	0,5	-0,022600
0,583667	0,5	-0,023850
0,592000	0,5	-0,023400
0,600333	0,5	-0,015750
0,608667	0,5	-0,033000
0,617000	0,5	-0,027250
0,625333	0,5	-0,015400
0,633667	0,5	-0,028100
0,642000	0,5	-0,036700
0,650333	0,5	-0,034000
0,658667	0,5	-0,025250
0,667000	0,5	-0,005650
0,675333	0,5	-0,007250
0,683667	0,5	-0,005750
0,692000	0,5	-0,009700
0,700333	0,5	-0,000700
0,708667	0,5	-0,011450
0,717000	0,5	-0,007800
0,725333	0,5	-0,014400
0,733667	0,5	-0,016800
0,742000	0,5	-0,012300
0,750333	0,5	-0,018000
0,758667	0,5	-0,023350
0,767000	0,5	-0,014250
0,775333	0,5	-0,010950
0,783667	0,5	-0,021550
0,792000	0,5	-0,020700
0,800333	0,5	-0,017400
0,808667	0,5	-0,002450
0,817000	0,5	0,001950
0,825333	0,5	0,004350
0,833667	0,5	-0,001650
0,842000	0,5	0,003900
0,850333	0,5	-0,000850
0,858667	0,5	0,004900
0,867000	0,5	-0,004400
0,875333	0,5	-0,003850
0,883667	0,5	-0,004950
0,892000	0,5	0,002950
0,900333	0,5	0,006900
0,908667	0,5	-0,001550
0,917000	0,5	0,016150
0,925333	0,5	0,004700
0,933667	0,5	-0,006100
0,942000	0,5	-0,006250
0,950333	0,5	-0,004300
0,958667	0,5	0,017200
0,967000	0,5	0,018900
0,975333	0,5	0,008650
0,983667	0,5	0,021000
0,992000	0,5	0,019400
1,000333	0,5	0,016600
1,008667	0,5	0,014650
1,017000	0,5	0,017350
1,025333	0,5	0,011650
1,033667	0,5	0,015350
1,042000	0,5	0,015900
1,050333	0,5	0,019050
1,058667	0,5	0,005750
1,067000	0,5	0,029300
1,075333	0,5	0,011850
1,083667	0,5	0,012650
1,092000	0,5	0,011650
1,100333	0,5	0,019600
1,108667	0,5	0,041400
1,117000	0,5	0,034250
1,125333	0,5	0,029900
1,133667	0,5	0,033850
1,142000	0,5	0,037950
1,150333	0,5	0,035950
1,158667	0,5	0,037550
1,167000	0,5	0,028700
1,175333	0,5	0,038850
1,183667	0,5	0,034500
1,192000	0,5	0,036100
1,200333	0,5	0,029200
1,208667	0,5	0,031700
1,217000	0,5	0,046400
1,225333	0,5	0,026700
1,233667	0,5	0,025500
1,242000	0,5	0,034200
1,250333	0,5	0,036800
1,258667	0,5	0,056200
1,267000	0,5	0,058900
1,275333	0,5	0,058600
1,283667	0,5	0,052900
1,292000	0,5	0,053750
1,300333	0,5	0,052050
1,308667	0,5	0,049550
1,317000	0,5	0,047850
1,325333	0,5	0,042400
1,333667	0,5	0,049250
1,342000	0,5	0,045150
1,350333	0,5	0,043300
1,358667	0,5	0,046000
1,367000	0,5	0,048500
1,375333	0,5	0,029350
1,383667	0,5	0,032250
1,392000	0,5	0,032200
1,400333	0,5	0,044100
1,408667	0,5	0,054950
1,417000	0,5	0,056550
1,425333	0,5	0,043600
1,433667	0,5	0,047100
1,442000	0,5	0,037300
1,450333	0,5	0,038250
1,458667	0,5	0,039400
1,467000	0,5	0,035850
1,475333	0,5	0,035650
1,483667	0,5	0,029400
1,492000	0,5	0,026000
1,500333	0,5	0,024900
1,508667	0,5	0,032850
1,517000	0,5	0,021200
1,525333	0,5	0,005850
1,533667	0,5	0,002800
1,542000	0,5	0,006800
1,550333	0,5	0,026700
1,558667	0,5	0,059100
1,567000	0,5	0,095950
1,575333	0,5	0,167600
1,583667	0,5	0,868600
1,592000	0,5	6,003250
1,600333	0,5	28,401900
1,608667	0,5	105,227652
1,617000	0,5	310,077255
1,625333	0,5	665,721110
1,633667	0,5	1 029,544215
1,642000	0,5	1 206,007468
1,650333	0,5	1 129,168367
1,658667	0,5	886,874413
1,667000	0,5	625,989309
1,675333	0,5	428,124756
1,683667	0,5	297,340304
1,692000	0,5	214,287803
1,700333	0,5	161,927002
1,708667	0,5	128,403902
1,717000	0,5	105,295652
1,725333	0,5	87,403201
1,733667	0,5	72,802401
1,742000	0,5	61,122401
1,750333	0,5	52,161451
1,758667	0,5	45,435551
1,767000	0,5	40,476001
1,775333	0,5	36,772451
1,783667	0,5	33,922951
1,792000	0,5	31,590950
1,800333	0,5	29,639700
1,808667	0,5	27,914550
1,817000	0,5	26,373450
1,825333	0,5	24,972850
1,833667	0,5	23,677000
1,842000	0,5	22,446000
1,850333	0,5	21,243650
1,858667	0,5	20,107800
1,867000	0,5	19,069000
1,875333	0,5	18,149550
1,883667	0,5	17,338000
1,892000	0,5	16,666050
1,900333	0,5	16,106150
1,908667	0,5	15,714050
1,917000	0,5	15,561850
1,925333	0,5	15,746000
1,933667	0,5	16,245700
1,942000	0,5	16,888500
1,950333	0,5	17,329600
1,958667	0,5	17,016800
1,967000	0,5	15,843050
1,975333	0,5	14,291100
1,983667	0,5	12,961800
1,992000	0,5	12,118850
2,000333	0,5	11,631300
2,008667	0,5	11,329050
2,017000	0,5	11,108400
2,025333	0,5	10,950850
2,033667	0,5	10,833400
2,042000	0,5	10,691400
2,050333	0,5	10,509800
2,058667	0,5	10,304700
2,067000	0,5	10,111400
2,075333	0,5	9,912650
2,083667	0,5	9,731100
2,092000	0,5	9,561050
2,100333	0,5	9,460850
2,108667	0,5	9,349700
2,117000	0,5	9,275450
2,125333	0,5	9,220850
2,133667	0,5	9,206150
2,142000	0,5	9,205050
2,150333	0,5	9,165450
2,158667	0,5	9,084750
2,167000	0,5	9,009100
2,175333	0,5	8,939300
2,183667	0,5	8,905800
2,192000	0,5	8,902300
2,200333	0,5	8,945500
2,208667	0,5	9,037650
2,217000	0,5	9,168600
2,225333	0,5	9,421750
2,233667	0,5	10,058250
2,242000	0,5	11,401050
2,250333	0,5	11,949750
2,258667	0,5	11,026950
2,267000	0,5	10,061150
2,275333	0,5	9,617850
2,283667	0,5	9,480100
2,292000	0,5	9,470850
2,300333	0,5	9,492050
2,308667	0,5	9,548800
2,317000	0,5	9,615550
2,325333	0,5	9,686400
2,333667	0,5	9,750900
2,342000	0,5	9,834800
2,350333	0,5	9,950900
2,358667	0,5	10,136100
2,367000	0,5	10,435800
2,375333	0,5	10,881150
2,383667	0,5	11,496400
2,392000	0,5	12,222350
2,400333	0,5	12,940900
2,408667	0,5	13,527850
2,417000	0,5	13,949450
2,425333	0,5	14,206150
2,433667	0,5	14,411500
2,442000	0,5	14,748900
2,450333	0,5	15,565250
2,458667	0,5	17,204700
2,467000	0,5	19,566500
2,475333	0,5	21,697200
2,483667	0,5	22,391150
2,492000	0,5	21,267700
2,500333	0,5	19,064250
2,508667	0,5	16,772550
2,517000	0,5	14,941650
2,525333	0,5	13,655250
2,533667	0,5	12,795550
2,542000	0,5	12,227850
2,550333	0,5	11,825850
2,558667	0,5	11,517750
2,567000	0,5	11,294350
2,575333	0,5	11,110600
2,583667	0,5	10,958600
2,592000	0,5	10,815900
2,600333	0,5	10,677950
2,608667	0,5	10,559950
2,617000	0,5	10,450700
2,625333	0,5	10,362000
2,633667	0,5	10,293000
2,642000	0,5	10,252000
2,650333	0,5	10,238550
2,658667	0,5	10,299600
2,667000	0,5	10,481700
2,675333	0,5	10,876250
2,683667	0,5	11,513350
2,692000	0,5	12,295300
2,700333	0,5	12,868750
2,708667	0,5	13,000400
2,717000	0,5	12,610300
2,725333	0,5	11,877300
2,733667	0,5	11,058500
2,742000	0,5	10,329400
2,750333	0,5	9,782900
2,758667	0,5	9,394650
2,767000	0,5	9,130650
2,775333	0,5	8,933600
2,783667	0,5	8,782800
2,792000	0,5	8,645100
2,800333	0,5	8,528100
2,808667	0,5	8,410900
2,817000	0,5	8,300450
2,825333	0,5	8,169900
2,833667	0,5	8,048850
2,842000	0,5	7,899300
2,850333	0,5	7,750900
2,858667	0,5	7,611950
2,867000	0,5	7,490700
2,875333	0,5	7,381800
2,883667	0,5	7,270850
2,892000	0,5	7,152150
2,900333	0,5	7,042150
2,908667	0,5	6,931000
2,917000	0,5	6,828650
2,925333	0,5	6,727050
2,933667	0,5	6,622000
2,942000	0,5	6,520150
2,950333	0,5	6,418150
2,958667	0,5	6,320850
2,967000	0,5	6,219600
2,975333	0,5	6,116050
2,983667	0,5	6,030550
2,992000	0,5	5,924150
3,000333	0,5	5,820350
3,008667	0,5	5,725100
3,017000	0,5	5,629000
3,025333	0,5	5,555150
3,033667	0,5	5,470150
3,042000	0,5	5,388650
3,050333	0,5	5,310650
3,058667	0,5	5,246800
3,067000	0,5	5,186400
3,075333	0,5	5,128700
3,083667	0,5	5,068300
3,092000	0,5	4,991050
3,100333	0,5	4,913550
3,108667	0,5	4,829700
3,117000	0,5	4,744900
3,125333	0,5	4,654500
3,133667	0,5	4,587550
3,142000	0,5	4,505650
3,150333	0,5	4,436850
3,158667	0,5	4,372450
3,167000	0,5	4,322850
3,175333	0,5	4,285200
3,183667	0,5	4,233250
3,192000	0,5	4,177150
3,200333	0,5	4,131700
3,208667	0,5	4,075900
3,217000	0,5	4,019350
3,225333	0,5	3,945550
3,233667	0,5	3,872750
3,242000	0,5	3,802850
3,250333	0,5	3,738000
3,258667	0,5	3,678800
3,267000	0,5	3,623950
3,275333	0,5	3,577450
3,283667	0,5	3,537850
3,292000	0,5	3,478250
3,300333	0,5	3,434350
3,308667	0,5	3,397000
3,317000	0,5	3,362500
3,325333	0,5	3,346700
3,333667	0,5	3,306050
3,342000	0,5	3,277100
3,350333	0,5	3,251750
3,358667	0,5	3,239900
3,367000	0,5	3,227450
3,375333	0,5	3,222050
3,383667	0,5	3,210150
3,392000	0,5	3,208300
3,400333	0,5	3,203350
3,408667	0,5	3,190700
3,417000	0,5	3,180000
3,425333	0,5	3,180050
3,433667	0,5	3,170200
3,442000	0,5	3,157450
3,450333	0,5	3,152850
3,458667	0,5	3,151250
3,467000	0,5	3,163400
3,475333	0,5	3,177950
3,483667	0,5	3,203750
3,492000	0,5	3,251450
3,500333	0,5	3,349500
3,508667	0,5	3,507100
3,517000	0,5	3,749450
3,525333	0,5	4,052650
3,533667	0,5	4,408000
3,542000	0,5	4,764650
3,550333	0,5	5,083850
3,558667	0,5	5,311950
3,567000	0,5	5,475300
3,575333	0,5	5,598600
3,583667	0,5	5,720300
3,592000	0,5	5,906100
3,600333	0,5	6,178900
3,608667	0,5	6,478150
3,617000	0,5	6,724300
3,625333	0,5	6,798400
3,633667	0,5	6,644050
3,642000	0,5	6,260400
3,650333	0,5	5,710150
3,658667	0,5	5,091500
3,667000	0,5	4,481400
3,675333	0,5	3,957600
3,683667	0,5	3,548100
3,692000	0,5	3,252200
3,700333	0,5	3,046950
3,708667	0,5	2,912300
3,717000	0,5	2,832800
3,725333	0,5	2,787550
3,733667	0,5	2,733900
3,742000	0,5	2,697850
3,750333	0,5	2,662800
3,758667	0,5	2,636500
3,767000	0,5	2,603750
3,775333	0,5	2,556850
3,783667	0,5	2,505350
3,792000	0,5	2,458200
3,800333	0,5	2,411500
3,808667	0,5	2,368500
3,817000	0,5	2,330900
3,825333	0,5	2,293350
3,833667	0,5	2,264100
3,842000	0,5	2,235050
3,850333	0,5	2,214800
3,858667	0,5	2,174950
3,867000	0,5	2,160500
3,875333	0,5	2,137700
3,883667	0,5	2,108500
3,892000	0,5	2,080250
3,900333	0,5	2,067950
3,908667	0,5	2,057500
3,917000	0,5	2,047800
3,925333	0,5	2,026250
3,933667	0,5	2,014350
3,942000	0,5	2,003150
3,950333	0,5	2,002300
3,958667	0,5	1,988800
3,967000	0,5	1,980850
3,975333	0,5	1,965950
3,983667	0,5	1,951400
3,992000	0,5	1,939400
4,000333	0,5	1,914650
4,008667	0,5	1,890950
4,017000	0,5	1,887750
4,025333	0,5	1,867700
4,033667	0,5	1,844550
4,042000	0,5	1,833350
4,050333	0,5	1,822500
4,058667	0,5	1,822650
4,067000	0,5	1,807550
4,075333	0,5	1,798900
4,083667	0,5	1,782700
4,092000	0,5	1,777000
4,100333	0,5	1,762350
4,108667	0,5	1,757150
4,117000	0,5	1,746050
4,125333	0,5	1,736250
4,133667	0,5	1,732600
4,142000	0,5	1,726800
4,150333	0,5	1,717750
4,158667	0,5	1,705000
4,167000	0,5	1,712100
4,175333	0,5	1,696200
4,183667	0,5	1,693000
4,192000	0,5	1,689000
4,200333	0,5	1,696550
4,208667	0,5	1,711150
4,217000	0,5	1,712600
4,225333	0,5	1,712750
4,233667	0,5	1,725400
4,242000	0,5	1,742200
4,250333	0,5	1,774100
4,258667	0,5	1,803400
4,267000	0,5	1,859650
4,275333	0,5	1,928050
4,283667	0,5	2,012300
4,292000	0,5	2,104400
4,300333	0,5	2,195850
4,308667	0,5	2,265250
4,317000	0,5	2,318950
4,325333	0,5	2,317300
4,333667	0,5	2,291250
4,342000	0,5	2,235200
4,350333	0,5	2,160950
4,358667	0,5	2,080400
4,367000	0,5	1,983450
4,375333	0,5	1,896300
4,383667	0,5	1,814800
4,392000	0,5	1,749300
4,400333	0,5	1,691050
4,408667	0,5	1,649250
4,417000	0,5	1,606550
4,425333	0,5	1,581350
4,433667	0,5	1,561650
4,442000	0,5	1,540700
4,450333	0,5	1,520400
4,458667	0,5	1,519950
4,467000	0,5	1,503300
4,475333	0,5	1,491550
4,483667	0,5	1,485050
4,492000	0,5	1,490400
4,500333	0,5	1,490900
4,508667	0,5	1,503750
4,517000	0,5	1,503900
4,525333	0,5	1,506350
4,533667	0,5	1,510400
4,542000	0,5	1,503100
4,550333	0,5	1,500750
4,558667	0,5	1,491500
4,567000	0,5	1,487350
4,575333	0,5	1,475350
4,583667	0,5	1,466950
4,592000	0,5	1,452650
4,600333	0,5	1,443500
4,608667	0,5	1,439200
4,617000	0,5	1,421450
4,625333	0,5	1,404050
4,633667	0,5	1,401400
4,642000	0,5	1,388050
4,650333	0,5	1,391050
4,658667	0,5	1,379500
4,667000	0,5	1,372150
4,675333	0,5	1,359050
4,683667	0,5	1,353500
4,692000	0,5	1,344600
4,700333	0,5	1,335550
4,708667	0,5	1,327550
4,717000	0,5	1,318350
4,725333	0,5	1,313300
4,733667	0,5	1,310800
4,742000	0,5	1,305650
4,750333	0,5	1,304050
4,758667	0,5	1,301700
4,767000	0,5	1,285850
4,775333	0,5	1,279650
4,783667	0,5	1,272450
4,792000	0,5	1,275400
4,800333	0,5	1,280100
4,808667	0,5	1,277450
4,817000	0,5	1,271200
4,825333	0,5	1,275450
4,833667	0,5	1,266400
4,842000	0,5	1,269750
4,850333	0,5	1,260250
4,858667	0,5	1,258200
4,867000	0,5	1,253250
4,875333	0,5	1,248150
4,883667	0,5	1,248100
4,892000	0,5	1,235500
4,900333	0,5	1,243500
4,908667	0,5	1,243650
4,917000	0,5	1,244950
4,925333	0,5	1,251750
4,933667	0,5	1,274950
4,942000	0,5	1,309750
4,950333	0,5	1,350650
4,958667	0,5	1,389350
4,967000	0,5	1,449950
4,975333	0,5	1,509150
4,983667	0,5	1,577350
4,992000	0,5	1,628800
5,000333	0,5	1,672650
5,008667	0,5	1,690550
5,017000	0,5	1,690950
5,025333	0,5	1,661350
5,033667	0,5	1,611250
5,042000	0,5	1,542100
5,050333	0,5	1,484250
5,058667	0,5	1,408350
5,067000	0,5	1,340700
5,075333	0,5	1,285450
5,083667	0,5	1,243850
5,092000	0,5	1,221900
5,100333	0,5	1,199600
5,108667	0,5	1,179750
5,117000	0,5	1,164600
5,125333	0,5	1,157750
5,133667	0,5	1,146350
5,142000	0,5	1,139800
5,150333	0,5	1,130400
5,158667	0,5	1,126150
5,167000	0,5	1,114850
5,175333	0,5	1,109600
5,183667	0,5	1,098650
5,192000	0,5	1,088600
5,200333	0,5	1,088400
5,208667	0,5	1,077000
5,217000	0,5	1,069800
5,225333	0,5	1,066550
5,233667	0,5	1,061550
5,242000	0,5	1,070900
5,250333	0,5	1,071600
5,258667	0,5	1,066500
5,267000	0,5	1,059900
5,275333	0,5	1,057600
5,283667	0,5	1,053400
5,292000	0,5	1,053250
5,300333	0,5	1,045950
5,308667	0,5	1,037000
5,317000	0,5	1,034500
5,325333	0,5	1,025200
5,333667	0,5	1,021300
5,342000	0,5	1,014400
5,350333	0,5	1,018500
5,358667	0,5	1,002550
5,367000	0,5	1,000800
5,375333	0,5	0,992300
5,383667	0,5	0,997650
5,392000	0,5	1,001650
5,400333	0,5	0,996150
5,408667	0,5	0,996450
5,417000	0,5	0,993250
5,425333	0,5	0,988700
5,433667	0,5	0,985850
5,442000	0,5	0,978000
5,450333	0,5	0,970350
5,458667	0,5	0,967550
5,467000	0,5	0,962050
5,475333	0,5	0,958200
5,483667	0,5	0,945750
5,492000	0,5	0,945650
5,500333	0,5	0,940750
5,508667	0,5	0,934550
5,517000	0,5	0,934100
5,525333	0,5	0,933450
5,533667	0,5	0,941850
5,542000	0,5	0,954150
5,550333	0,5	0,959750
5,558667	0,5	0,970800
5,567000	0,5	0,977600
5,575333	0,5	0,990200
5,583667	0,5	1,000200
5,592000	0,5	1,010750
5,600333	0,5	1,017500
5,608667	0,5	1,021550
5,617000	0,5	1,018300
5,625333	0,5	1,002950
5,633667	0,5	0,991250
5,642000	0,5	0,986600
5,650333	0,5	0,968800
5,658667	0,5	0,946800
5,667000	0,5	0,940450
5,675333	0,5	0,932750
5,683667	0,5	0,933200
5,692000	0,5	0,920150
5,700333	0,5	0,920350
5,708667	0,5	0,915850
5,717000	0,5	0,921250
5,725333	0,5	0,925900
5,733667	0,5	0,946600
5,742000	0,5	0,970900
5,750333	0,5	1,008700
5,758667	0,5	1,060250
5,767000	0,5	1,114350
5,775333	0,5	1,164050
5,783667	0,5	1,210950
5,792000	0,5	1,239650
5,800333	0,5	1,237800
5,808667	0,5	1,210700
5,817000	0,5	1,171650
5,825333	0,5	1,119100
5,833667	0,5	1,060600
5,842000	0,5	0,998300
5,850333	0,5	0,938100
5,858667	0,5	0,894300
5,867000	0,5	0,853250
5,875333	0,5	0,824250
5,883667	0,5	0,802300
5,892000	0,5	0,789300
5,900333	0,5	0,778600
5,908667	0,5	0,773350
5,917000	0,5	0,768850
5,925333	0,5	0,760700
5,933667	0,5	0,759200
5,942000	0,5	0,755000
5,950333	0,5	0,746700
5,958667	0,5	0,744200
5,967000	0,5	0,742900
5,975333	0,5	0,752350
5,983667	0,5	0,760500
5,992000	0,5	0,762400
6,000333	0,5	0,771200
6,008667	0,5	0,778550
6,017000	0,5	0,787250
6,025333	0,5	0,792850
6,033667	0,5	0,794800
6,042000	0,5	0,788100
6,050333	0,5	0,783100
6,058667	0,5	0,774350
6,067000	0,5	0,762150
6,075333	0,5	0,743750
6,083667	0,5	0,741650
6,092000	0,5	0,724800
6,100333	0,5	0,710750
6,108667	0,5	0,698400
6,117000	0,5	0,697550
6,125333	0,5	0,701100
6,133667	0,5	0,697750
6,142000	0,5	0,696200
6,150333	0,5	0,694000
6,158667	0,5	0,692450
6,167000	0,5	0,690050
6,175333	0,5	0,690650
6,183667	0,5	0,682650
6,192000	0,5	0,686300
6,200333	0,5	0,680200
6,208667	0,5	0,680650
6,217000	0,5	0,675100
6,225333	0,5	0,674050
6,233667	0,5	0,679550
6,242000	0,5	0,675300
6,250333	0,5	0,673600
6,258667	0,5	0,673800
6,267000	0,5	0,677800
6,275333	0,5	0,690450
6,283667	0,5	0,694700
6,292000	0,5	0,701750
6,300333	0,5	0,709250
6,308667	0,5	0,723600
6,317000	0,5	0,742250
6,325333	0,5	0,769850
6,333667	0,5	0,805800
6,342000	0,5	0,850850
6,350333	0,5	0,899550
6,358667	0,5	0,945900
6,367000	0,5	0,983300
6,375333	0,5	1,006800
6,383667	0,5	1,019350
6,392000	0,5	0,996400
6,400333	0,5	0,963850
6,408667	0,5	0,918350
6,417000	0,5	0,878600
6,425333	0,5	0,838250
6,433667	0,5	0,798550
6,442000	0,5	0,765150
6,450333	0,5	0,744350
6,458667	0,5	0,726700
6,467000	0,5	0,715850
6,475333	0,5	0,714750
6,483667	0,5	0,711100
6,492000	0,5	0,716850
6,500333	0,5	0,720400
6,508667	0,5	0,725550
6,517000	0,5	0,730000
6,525333	0,5	0,739950
6,533667	0,5	0,735350
6,542000	0,5	0,731500
6,550333	0,5	0,729000
6,558667	0,5	0,726350
6,567000	0,5	0,726750
6,575333	0,5	0,724250
6,583667	0,5	0,720000
6,592000	0,5	0,720050
6,600333	0,5	0,712750
6,608667	0,5	0,711550
6,617000	0,5	0,706800
6,625333	0,5	0,712050
6,633667	0,5	0,709100
6,642000	0,5	0,706950
6,650333	0,5	0,713150
6,658667	0,5	0,709300
6,667000	0,5	0,714800
6,675333	0,5	0,722500
6,683667	0,5	0,726100
6,692000	0,5	0,729450
6,700333	0,5	0,735450
6,708667	0,5	0,738150
6,717000	0,5	0,750650
6,725333	0,5	0,748850
6,733667	0,5	0,749950
6,742000	0,5	0,744700
6,750333	0,5	0,743250
6,758667	0,5	0,739150
6,767000	0,5	0,735050
6,775333	0,5	0,729450
6,783667	0,5	0,725450
6,792000	0,5	0,721600
6,800333	0,5	0,719650
6,808667	0,5	0,710300
6,817000	0,5	0,709900
6,825333	0,5	0,711050
6,833667	0,5	0,708050
6,842000	0,5	0,706200
6,850333	0,5	0,707700
6,858667	0,5	0,708200
6,867000	0,5	0,716400
6,875333	0,5	0,718250
6,883667	0,5	0,717600
6,892000	0,5	0,717850
6,900333	0,5	0,720900
6,908667	0,5	0,723600
6,917000	0,5	0,719950
6,925333	0,5	0,720750
6,933667	0,5	0,720200
6,942000	0,5	0,721750
6,950333	0,5	0,725400
6,958667	0,5	0,724050
6,967000	0,5	0,725900
6,975333	0,5	0,733800
6,983667	0,5	0,735750
6,992000	0,5	0,738700
7,000333	0,5	0,747000
7,008667	0,5	0,756300
7,017000	0,5	0,758300
7,025333	0,5	0,755500
7,033667	0,5	0,753600
7,042000	0,5	0,747850
7,050333	0,5	0,745300
7,058667	0,5	0,739550
7,067000	0,5	0,735550
7,075333	0,5	0,728850
7,083667	0,5	0,727500
7,092000	0,5	0,725650
7,100333	0,5	0,724900
7,108667	0,5	0,718600
7,117000	0,5	0,724450
7,125333	0,5	0,719050
7,133667	0,5	0,719400
7,142000	0,5	0,716750
7,150333	0,5	0,718500
7,158667	0,5	0,721800
7,167000	0,5	0,729450
7,175333	0,5	0,727150
7,183667	0,5	0,729500
7,192000	0,5	0,726600
7,200333	0,5	0,726500
7,208667	0,5	0,724300
7,217000	0,5	0,724400
7,225333	0,5	0,722600
7,233667	0,5	0,722650
7,242000	0,5	0,721500
7,250333	0,5	0,720400
7,258667	0,5	0,727800
7,267000	0,5	0,731800
7,275333	0,5	0,736250
7,283667	0,5	0,744700
7,292000	0,5	0,754150
7,300333	0,5	0,764750
7,308667	0,5	0,779200
7,317000	0,5	0,789200
7,325333	0,5	0,809400
7,333667	0,5	0,834800
7,342000	0,5	0,877750
7,350333	0,5	0,927550
7,358667	0,5	0,985750
7,367000	0,5	1,032550
7,375333	0,5	1,065800
7,383667	0,5	1,072500
7,392000	0,5	1,047600
7,400333	0,5	1,005450
7,408667	0,5	0,952800
7,417000	0,5	0,901750
7,425333	0,5	0,850900
7,433667	0,5	0,816600
7,442000	0,5	0,792500
7,450333	0,5	0,788000
7,458667	0,5	0,788500
7,467000	0,5	0,799650
7,475333	0,5	0,804850
7,483667	0,5	0,815950
7,492000	0,5	0,822850
7,500333	0,5	0,835600
7,508667	0,5	0,841850
7,517000	0,5	0,855850
7,525333	0,5	0,866600
7,533667	0,5	0,882750
7,542000	0,5	0,893300
7,550333	0,5	0,908650
7,558667	0,5	0,918750
7,567000	0,5	0,920000
7,575333	0,5	0,911150
7,583667	0,5	0,895200
7,592000	0,5	0,879650
7,600333	0,5	0,864600
7,608667	0,5	0,848950
7,617000	0,5	0,834200
7,625333	0,5	0,823050
7,633667	0,5	0,811750
7,642000	0,5	0,805700
7,650333	0,5	0,803100
7,658667	0,5	0,802850
7,667000	0,5	0,798900
7,675333	0,5	0,798050
7,683667	0,5	0,798350
7,692000	0,5	0,800350
7,700333	0,5	0,798650
7,708667	0,5	0,802300
7,717000	0,5	0,805150
7,725333	0,5	0,806900
7,733667	0,5	0,805200
7,742000	0,5	0,812150
7,750333	0,5	0,820500
7,758667	0,5	0,827250
7,767000	0,5	0,830750
7,775333	0,5	0,834650
7,783667	0,5	0,840700
7,792000	0,5	0,843750
7,800333	0,5	0,851950
7,808667	0,5	0,857050
7,817000	0,5	0,860400
7,825333	0,5	0,867000
7,833667	0,5	0,874200
7,842000	0,5	0,882150
7,850333	0,5	0,892700
7,858667	0,5	0,914100
7,867000	0,5	0,931350
7,875333	0,5	0,951800
7,883667	0,5	0,974650
7,892000	0,5	0,996700
7,900333	0,5	1,020300
7,908667	0,5	1,031750
7,917000	0,5	1,037650
7,925333	0,5	1,037000
7,933667	0,5	1,029550
7,942000	0,5	1,017200
7,950333	0,5	1,006000
7,958667	0,5	0,998750
7,967000	0,5	0,995400
7,975333	0,5	0,993200
7,983667	0,5	0,992950
7,992000	0,5	0,994100
8,000333	0,5	0,997700
8,008667	0,5	1,000550
8,017000	0,5	1,002050
8,025333	0,5	1,007450
8,033667	0,5	1,009850
8,042000	0,5	1,016600
8,050333	0,5	1,025000
8,058667	0,5	1,032250
8,067000	0,5	1,040200
8,075333	0,5	1,064350
8,083667	0,5	1,096350
8,092000	0,5	1,152700
8,100333	0,5	1,218650
8,108667	0,5	1,292550
8,117000	0,5	1,355000
8,125333	0,5	1,382600
8,133667	0,5	1,377600
8,142000	0,5	1,332100
8,150333	0,5	1,276050
8,158667	0,5	1,214150
8,167000	0,5	1,165850
8,175333	0,5	1,131200
8,183667	0,5	1,107900
8,192000	0,5	1,102050
8,200333	0,5	1,096000
8,208667	0,5	1,095500
8,217000	0,5	1,097850
8,225333	0,5	1,103300
8,233667	0,5	1,110950
8,242000	0,5	1,121250
8,250333	0,5	1,135200
8,258667	0,5	1,148500
8,267000	0,5	1,163500
8,275333	0,5	1,170850
8,283667	0,5	1,175000
8,292000	0,5	1,170700
8,300333	0,5	1,165450
8,308667	0,5	1,155550
8,317000	0,5	1,148600
8,325333	0,5	1,142450
8,333667	0,5	1,145000
8,342000	0,5	1,157450
8,350333	0,5	1,172150
8,358667	0,5	1,189550
8,367000	0,5	1,209800
8,375333	0,5	1,228600
8,383667	0,5	1,244750
8,392000	0,5	1,259250
8,400333	0,5	1,264700
8,408667	0,5	1,269500
8,417000	0,5	1,269750
8,425333	0,5	1,277200
8,433667	0,5	1,295100
8,442000	0,5	1,328700
8,450333	0,5	1,376500
8,458667	0,5	1,429950
8,467000	0,5	1,473400
8,475333	0,5	1,504500
8,483667	0,5	1,512800
8,492000	0,5	1,500300
8,500333	0,5	1,461750
8,508667	0,5	1,420050
8,517000	0,5	1,371550
8,525333	0,5	1,336050
8,533667	0,5	1,308000
8,542000	0,5	1,290900
8,550333	0,5	1,272200
8,558667	0,5	1,259150
8,567000	0,5	1,255750
8,575333	0,5	1,249750
8,583667	0,5	1,256950
8,592000	0,5	1,279450
8,600333	0,5	1,318700
8,608667	0,5	1,379000
8,617000	0,5	1,453400
8,625333	0,5	1,516100
8,633667	0,5	1,554550
8,642000	0,5	1,557900
8,650333	0,5	1,524800
8,658667	0,5	1,482300
8,667000	0,5	1,441350
8,675333	0,5	1,415450
8,683667	0,5	1,403750
8,692000	0,5	1,393150
8,700333	0,5	1,383550
8,708667	0,5	1,366100
8,717000	0,5	1,344450
8,725333	0,5	1,321450
8,733667	0,5	1,299950
8,742000	0,5	1,290650
8,750333	0,5	1,281250
8,758667	0,5	1,271850
8,767000	0,5	1,261800
8,775333	0,5	1,251700
8,783667	0,5	1,243250
8,792000	0,5	1,241150
8,800333	0,5	1,236050
8,808667	0,5	1,235300
8,817000	0,5	1,228450
8,825333	0,5	1,229000
8,833667	0,5	1,225250
8,842000	0,5	1,223800
8,850333	0,5	1,222650
8,858667	0,5	1,221850
8,867000	0,5	1,220500
8,875333	0,5	1,217450
8,883667	0,5	1,215500
8,892000	0,5	1,215100
8,900333	0,5	1,212750
8,908667	0,5	1,210850
8,917000	0,5	1,209250
8,925333	0,5	1,208350
8,933667	0,5	1,212350
8,942000	0,5	1,214100
8,950333	0,5	1,220500
8,958667	0,5	1,226100
8,967000	0,5	1,235650
8,975333	0,5	1,256100
8,983667	0,5	1,284650
8,992000	0,5	1,331350
9,000333	0,5	1,401500
9,008667	0,5	1,489250
9,017000	0,5	1,594350
9,025333	0,5	1,682200
9,033667	0,5	1,728200
9,042000	0,5	1,729350
9,050333	0,5	1,679900
9,058667	0,5	1,600550
9,067000	0,5	1,518650
9,075333	0,5	1,447850
9,083667	0,5	1,401850
9,092000	0,5	1,376100
9,100333	0,5	1,372800
9,108667	0,5	1,376600
9,117000	0,5	1,392300
9,125333	0,5	1,408900
9,133667	0,5	1,425950
9,142000	0,5	1,446500
9,150333	0,5	1,471150
9,158667	0,5	1,510250
9,167000	0,5	1,563900
9,175333	0,5	1,632000
9,183667	0,5	1,723400
9,192000	0,5	1,814700
9,200333	0,5	1,898450
9,208667	0,5	1,961250
9,217000	0,5	1,992000
9,225333	0,5	1,994900
9,233667	0,5	1,971750
9,242000	0,5	1,932950
9,250333	0,5	1,886000
9,258667	0,5	1,837650
9,267000	0,5	1,792400
9,275333	0,5	1,747250
9,283667	0,5	1,698850
9,292000	0,5	1,645600
9,300333	0,5	1,597200
9,308667	0,5	1,551800
9,317000	0,5	1,509650
9,325333	0,5	1,477400
9,333667	0,5	1,468500
9,342000	0,5	1,473550
9,350333	0,5	1,498550
9,358667	0,5	1,534850
9,367000	0,5	1,576650
9,375333	0,5	1,604550
9,383667	0,5	1,614050
9,392000	0,5	1,590800
9,400333	0,5	1,546800
9,408667	0,5	1,502300
9,417000	0,5	1,461200
9,425333	0,5	1,423850
9,433667	0,5	1,401250
9,442000	0,5	1,385300
9,450333	0,5	1,384350
9,458667	0,5	1,396500
9,467000	0,5	1,422600
9,475333	0,5	1,464300
9,483667	0,5	1,517000
9,492000	0,5	1,576150
9,500333	0,5	1,618200
9,508667	0,5	1,647450
9,517000	0,5	1,648600
9,525333	0,5	1,631250
9,533667	0,5	1,597850
9,542000	0,5	1,552600
9,550333	0,5	1,504500
9,558667	0,5	1,453800
9,567000	0,5	1,408800
9,575333	0,5	1,375500
9,583667	0,5	1,348250
9,592000	0,5	1,338350
9,600333	0,5	1,341900
9,608667	0,5	1,363200
9,617000	0,5	1,399850
9,625333	0,5	1,457050
9,633667	0,5	1,538800
9,642000	0,5	1,627400
9,650333	0,5	1,713950
9,658667	0,5	1,782850
9,667000	0,5	1,823250
9,675333	0,5	1,831300
9,683667	0,5	1,802300
9,692000	0,5	1,750200
9,700333	0,5	1,681350
9,708667	0,5	1,623100
9,717000	0,5	1,564800
9,725333	0,5	1,516650
9,733667	0,5	1,467000
9,742000	0,5	1,415100
9,750333	0,5	1,367050
9,758667	0,5	1,314000
9,767000	0,5	1,275600
9,775333	0,5	1,241950
9,783667	0,5	1,220200
9,792000	0,5	1,204150
9,800333	0,5	1,196950
9,808667	0,5	1,190900
9,817000	0,5	1,193400
9,825333	0,5	1,197200
9,833667	0,5	1,205700
9,842000	0,5	1,223950
9,850333	0,5	1,254650
9,858667	0,5	1,308700
9,867000	0,5	1,374050
9,875333	0,5	1,444400
9,883667	0,5	1,501850
9,892000	0,5	1,535000
9,900333	0,5	1,533150
9,908667	0,5	1,504500
9,917000	0,5	1,452250
9,925333	0,5	1,405350
9,933667	0,5	1,361250
9,942000	0,5	1,326000
9,950333	0,5	1,300800
9,958667	0,5	1,277400
9,967000	0,5	1,253250
9,975333	0,5	1,230600
9,983667	0,5	1,203600
9,992000	0,5	1,180900
10,000333	0,5	1,166100
10,008667	0,5	1,161150
10,017000	0,5	1,160800
10,025333	0,5	1,172150
10,033667	0,5	1,186000
10,042000	0,5	1,203700
10,050333	0,5	1,223900
10,058667	0,5	1,236450
10,067000	0,5	1,246400
10,075333	0,5	1,256450
10,083667	0,5	1,258650
10,092000	0,5	1,247950
10,100333	0,5	1,232300
10,108667	0,5	1,204750
10,117000	0,5	1,181400
10,125333	0,5	1,154800
10,133667	0,5	1,135600
10,142000	0,5	1,122650
10,150333	0,5	1,119700
10,158667	0,5	1,132200
10,167000	0,5	1,165750
10,175333	0,5	1,208400
10,183667	0,5	1,275700
10,192000	0,5	1,352450
10,200333	0,5	1,432150
10,208667	0,5	1,499150
10,217000	0,5	1,530050
10,225333	0,5	1,527600
10,233667	0,5	1,484150
10,242000	0,5	1,419750
10,250333	0,5	1,343750
10,258667	0,5	1,275700
10,267000	0,5	1,209900
10,275333	0,5	1,160850
10,283667	0,5	1,114150
10,292000	0,5	1,081350
10,300333	0,5	1,058200
10,308667	0,5	1,039750
10,317000	0,5	1,034800
10,325333	0,5	1,038950
10,333667	0,5	1,048800
10,342000	0,5	1,064350
10,350333	0,5	1,081750
10,358667	0,5	1,108450
10,367000	0,5	1,130800
10,375333	0,5	1,158200
10,383667	0,5	1,175400
10,392000	0,5	1,186900
10,400333	0,5	1,183300
10,408667	0,5	1,175300
10,417000	0,5	1,158350
10,425333	0,5	1,153650
10,433667	0,5	1,160750
10,442000	0,5	1,189100
10,450333	0,5	1,246250
10,458667	0,5	1,311400
10,467000	0,5	1,381150
10,475333	0,5	1,427250
10,483667	0,5	1,444100
10,492000	0,5	1,424150
10,500333	0,5	1,371000
10,508667	0,5	1,293800
10,517000	0,5	1,220250
10,525333	0,5	1,149850
10,533667	0,5	1,088700
10,542000	0,5	1,043650
10,550333	0,5	1,017300
10,558667	0,5	1,014200
10,567000	0,5	1,022850
10,575333	0,5	1,040250
10,583667	0,5	1,065100
10,592000	0,5	1,085100
10,600333	0,5	1,106850
10,608667	0,5	1,123150
10,617000	0,5	1,132400
10,625333	0,5	1,145500
10,633667	0,5	1,169750
10,642000	0,5	1,214650
10,650333	0,5	1,272950
10,658667	0,5	1,344500
10,667000	0,5	1,414200
10,675333	0,5	1,451050
10,683667	0,5	1,447850
10,692000	0,5	1,414300
10,700333	0,5	1,345200
10,708667	0,5	1,282300
10,717000	0,5	1,224750
10,725333	0,5	1,198050
10,733667	0,5	1,196750
10,742000	0,5	1,228400
10,750333	0,5	1,273900
10,758667	0,5	1,338300
10,767000	0,5	1,428850
10,775333	0,5	1,536350
10,783667	0,5	1,643950
10,792000	0,5	1,717900
10,800333	0,5	1,753700
10,808667	0,5	1,785300
10,817000	0,5	1,927700
10,825333	0,5	2,217750
10,833667	0,5	2,490850
10,842000	0,5	2,511050
10,850333	0,5	2,341000
10,858667	0,5	1,967600
10,867000	0,5	1,477600
10,875333	0,5	0,984750
10,883667	0,5	0,631950
10,892000	0,5	0,432950
10,900333	0,5	0,319100
10,908667	0,5	0,244750
10,917000	0,5	0,194150
10,925333	0,5	0,153000
10,933667	0,5	0,114300
10,942000	0,5	0,083550
10,950333	0,5	0,047950
10,958667	0,5	0,024300
10,967000	0,5	0,004100
10,975333	0,5	-0,011750
10,983667	0,5	-0,020800
10,992000	0,5	-0,028300
11,000333	0,5	-0,028000
11,008667	0,5	-0,025800
11,017000	0,5	-0,021750
11,025333	0,5	-0,014600
11,033667	0,5	-0,007400
11,042000	0,5	-0,001500
11,050333	0,5	0,001800
11,058667	0,5	0,000000
11,067000	0,5	-0,001150
11,075333	0,5	-0,008700
11,083667	0,5	-0,023600
11,092000	0,5	-0,036700
11,100333	0,5	-0,055750
11,108667	0,5	-0,068450
11,117000	0,5	-0,090150
11,125333	0,5	-0,106200
11,133667	0,5	-0,121050
11,142000	0,5	-0,139600
11,150333	0,5	-0,144950
11,158667	0,5	-0,152950
11,167000	0,5	-0,158700
11,175333	0,5	-0,169350
11,183667	0,5	-0,175300
11,192000	0,5	-0,182950
11,200333	0,5	-0,190300
11,208667	0,5	-0,202400
11,217000	0,5	-0,207100
11,225333	0,5	-0,216350
11,233667	0,5	-0,222000
11,242000	0,5	-0,227350
11,250333	0,5	-0,236950
11,258667	0,5	-0,237400
11,267000	0,5	-0,244550
11,275333	0,5	-0,252300
11,283667	0,5	-0,260250
11,292000	0,5	-0,263600
11,300333	0,5	-0,267250
11,308667	0,5	-0,268050
11,317000	0,5	-0,268350
11,325333	0,5	-0,267600
11,333667	0,5	-0,269450
11,342000	0,5	-0,269650
11,350333	0,5	-0,268250
11,358667	0,5	-0,266300
11,367000	0,5	-0,265050
11,375333	0,5	-0,262450
11,383667	0,5	-0,259900
11,392000	0,5	-0,257900
11,400333	0,5	-0,256900
11,408667	0,5	-0,249750
11,417000	0,5	-0,250750
11,425333	0,5	-0,252300
11,433667	0,5	-0,253300
11,442000	0,5	-0,254300
11,450333	0,5	-0,250750
11,458667	0,5	-0,250650
11,467000	0,5	-0,254250
11,475333	0,5	-0,252850
11,483667	0,5	-0,255000
11,492000	0,5	-0,257850
11,500333	0,5	-0,260350
11,508667	0,5	-0,260050
11,517000	0,5	-0,256100
11,525333	0,5	-0,260250
11,533667	0,5	-0,256400
11,542000	0,5	-0,260550
11,550333	0,5	-0,253250
11,558667	0,5	-0,248450
11,567000	0,5	-0,249800
11,575333	0,5	-0,244950
11,583667	0,5	-0,245550
11,592000	0,5	-0,235900
11,600333	0,5	-0,234950
11,608667	0,5	-0,222800
11,617000	0,5	-0,217700
11,625333	0,5	-0,213550
11,633667	0,5	-0,207400
11,642000	0,5	-0,199300
11,650333	0,5	-0,195050
11,658667	0,5	-0,189400
11,667000	0,5	-0,188450
11,675333	0,5	-0,184250
11,683667	0,5	-0,183600
11,692000	0,5	-0,185400
11,700333	0,5	-0,183400
11,708667	0,5	-0,179650
11,717000	0,5	-0,182000
11,725333	0,5	-0,185400
11,733667	0,5	-0,187950
11,742000	0,5	-0,187300
11,750333	0,5	-0,188150
11,758667	0,5	-0,188250
11,767000	0,5	-0,192350
11,775333	0,5	-0,192600
11,783667	0,5	-0,198900
11,792000	0,5	-0,200750
11,800333	0,5	-0,205450
11,808667	0,5	-0,207550
11,817000	0,5	-0,209050
11,825333	0,5	-0,207750
11,833667	0,5	-0,215050
11,842000	0,5	-0,213400
11,850333	0,5	-0,213600
11,858667	0,5	-0,212800
11,867000	0,5	-0,215300
11,875333	0,5	-0,215300
11,883667	0,5	-0,217700
11,892000	0,5	-0,220200
11,900333	0,5	-0,213700
11,908667	0,5	-0,217100
11,917000	0,5	-0,212100
11,925333	0,5	-0,213800
11,933667	0,5	-0,209750
11,942000	0,5	-0,208950
11,950333	0,5	-0,206500
11,958667	0,5	-0,202900
11,967000	0,5	-0,202400
11,975333	0,5	-0,196850
11,983667	0,5	-0,200950
11,992000	0,5	-0,196300
12,000333	0,5	-0,193850
12,008667	0,5	-0,193850
12,017000	0,5	-0,193400
12,025333	0,5	-0,195200
12,033667	0,5	-0,192000
12,042000	0,5	-0,187250
12,050333	0,5	-0,185550
12,058667	0,5	-0,181800
12,067000	0,5	-0,180000
12,075333	0,5	-0,174150
12,083667	0,5	-0,175700
12,092000	0,5	-0,172100
12,100333	0,5	-0,169100
12,108667	0,5	-0,166500
12,117000	0,5	-0,162000
12,125333	0,5	-0,162500
12,133667	0,5	-0,167250
12,142000	0,5	-0,162200
12,150333	0,5	-0,168750
12,158667	0,5	-0,172200
12,167000	0,5	-0,174100
12,175333	0,5	-0,181200
12,183667	0,5	-0,181750
12,192000	0,5	-0,183300
12,200333	0,5	-0,181250
12,208667	0,5	-0,179600
12,217000	0,5	-0,177250
12,225333	0,5	-0,175150
12,233667	0,5	-0,170350
12,242000	0,5	-0,164850
12,250333	0,5	-0,158950
12,258667	0,5	-0,148150
12,267000	0,5	-0,134850
12,275333	0,5	-0,126250
12,283667	0,5	-0,119650
12,292000	0,5	-0,105100
12,300333	0,5	-0,092000
12,308667	0,5	-0,086050
12,317000	0,5	-0,083150
12,325333	0,5	-0,083050
12,333667	0,5	-0,080300
12,342000	0,5	-0,079750
12,350333	0,5	-0,085800
12,358667	0,5	-0,091700
12,367000	0,5	-0,095150
12,375333	0,5	-0,101200
12,383667	0,5	-0,109700
12,392000	0,5	-0,111200
12,400333	0,5	-0,115250
12,408667	0,5	-0,111850
12,417000	0,5	-0,115600
12,425333	0,5	-0,119900
12,433667	0,5	-0,113300
12,442000	0,5	-0,111550
12,450333	0,5	-0,115950
12,458667	0,5	-0,110400
12,467000	0,5	-0,114250
12,475333	0,5	-0,110000
12,483667	0,5	-0,107850
12,492000	0,5	-0,099000
12,500333	0,5	-0,095200
12,508667	0,5	-0,092200
12,517000	0,5	-0,082100
12,525333	0,5	-0,078150
12,533667	0,5	-0,071700
12,542000	0,5	-0,069600
12,550333	0,5	-0,059750
12,558667	0,5	-0,055350
12,567000	0,5	-0,051800
12,575333	0,5	-0,055900
12,583667	0,5	-0,047750
12,592000	0,5	-0,045950
12,600333	0,5	-0,044800
12,608667	0,5	-0,039400
12,617000	0,5	-0,031600
12,625333	0,5	-0,023650
12,633667	0,5	-0,013300
12,642000	0,5	-0,011250
12,650333	0,5	-0,005250
12,658667	0,5	-0,002500
12,667000	0,5	-0,000950
12,675333	0,5	-0,003550
12,683667	0,5	-0,005450
12,692000	0,5	-0,004300
12,700333	0,5	-0,005350
12,708667	0,5	-0,002100
12,717000	0,5	-0,006100
12,725333	0,5	-0,007000
12,733667	0,5	-0,002150
12,742000	0,5	0,002300
12,750333	0,5	0,001250
12,758667	0,5	0,001150
12,767000	0,5	0,000650
12,775333	0,5	0,013500
12,783667	0,5	0,008950
12,792000	0,5	0,017200
12,800333	0,5	0,020000
12,808667	0,5	0,025300
12,817000	0,5	0,035350
12,825333	0,5	0,041950
12,833667	0,5	0,047250
12,842000	0,5	0,052650
12,850333	0,5	0,060150
12,858667	0,5	0,072650
12,867000	0,5	0,074500
12,875333	0,5	0,079950
12,883667	0,5	0,088850
12,892000	0,5	0,093900
12,900333	0,5	0,099150
12,908667	0,5	0,096900
12,917000	0,5	0,105250
12,925333	0,5	0,111600
12,933667	0,5	0,120750
12,942000	0,5	0,121650
12,950333	0,5	0,123650
12,958667	0,5	0,120800
12,967000	0,5	0,121300
12,975333	0,5	0,120000
12,983667	0,5	0,121450
12,992000	0,5	0,125750
13,000333	0,5	0,128550
13,008667	0,5	0,127400
13,017000	0,5	0,125150
13,025333	0,5	0,134050
13,033667	0,5	0,135650
13,042000	0,5	0,136450
13,050333	0,5	0,135050
13,058667	0,5	0,130450
13,067000	0,5	0,134750
13,075333	0,5	0,137650
13,083667	0,5	0,140600
13,092000	0,5	0,144750
13,100333	0,5	0,143300
13,108667	0,5	0,144350
13,117000	0,5	0,147450
13,125333	0,5	0,151700
13,133667	0,5	0,148650
13,142000	0,5	0,152350
13,150333	0,5	0,155800
13,158667	0,5	0,162800
13,167000	0,5	0,163500
13,175333	0,5	0,172100
13,183667	0,5	0,174650
13,192000	0,5	0,175500
13,200333	0,5	0,173800
13,208667	0,5	0,170550
13,217000	0,5	0,177100
13,225333	0,5	0,173150
13,233667	0,5	0,176550
13,242000	0,5	0,176300
13,250333	0,5	0,179600
13,258667	0,5	0,178900
13,267000	0,5	0,176300
13,275333	0,5	0,173200
13,283667	0,5	0,181200
13,292000	0,5	0,180950
13,300333	0,5	0,185900
13,308667	0,5	0,181450
13,317000	0,5	0,184900
13,325333	0,5	0,188700
13,333667	0,5	0,185500
13,342000	0,5	0,183950
13,350333	0,5	0,182400
13,358667	0,5	0,182500
13,367000	0,5	0,187100
13,375333	0,5	0,190350
13,383667	0,5	0,198050
13,392000	0,5	0,201750
13,400333	0,5	0,198300
13,408667	0,5	0,201200
13,417000	0,5	0,197350
13,425333	0,5	0,192900
13,433667	0,5	0,185650
13,442000	0,5	0,185300
13,450333	0,5	0,180350
13,458667	0,5	0,172750
13,467000	0,5	0,176550
13,475333	0,5	0,189950
13,483667	0,5	0,199550
13,492000	0,5	0,210150
13,500333	0,5	0,221650
13,508667	0,5	0,238150
13,517000	0,5	0,249600
13,525333	0,5	0,255700
13,533667	0,5	0,252950
13,542000	0,5	0,247350
13,550333	0,5	0,233200
13,558667	0,5	0,218900
13,567000	0,5	0,209300
13,575333	0,5	0,196900
13,583667	0,5	0,195700
13,592000	0,5	0,192700
13,600333	0,5	0,187050
13,608667	0,5	0,185600
13,617000	0,5	0,191500
13,625333	0,5	0,188150
13,633667	0,5	0,188050
13,642000	0,5	0,193550
13,650333	0,5	0,213550
13,658667	0,5	0,247700
13,667000	0,5	0,280200
13,675333	0,5	0,302050
13,683667	0,5	0,314700
13,692000	0,5	0,310750
13,700333	0,5	0,299200
13,708667	0,5	0,278450
13,717000	0,5	0,262300
13,725333	0,5	0,249250
13,733667	0,5	0,239300
13,742000	0,5	0,239350
13,750333	0,5	0,234050
13,758667	0,5	0,240850
13,767000	0,5	0,250850
13,775333	0,5	0,261100
13,783667	0,5	0,273850
13,792000	0,5	0,292650
13,800333	0,5	0,326200
13,808667	0,5	0,377050
13,817000	0,5	0,416550
13,825333	0,5	0,448250
13,833667	0,5	0,449050
13,842000	0,5	0,436850
13,850333	0,5	0,401550
13,858667	0,5	0,358450
13,867000	0,5	0,316250
13,875333	0,5	0,285700
13,883667	0,5	0,269750
13,892000	0,5	0,262700
13,900333	0,5	0,253350
13,908667	0,5	0,273100
13,917000	0,5	0,292500
13,925333	0,5	0,318200
13,933667	0,5	0,349100
13,942000	0,5	0,380050
13,950333	0,5	0,416400
13,958667	0,5	0,431150
13,967000	0,5	0,430150
13,975333	0,5	0,408800
13,983667	0,5	0,374500
13,992000	0,5	0,328500
14,000333	0,5	0,290000
14,008667	0,5	0,258950
14,017000	0,5	0,248700
14,025333	0,5	0,249450
14,033667	0,5	0,268700
14,042000	0,5	0,291850
14,050333	0,5	0,319500
14,058667	0,5	0,349050
14,067000	0,5	0,362450
14,075333	0,5	0,367300
14,083667	0,5	0,350100
14,092000	0,5	0,324750
14,100333	0,5	0,295100
14,108667	0,5	0,266900
14,117000	0,5	0,232950
14,125333	0,5	0,205950
14,133667	0,5	0,197400
14,142000	0,5	0,196000
14,150333	0,5	0,202950
14,158667	0,5	0,216850
14,167000	0,5	0,229100
14,175333	0,5	0,240800
14,183667	0,5	0,239250
14,192000	0,5	0,224100
14,200333	0,5	0,209200
14,208667	0,5	0,192600
14,217000	0,5	0,162050
14,225333	0,5	0,144450
14,233667	0,5	0,123600
14,242000	0,5	0,114600
14,250333	0,5	0,125050
14,258667	0,5	0,140200
14,267000	0,5	0,161900
14,275333	0,5	0,179200
14,283667	0,5	0,191850
14,292000	0,5	0,192050
14,300333	0,5	0,192150
14,308667	0,5	0,173850
14,317000	0,5	0,157550
14,325333	0,5	0,140150
14,333667	0,5	0,122800
14,342000	0,5	0,097150
14,350333	0,5	0,096250
14,358667	0,5	0,091600
14,367000	0,5	0,090000
14,375333	0,5	0,081750
14,383667	0,5	0,074450
14,392000	0,5	0,069300
14,400333	0,5	0,066000
14,408667	0,5	0,057750
14,417000	0,5	0,046600
14,425333	0,5	0,046650
14,433667	0,5	0,041350
14,442000	0,5	0,042400
14,450333	0,5	0,035150
14,458667	0,5	0,036400
14,467000	0,5	0,029900
14,475333	0,5	0,036050
14,483667	0,5	0,019850
14,492000	0,5	0,015500
14,500333	0,5	0,014600
14,508667	0,5	0,011700
14,517000	0,5	0,005400
14,525333	0,5	-0,003450
14,533667	0,5	-0,009100
14,542000	0,5	-0,001150
14,550333	0,5	-0,007000
14,558667	0,5	-0,004600
14,567000	0,5	-0,008600
14,575333	0,5	-0,008400
14,583667	0,5	-0,013950
14,592000	0,5	-0,016500
14,600333	0,5	-0,021050
14,608667	0,5	-0,025450
14,617000	0,5	-0,024600
14,625333	0,5	-0,020000
14,633667	0,5	-0,026800
14,642000	0,5	-0,024300
14,650333	0,5	-0,017550
14,658667	0,5	-0,018050
14,667000	0,5	-0,019500
14,675333	0,5	-0,035250
14,683667	0,5	-0,037400
14,692000	0,5	-0,041050
14,700333	0,5	-0,043200
14,708667	0,5	-0,049700
14,717000	0,5	-0,049250
14,725333	0,5	-0,045200
14,733667	0,5	-0,041600
14,742000	0,5	-0,037100
14,750333	0,5	-0,039750
14,758667	0,5	-0,036200
14,767000	0,5	-0,040600
14,775333	0,5	-0,037300
14,783667	0,5	-0,060300
14,792000	0,5	-0,051050
14,800333	0,5	-0,058850
14,808667	0,5	-0,059050
14,817000	0,5	-0,061200
14,825333	0,5	-0,067000
14,833667	0,5	-0,069350
14,842000	0,5	-0,067200
14,850333	0,5	-0,069700
14,858667	0,5	-0,072800
14,867000	0,5	-0,078600
14,875333	0,5	-0,074600
14,883667	0,5	-0,078950
14,892000	0,5	-0,076850
14,900333	0,5	-0,072900
14,908667	0,5	-0,071750
14,917000	0,5	-0,067250
14,925333	0,5	-0,067550
14,933667	0,5	-0,076600
14,942000	0,5	-0,070700
14,950333	0,5	-0,072600
14,958667	0,5	-0,073650
14,967000	0,5	-0,082250
14,975333	0,5	-0,095300
14,983667	0,5	-0,092900
14,992000	0,5	-0,097350
15,000333	0,5	-0,098900
15,008667	0,5	-0,105250
15,017000	0,5	-0,107700
15,025333	0,5	-0,116050
15,033667	0,5	-0,111900
15,042000	0,5	-0,119350
15,050333	0,5	-0,121650
15,058667	0,5	-0,117850
15,067000	0,5	-0,116200
15,075333	0,5	-0,121150
15,083667	0,5	-0,126250
15,092000	0,5	-0,122800
15,100333	0,5	-0,125150
15,108667	0,5	-0,129400
15,117000	0,5	-0,138700
15,125333	0,5	-0,142350
15,133667	0,5	-0,142150
15,142000	0,5	-0,140050
15,150333	0,5	-0,142500
15,158667	0,5	-0,137600
15,167000	0,5	-0,140600
15,175333	0,5	-0,135300
15,183667	0,5	-0,132450
15,192000	0,5	-0,133500
15,200333	0,5	-0,136900
15,208667	0,5	-0,132050
15,217000	0,5	-0,134400
15,225333	0,5	-0,141650
15,233667	0,5	-0,140450
15,242000	0,5	-0,137500
15,250333	0,5	-0,140400
15,258667	0,5	-0,143850
15,267000	0,5	-0,146400
15,275333	0,5	-0,148950
15,283667	0,5	-0,138400
15,292000	0,5	-0,132150
15,300333	0,5	-0,125100
15,308667	0,5	-0,123900
15,317000	0,5	-0,112650
15,325333	0,5	-0,112250
15,333667	0,5	-0,106450
15,342000	0,5	-0,109150
15,350333	0,5	-0,102000
15,358667	0,5	-0,098800
15,367000	0,5	-0,097300
15,375333	0,5	-0,102150
15,383667	0,5	-0,089900
15,392000	0,5	-0,084200
15,400333	0,5	-0,084200
15,408667	0,5	-0,091050
15,417000	0,5	-0,091050
15,425333	0,5	-0,084900
15,433667	0,5	-0,090500
15,442000	0,5	-0,087100
15,450333	0,5	-0,084350
15,458667	0,5	-0,079000
15,467000	0,5	-0,073900
15,475333	0,5	-0,064750
15,483667	0,5	-0,055750
15,492000	0,5	-0,053500
15,500333	0,5	-0,052450
15,508667	0,5	-0,046650
15,517000	0,5	-0,057800
15,525333	0,5	-0,047100
15,533667	0,5	-0,043700
15,542000	0,5	-0,035350
15,550333	0,5	-0,032050
15,558667	0,5	-0,038250
15,567000	0,5	-0,042450
15,575333	0,5	-0,048550
15,583667	0,5	-0,067850
15,592000	0,5	-0,084100
15,600333	0,5	-0,100750
15,608667	0,5	-0,112800
15,617000	0,5	-0,119000
15,625333	0,5	-0,129100
15,633667	0,5	-0,137250
15,642000	0,5	-0,146200
15,650333	0,5	-0,144050
15,658667	0,5	-0,144850
15,667000	0,5	-0,166150
15,675333	0,5	-0,159450
15,683667	0,5	-0,156350
15,692000	0,5	-0,166600
15,700333	0,5	-0,171000
15,708667	0,5	-0,187300
15,717000	0,5	-0,179100
15,725333	0,5	-0,183550
15,733667	0,5	-0,186300
15,742000	0,5	-0,190100
15,750333	0,5	-0,185050
15,758667	0,5	-0,187850
15,767000	0,5	-0,187650
15,775333	0,5	-0,190500
15,783667	0,5	-0,189300
15,792000	0,5	-0,189950
15,800333	0,5	-0,191450
15,808667	0,5	-0,186200
15,817000	0,5	-0,197750
15,825333	0,5	-0,186550
15,833667	0,5	-0,188900
15,842000	0,5	-0,186700
15,850333	0,5	-0,192700
15,858667	0,5	-0,198800
15,867000	0,5	-0,195300
15,875333	0,5	-0,190550
15,883667	0,5	-0,192300
15,892000	0,5	-0,188250
15,900333	0,5	-0,192850
15,908667	0,5	-0,189100
15,917000	0,5	-0,193700
15,925333	0,5	-0,197600
15,933667	0,5	-0,199450
15,942000	0,5	-0,202750
15,950333	0,5	-0,203000
15,958667	0,5	-0,204700
15,967000	0,5	-0,210600
15,975333	0,5	-0,206500
15,983667	0,5	-0,210350
15,992000	0,5	-0,218650
16,000333	0,5	-0,223800
16,008667	0,5	-0,234200
16,017000	0,5	-0,227500
16,025333	0,5	-0,230750
16,033667	0,5	-0,226450
16,042000	0,5	-0,226300
16,050333	0,5	-0,223950
16,058667	0,5	-0,226000
16,067000	0,5	-0,223250
16,075333	0,5	-0,221500
16,083667	0,5	-0,219750
16,092000	0,5	-0,206950
16,100333	0,5	-0,197750
16,108667	0,5	-0,200150
16,117000	0,5	-0,184150
16,125333	0,5	-0,177650
16,133667	0,5	-0,175500
16,142000	0,5	-0,177700
16,150333	0,5	-0,190000
16,158667	0,5	-0,192250
16,167000	0,5	-0,195250
16,175333	0,5	-0,187200
16,183667	0,5	-0,184800
16,192000	0,5	-0,171450
16,200333	0,5	-0,164000
16,208667	0,5	-0,150650
16,217000	0,5	-0,143850
16,225333	0,5	-0,141050
16,233667	0,5	-0,134150
16,242000	0,5	-0,131500
16,250333	0,5	-0,139400
16,258667	0,5	-0,140350
16,267000	0,5	-0,138300
16,275333	0,5	-0,131250
16,283667	0,5	-0,130350
16,292000	0,5	-0,139900
16,300333	0,5	-0,135100
16,308667	0,5	-0,130850
16,317000	0,5	-0,123700
16,325333	0,5	-0,120000
16,333667	0,5	-0,111250
16,342000	0,5	-0,104350
16,350333	0,5	-0,096200
16,358667	0,5	-0,091500
16,367000	0,5	-0,080200
16,375333	0,5	-0,077800
16,383667	0,5	-0,071200
16,392000	0,5	-0,057500
16,400333	0,5	-0,058150
16,408667	0,5	-0,048550
16,417000	0,5	-0,038950
16,425333	0,5	-0,035750
16,433667	0,5	-0,033000
16,442000	0,5	-0,035350
16,450333	0,5	-0,025500
16,458667	0,5	-0,013800
16,467000	0,5	-0,008350
16,475333	0,5	0,002050
16,483667	0,5	0,007050
16,492000	0,5	0,014400
16,500333	0,5	0,017900
16,508667	0,5	0,029050
16,517000	0,5	0,032400
16,525333	0,5	0,041650
16,533667	0,5	0,049650
16,542000	0,5	0,062900
16,550333	0,5	0,049150
16,558667	0,5	0,069600
16,567000	0,5	0,079300
16,575333	0,5	0,085200
16,583667	0,5	0,089200
16,592000	0,5	0,083200
16,600333	0,5	0,097700
16,608667	0,5	0,105400
16,617000	0,5	0,102400
16,625333	0,5	0,106100
16,633667	0,5	0,106350
16,642000	0,5	0,110050
16,650333	0,5	0,111700
16,658667	0,5	0,114500
16,667000	0,5	0,117400
16,675333	0,5	0,118500
16,683667	0,5	0,134700
16,692000	0,5	0,137600
16,700333	0,5	0,129950
16,708667	0,5	0,138600
16,717000	0,5	0,139250
16,725333	0,5	0,134000
16,733667	0,5	0,125900
16,742000	0,5	0,112050
16,750333	0,5	0,120050
16,758667	0,5	0,118350
16,767000	0,5	0,120800
16,775333	0,5	0,117100
16,783667	0,5	0,115150
16,792000	0,5	0,114550
16,800333	0,5	0,113400
16,808667	0,5	0,110550
16,817000	0,5	0,100150
16,825333	0,5	0,110400
16,833667	0,5	0,107400
16,842000	0,5	0,105600
16,850333	0,5	0,099700
16,858667	0,5	0,107350
16,867000	0,5	0,102500
16,875333	0,5	0,096200
16,883667	0,5	0,081650
16,892000	0,5	0,078200
16,900333	0,5	0,079400
16,908667	0,5	0,082200
16,917000	0,5	0,073850
16,925333	0,5	0,076500
16,933667	0,5	0,074650
16,942000	0,5	0,074800
16,950333	0,5	0,072000
16,958667	0,5	0,072600
16,967000	0,5	0,066300
16,975333	0,5	0,063150
16,983667	0,5	0,064550
16,992000	0,5	0,052850
17,000333	0,5	0,056050
17,008667	0,5	0,050850
17,017000	0,5	0,042950
17,025333	0,5	0,030350
17,033667	0,5	0,020000
17,042000	0,5	0,009550
17,050333	0,5	0,013200
17,058667	0,5	0,006450
17,067000	0,5	0,005150
17,075333	0,5	0,002000
17,083667	0,5	-0,002200
17,092000	0,5	-0,006500
17,100333	0,5	-0,009350
17,108667	0,5	-0,019350
17,117000	0,5	-0,024550
17,125333	0,5	-0,016050
17,133667	0,5	-0,026100
17,142000	0,5	-0,035600
17,150333	0,5	-0,034500
17,158667	0,5	-0,036800
17,167000	0,5	-0,044000
17,175333	0,5	-0,057050
17,183667	0,5	-0,067650
17,192000	0,5	-0,069700
17,200333	0,5	-0,073500
17,208667	0,5	-0,076650
17,217000	0,5	-0,082250
17,225333	0,5	-0,083700
17,233667	0,5	-0,088550
17,242000	0,5	-0,085750
17,250333	0,5	-0,089900
17,258667	0,5	-0,093650
17,267000	0,5	-0,091400
17,275333	0,5	-0,090800
17,283667	0,5	-0,105000
17,292000	0,5	-0,105450
17,300333	0,5	-0,102650
17,308667	0,5	-0,111000
17,317000	0,5	-0,116700
17,325333	0,5	-0,131550
17,333667	0,5	-0,135350
17,342000	0,5	-0,140300
17,350333	0,5	-0,136750
17,358667	0,5	-0,144450
17,367000	0,5	-0,142300
17,375333	0,5	-0,142550
17,383667	0,5	-0,143450
17,392000	0,5	-0,147700
17,400333	0,5	-0,149200
17,408667	0,5	-0,159400
17,417000	0,5	-0,154800
17,425333	0,5	-0,154850
17,433667	0,5	-0,164450
17,442000	0,5	-0,159800
17,450333	0,5	-0,158200
17,458667	0,5	-0,159700
17,467000	0,5	-0,169550
17,475333	0,5	-0,185050
17,483667	0,5	-0,185550
17,492000	0,5	-0,183350
17,500333	0,5	-0,194650
17,508667	0,5	-0,194550
17,517000	0,5	-0,203600
17,525333	0,5	-0,205250
17,533667	0,5	-0,212700
17,542000	0,5	-0,214000
17,550333	0,5	-0,218100
17,558667	0,5	-0,223250
17,567000	0,5	-0,227350
17,575333	0,5	-0,233100
17,583667	0,5	-0,249600
17,592000	0,5	-0,246300
17,600333	0,5	-0,250850
17,608667	0,5	-0,257500
17,617000	0,5	-0,271450
17,625333	0,5	-0,283400
17,633667	0,5	-0,278750
17,642000	0,5	-0,286200
17,650333	0,5	-0,291000
17,658667	0,5	-0,295800
17,667000	0,5	-0,298900
17,675333	0,5	-0,302300
17,683667	0,5	-0,297250
17,692000	0,5	-0,302700
17,700333	0,5	-0,311050
17,708667	0,5	-0,316200
17,717000	0,5	-0,304600
17,725333	0,5	-0,321800
17,733667	0,5	-0,317500
17,742000	0,5	-0,320700
17,750333	0,5	-0,320700
17,758667	0,5	-0,330600
17,767000	0,5	-0,342550
17,775333	0,5	-0,351450
17,783667	0,5	-0,347650
17,792000	0,5	-0,351200
17,800333	0,5	-0,357550
17,808667	0,5	-0,357400
17,817000	0,5	-0,360400
17,825333	0,5	-0,361400
17,833667	0,5	-0,367050
17,842000	0,5	-0,367350
17,850333	0,5	-0,370950
17,858667	0,5	-0,366200
17,867000	0,5	-0,365500
17,875333	0,5	-0,379750
17,883667	0,5	-0,374550
17,892000	0,5	-0,376350
17,900333	0,5	-0,385550
17,908667	0,5	-0,391000
17,917000	0,5	-0,402650
17,925333	0,5	-0,402100
17,933667	0,5	-0,398850
17,942000	0,5	-0,394200
17,950333	0,5	-0,400650
17,958667	0,5	-0,397550
17,967000	0,5	-0,398000
17,975333	0,5	-0,396400
17,983667	0,5	-0,398150
17,992000	0,5	-0,404900
18,000333	0,5	-0,402000
18,008667	0,5	-0,398350
18,017000	0,5	-0,400600
18,025333	0,5	-0,410700
18,033667	0,5	-0,399850
18,042000	0,5	-0,405450
18,050333	0,5	-0,407000
18,058667	0,5	-0,417500
18,067000	0,5	-0,427400
18,075333	0,5	-0,429500
18,083667	0,5	-0,421600
18,092000	0,5	-0,430600
18,100333	0,5	-0,426350
18,108667	0,5	-0,428200
18,117000	0,5	-0,426050
18,125333	0,5	-0,427750
18,133667	0,5	-0,430850
18,142000	0,5	-0,433150
18,150333	0,5	-0,434450
18,158667	0,5	-0,431400
18,167000	0,5	-0,440800
18,175333	0,5	-0,436350
18,183667	0,5	-0,434150
18,192000	0,5	-0,441100
18,200333	0,5	-0,444100
18,208667	0,5	-0,458150
18,217000	0,5	-0,464400
18,225333	0,5	-0,459500
18,233667	0,5	-0,461400
18,242000	0,5	-0,459050
18,250333	0,5	-0,468050
18,258667	0,5	-0,463150
18,267000	0,5	-0,467750
18,275333	0,5	-0,463700
18,283667	0,5	-0,467200
18,292000	0,5	-0,471100
18,300333	0,5	-0,462500
18,308667	0,5	-0,465050
18,317000	0,5	-0,478250
18,325333	0,5	-0,469250
18,333667	0,5	-0,469800
18,342000	0,5	-0,470250
18,350333	0,5	-0,477650
18,358667	0,5	-0,491400
18,367000	0,5	-0,487550
18,375333	0,5	-0,490050
18,383667	0,5	-0,490900
18,392000	0,5	-0,499050
18,400333	0,5	-0,491100
18,408667	0,5	-0,492700
18,417000	0,5	-0,487650
18,425333	0,5	-0,491600
18,433667	0,5	-0,491600
18,442000	0,5	-0,489350
18,450333	0,5	-0,483400
18,458667	0,5	-0,488600
18,467000	0,5	-0,490250
18,475333	0,5	-0,491800
18,483667	0,5	-0,491250
18,492000	0,5	-0,498000
18,500333	0,5	-0,507000
18,508667	0,5	-0,509850
18,517000	0,5	-0,507350
18,525333	0,5	-0,499750
18,533667	0,5	-0,507350
18,542000	0,5	-0,506200
18,550333	0,5	-0,509400
18,558667	0,5	-0,505900
18,567000	0,5	-0,507700
18,575333	0,5	-0,505550
18,583667	0,5	-0,513100
18,592000	0,5	-0,506300
18,600333	0,5	-0,500550
18,608667	0,5	-0,509300
18,617000	0,5	-0,502900
18,625333	0,5	-0,496350
18,633667	0,5	-0,498950
18,642000	0,5	-0,502150
18,650333	0,5	-0,516950
18,658667	0,5	-0,515300
18,667000	0,5	-0,503550
18,675333	0,5	-0,509250
18,683667	0,5	-0,512550
18,692000	0,5	-0,513600
18,700333	0,5	-0,509950
18,708667	0,5	-0,513500
18,717000	0,5	-0,509650
18,725333	0,5	-0,515350
18,733667	0,5	-0,516200
18,742000	0,5	-0,512950
18,750333	0,5	-0,506650
18,758667	0,5	-0,521250
18,767000	0,5	-0,510050
18,775333	0,5	-0,512550
18,783667	0,5	-0,517850
18,792000	0,5	-0,526950
18,800333	0,5	-0,539250
18,808667	0,5	-0,531800
18,817000	0,5	-0,530300
18,825333	0,5	-0,532350
18,833667	0,5	-0,536150
18,842000	0,5	-0,532200
18,850333	0,5	-0,539350
18,858667	0,5	-0,536450
18,867000	0,5	-0,537300
18,875333	0,5	-0,542750
18,883667	0,5	-0,541250
18,892000	0,5	-0,534750
18,900333	0,5	-0,538350
18,908667	0,5	-0,542900
18,917000	0,5	-0,540650
18,925333	0,5	-0,543850
18,933667	0,5	-0,551000
18,942000	0,5	-0,564450
18,950333	0,5	-0,575600
18,958667	0,5	-0,571450
18,967000	0,5	-0,568850
18,975333	0,5	-0,572750
18,983667	0,5	-0,573000
18,992000	0,5	-0,572600
19,000333	0,5	-0,572400
19,008667	0,5	-0,572200
19,017000	0,5	-0,571100
19,025333	0,5	-0,577200
19,033667	0,5	-0,570000
19,042000	0,5	-0,567350
19,050333	0,5	-0,577750
19,058667	0,5	-0,576100
19,067000	0,5	-0,573300
19,075333	0,5	-0,583600
19,083667	0,5	-0,588750
19,092000	0,5	-0,602500
19,100333	0,5	-0,607100
19,108667	0,5	-0,606100
19,117000	0,5	-0,603900
19,125333	0,5	-0,605600
19,133667	0,5	-0,603050
19,142000	0,5	-0,602750
19,150333	0,5	-0,604850
19,158667	0,5	-0,605650
19,167000	0,5	-0,609350
19,175333	0,5	-0,609800
19,183667	0,5	-0,602800
19,192000	0,5	-0,602700
19,200333	0,5	-0,610500
19,208667	0,5	-0,604200
19,217000	0,5	-0,605600
19,225333	0,5	-0,609350
19,233667	0,5	-0,623250
19,242000	0,5	-0,631450
19,250333	0,5	-0,628150
19,258667	0,5	-0,627250
19,267000	0,5	-0,633750
19,275333	0,5	-0,632700
19,283667	0,5	-0,634950
19,292000	0,5	-0,632400
19,300333	0,5	-0,629950
19,308667	0,5	-0,633050
19,317000	0,5	-0,638250
19,325333	0,5	-0,634400
19,333667	0,5	-0,626750
19,342000	0,5	-0,639100
19,350333	0,5	-0,636350
19,358667	0,5	-0,636350
19,367000	0,5	-0,635950
19,375333	0,5	-0,645050
19,383667	0,5	-0,654500
19,392000	0,5	-0,658500
19,400333	0,5	-0,649900
19,408667	0,5	-0,653550
19,417000	0,5	-0,653700
19,425333	0,5	-0,657600
19,433667	0,5	-0,652550
19,442000	0,5	-0,653800
19,450333	0,5	-0,654250
19,458667	0,5	-0,655850
19,467000	0,5	-0,664700
19,475333	0,5	-0,653650
19,483667	0,5	-0,652100
19,492000	0,5	-0,665750
19,500333	0,5	-0,655350
19,508667	0,5	-0,653850
19,517000	0,5	-0,657100
19,525333	0,5	-0,660700
19,533667	0,5	-0,679550
19,542000	0,5	-0,670250
19,550333	0,5	-0,671150
19,558667	0,5	-0,665000
19,567000	0,5	-0,676800
19,575333	0,5	-0,668950
19,583667	0,5	-0,672350
19,592000	0,5	-0,666000
19,600333	0,5	-0,667650
19,608667	0,5	-0,666650
19,617000	0,5	-0,663800
19,625333	0,5	-0,661250
19,633667	0,5	-0,657500
19,642000	0,5	-0,666400
19,650333	0,5	-0,653100
19,658667	0,5	-0,653650
19,667000	0,5	-0,661800
19,675333	0,5	-0,672250
19,683667	0,5	-0,675400
19,692000	0,5	-0,673650
19,700333	0,5	-0,665750
19,708667	0,5	-0,672850
19,717000	0,5	-0,667100
19,725333	0,5	-0,671200
19,733667	0,5	-0,663950
19,742000	0,5	-0,665950
19,750333	0,5	-0,660150
19,758667	0,5	-0,660850
19,767000	0,5	-0,662050
19,775333	0,5	-0,653950
19,783667	0,5	-0,656600
19,792000	0,5	-0,655250
19,800333	0,5	-0,653650
19,808667	0,5	-0,649100
19,817000	0,5	-0,657300
19,825333	0,5	-0,666700
19,833667	0,5	-0,677050
19,842000	0,5	-0,665550
19,850333	0,5	-0,665800
19,858667	0,5	-0,661250
19,867000	0,5	-0,666150
19,875333	0,5	-0,662950
19,883667	0,5	-0,665950
19,892000	0,5	-0,659750
19,900333	0,5	-0,656750
19,908667	0,5	-0,663550
19,917000	0,5	-0,648850
19,925333	0,5	-0,641550
19,933667	0,5	-0,650400
19,942000	0,5	-0,644400
19,950333	0,5	-0,644250
19,958667	0,5	-0,651350
19,967000	0,5	-0,662150
19,975333	0,5	-0,669550
19,983667	0,5	-0,659850
19,992000	0,5	-0,664400
20,000333	0,5	-0,653150
20,008667	0,5	-0,654300
20,017000	0,5	-0,642200
20,025333	0,5	-0,649000
20,033667	0,5	-0,640350
20,042000	0,5	-0,640150
20,050333	0,5	-0,636150
20,058667	0,5	-0,634100
20,067000	0,5	-0,624100
20,075333	0,5	-0,630050
20,083667	0,5	-0,631450
20,092000	0,5	-0,625000
20,100333	0,5	-0,622400
20,108667	0,5	-0,625400
20,117000	0,5	-0,641150
20,125333	0,5	-0,641550
20,133667	0,5	-0,645850
20,142000	0,5	-0,635150
20,150333	0,5	-0,640500
20,158667	0,5	-0,639100
20,167000	0,5	-0,642650
20,175333	0,5	-0,641550
20,183667	0,5	-0,641150
20,192000	0,5	-0,640450
20,200333	0,5	-0,644200
20,208667	0,5	-0,632150
20,217000	0,5	-0,627700
20,225333	0,5	-0,634050
20,233667	0,5	-0,632250
20,242000	0,5	-0,629100
20,250333	0,5	-0,632950
20,258667	0,5	-0,644100
20,267000	0,5	-0,656300
20,275333	0,5	-0,657100
20,283667	0,5	-0,649900
20,292000	0,5	-0,654750
20,300333	0,5	-0,650500
20,308667	0,5	-0,656350
20,317000	0,5	-0,655400
20,325333	0,5	-0,656550
20,333667	0,5	-0,652450
20,342000	0,5	-0,658300
20,350333	0,5	-0,656150
20,358667	0,5	-0,647400
20,367000	0,5	-0,650250
20,375333	0,5	-0,658900
20,383667	0,5	-0,651200
20,392000	0,5	-0,651750
20,400333	0,5	-0,659200
20,408667	0,5	-0,669200
20,417000	0,5	-0,676550
20,425333	0,5	-0,668900
20,433667	0,5	-0,673150
20,442000	0,5	-0,669150
20,450333	0,5	-0,678450
20,458667	0,5	-0,670950
20,467000	0,5	-0,672900
20,475333	0,5	-0,667450
20,483667	0,5	-0,668800
20,492000	0,5	-0,668950
20,500333	0,5	-0,659250
20,508667	0,5	-0,648250
20,517000	0,5	-0,652950
20,525333	0,5	-0,651600
20,533667	0,5	-0,655000
20,542000	0,5	-0,653500
20,550333	0,5	-0,665200
20,558667	0,5	-0,680600
20,567000	0,5	-0,672850
20,575333	0,5	-0,668600
20,583667	0,5	-0,660050
20,592000	0,5	-0,662750
20,600333	0,5	-0,659850
20,608667	0,5	-0,661100
20,617000	0,5	-0,655450
20,625333	0,5	-0,658400
20,633667	0,5	-0,649300
20,642000	0,5	-0,650000
20,650333	0,5	-0,629700
20,658667	0,5	-0,626100
20,667000	0,5	-0,628100
20,675333	0,5	-0,627600
20,683667	0,5	-0,628600
20,692000	0,5	-0,631550
20,700333	0,5	-0,634450
20,708667	0,5	-0,651250
20,717000	0,5	-0,644300
20,725333	0,5	-0,638150
20,733667	0,5	-0,636900
20,742000	0,5	-0,632800
20,750333	0,5	-0,634200
20,758667	0,5	-0,629400
20,767000	0,5	-0,623600
20,775333	0,5	-0,615900
20,783667	0,5	-0,614100
20,792000	0,5	-0,598850
20,800333	0,5	-0,582100
20,808667	0,5	-0,570450
20,817000	0,5	-0,571400
20,825333	0,5	-0,562350
20,833667	0,5	-0,563350
20,842000	0,5	-0,561050
20,850333	0,5	-0,574100
20,858667	0,5	-0,574000
20,867000	0,5	-0,556450
20,875333	0,5	-0,553650
20,883667	0,5	-0,547500
20,892000	0,5	-0,541650
20,900333	0,5	-0,530400
20,908667	0,5	-0,528150
20,917000	0,5	-0,517750
20,925333	0,5	-0,518600
20,933667	0,5	-0,508700
20,942000	0,5	-0,487300
20,950333	0,5	-0,475400
20,958667	0,5	-0,473850
20,967000	0,5	-0,471000
20,975333	0,5	-0,472900
20,983667	0,5	-0,475450
20,992000	0,5	-0,489850
21,000333	0,5	-0,494300
21,008667	0,5	-0,491850
21,017000	0,5	-0,485050
21,025333	0,5	-0,476050
21,033667	0,5	-0,474900
21,042000	0,5	-0,472800
21,050333	0,5	-0,470500
21,058667	0,5	-0,460400
21,067000	0,5	-0,456450
21,075333	0,5	-0,452250
21,083667	0,5	-0,442700
21,092000	0,5	-0,418000
21,100333	0,5	-0,405700
21,108667	0,5	-0,406750
21,117000	0,5	-0,405300
21,125333	0,5	-0,404350
21,133667	0,5	-0,411450
21,142000	0,5	-0,422900
21,150333	0,5	-0,421550
21,158667	0,5	-0,418700
21,167000	0,5	-0,410950
21,175333	0,5	-0,402400
21,183667	0,5	-0,392050
21,192000	0,5	-0,387000
21,200333	0,5	-0,375550
21,208667	0,5	-0,368200
21,217000	0,5	-0,362000
21,225333	0,5	-0,360500
21,233667	0,5	-0,336000
21,242000	0,5	-0,314550
21,250333	0,5	-0,311350
21,258667	0,5	-0,309400
21,267000	0,5	-0,303750
21,275333	0,5	-0,307050
21,283667	0,5	-0,305000
21,292000	0,5	-0,312550
21,300333	0,5	-0,298750
21,308667	0,5	-0,289300
21,317000	0,5	-0,274350
21,325333	0,5	-0,257100
21,333667	0,5	-0,242450
21,342000	0,5	-0,223250
21,350333	0,5	-0,197300
21,358667	0,5	-0,167000
21,367000	0,5	-0,146900
21,375333	0,5	-0,122700
21,383667	0,5	-0,104150
21,392000	0,5	-0,089050
21,400333	0,5	-0,100650
21,408667	0,5	-0,104900
21,417000	0,5	-0,110600
21,425333	0,5	-0,111900
21,433667	0,5	-0,120000
21,442000	0,5	-0,119200
21,450333	0,5	-0,102000
21,458667	0,5	-0,093950
21,467000	0,5	-0,092000
21,475333	0,5	-0,089600
21,483667	0,5	-0,086150
21,492000	0,5	-0,078400
21,500333	0,5	-0,070000
21,508667	0,5	-0,069100
21,517000	0,5	-0,063150
21,525333	0,5	-0,041050
21,533667	0,5	-0,017700
21,542000	0,5	-0,003550
21,550333	0,5	-0,001450
21,558667	0,5	0,006550
21,567000	0,5	0,023600
21,575333	0,5	0,023900
21,583667	0,5	0,026400
21,592000	0,5	0,038450
21,600333	0,5	0,055200
21,608667	0,5	0,064000
21,617000	0,5	0,076300
21,625333	0,5	0,085450
21,633667	0,5	0,092850
21,642000	0,5	0,110100
21,650333	0,5	0,124150
21,658667	0,5	0,143600
21,667000	0,5	0,156050
21,675333	0,5	0,196200
21,683667	0,5	0,221300
21,692000	0,5	0,225600
21,700333	0,5	0,237700
21,708667	0,5	0,246650
21,717000	0,5	0,252800
21,725333	0,5	0,262450
21,733667	0,5	0,264900
21,742000	0,5	0,289500
21,750333	0,5	0,306850
21,758667	0,5	0,326600
21,767000	0,5	0,345500
21,775333	0,5	0,363000
21,783667	0,5	0,380650
21,792000	0,5	0,398500
21,800333	0,5	0,419350
21,808667	0,5	0,432950
21,817000	0,5	0,462300
21,825333	0,5	0,494900
21,833667	0,5	0,510900
21,842000	0,5	0,523000
21,850333	0,5	0,550950
21,858667	0,5	0,566650
21,867000	0,5	0,588600
21,875333	0,5	0,603600
21,883667	0,5	0,625100
21,892000	0,5	0,663600
21,900333	0,5	0,697250
21,908667	0,5	0,723400
21,917000	0,5	0,753100
21,925333	0,5	0,783300
21,933667	0,5	0,805600
21,942000	0,5	0,830000
21,950333	0,5	0,845200
21,958667	0,5	0,868000
21,967000	0,5	0,904000
21,975333	0,5	0,931300
21,983667	0,5	0,941900
21,992000	0,5	0,967700
22,000333	0,5	0,985700
22,008667	0,5	1,003450
22,017000	0,5	1,010950
22,025333	0,5	1,029300
22,033667	0,5	1,056750
22,042000	0,5	1,082150
22,050333	0,5	1,107100
22,058667	0,5	1,128450
22,067000	0,5	1,159850
22,075333	0,5	1,183950
22,083667	0,5	1,209050
22,092000	0,5	1,239000
22,100333	0,5	1,271600
22,108667	0,5	1,298800
22,117000	0,5	1,341300
22,125333	0,5	1,353950
22,133667	0,5	1,396550
22,142000	0,5	1,434350
22,150333	0,5	1,464400
22,158667	0,5	1,487650
22,167000	0,5	1,503350
22,175333	0,5	1,531950
22,183667	0,5	1,565950
22,192000	0,5	1,596800
22,200333	0,5	1,633450
22,208667	0,5	1,671650
22,217000	0,5	1,706750
22,225333	0,5	1,746200
22,233667	0,5	1,783100
22,242000	0,5	1,829900
22,250333	0,5	1,868850
22,258667	0,5	1,917900
22,267000	0,5	1,950500
22,275333	0,5	2,001000
22,283667	0,5	2,058650
22,292000	0,5	2,102350
22,300333	0,5	2,139100
22,308667	0,5	2,174300
22,317000	0,5	2,202950
22,325333	0,5	2,251600
22,333667	0,5	2,295250
22,342000	0,5	2,340800
22,350333	0,5	2,380150
22,358667	0,5	2,429000
22,367000	0,5	2,475800
22,375333	0,5	2,524800
22,383667	0,5	2,581950
22,392000	0,5	2,632300
22,400333	0,5	2,682750
22,408667	0,5	2,724000
22,417000	0,5	2,775050
22,425333	0,5	2,856200
22,433667	0,5	2,924000
22,442000	0,5	2,988150
22,450333	0,5	3,040250
22,458667	0,5	3,090750
22,467000	0,5	3,156050
22,475333	0,5	3,221650
22,483667	0,5	3,280750
22,492000	0,5	3,337550
22,500333	0,5	3,400150
22,508667	0,5	3,458900
22,517000	0,5	3,517350
22,525333	0,5	3,586450
22,533667	0,5	3,644700
22,542000	0,5	3,710200
22,550333	0,5	3,734650
22,558667	0,5	3,814050
22,567000	0,5	3,870200
22,575333	0,5	3,950450
22,583667	0,5	4,002450
22,592000	0,5	4,054600
22,600333	0,5	4,094100
22,608667	0,5	4,127100
22,617000	0,5	4,179000
22,625333	0,5	4,223750
22,633667	0,5	4,259200
22,642000	0,5	4,290800
22,650333	0,5	4,313800
22,658667	0,5	4,330450
22,667000	0,5	4,346650
22,675333	0,5	4,350550
22,683667	0,5	4,355600
22,692000	0,5	4,333200
22,700333	0,5	4,285900
22,708667	0,5	4,272800
22,717000	0,5	4,261250
22,725333	0,5	4,226450
22,733667	0,5	4,167900
22,742000	0,5	4,099800
22,750333	0,5	4,020500
22,758667	0,5	3,933900
22,767000	0,5	3,852800
22,775333	0,5	3,767400
22,783667	0,5	3,676200
22,792000	0,5	3,572400
22,800333	0,5	3,474700
22,808667	0,5	3,364400
22,817000	0,5	3,254350
22,825333	0,5	3,137550
22,833667	0,5	3,015950
22,842000	0,5	2,856750
22,850333	0,5	2,709300
22,858667	0,5	2,602300
22,867000	0,5	2,471550
22,875333	0,5	2,323100
22,883667	0,5	2,177000
22,892000	0,5	2,027150
22,900333	0,5	1,881500
22,908667	0,5	1,733300
22,917000	0,5	1,584650
22,925333	0,5	1,446350
22,933667	0,5	1,307950
22,942000	0,5	1,176250
22,950333	0,5	1,047400
22,958667	0,5	0,918700
22,967000	0,5	0,788600
22,975333	0,5	0,670150
22,983667	0,5	0,551500
22,992000	0,5	0,438100
23,000333	0,5	0,327300
23,008667	0,5	0,202350
23,017000	0,5	0,054650
23,025333	0,5	-0,040950
23,033667	0,5	-0,146350
23,042000	0,5	-0,234100
23,050333	0,5	-0,329800
23,058667	0,5	-0,422150
23,067000	0,5	-0,506200
23,075333	0,5	-0,579500
23,083667	0,5	-0,650000
23,092000	0,5	-0,713150
23,100333	0,5	-0,776300
23,108667	0,5	-0,837250
23,117000	0,5	-0,891750
23,125333	0,5	-0,949300
23,133667	0,5	-0,968200
23,142000	0,5	-1,029250
23,150333	0,5	-1,076100
23,158667	0,5	-1,148950
23,167000	0,5	-1,210650
23,175333	0,5	-1,250200
23,183667	0,5	-1,280700
23,192000	0,5	-1,306600
23,200333	0,5	-1,339250
23,208667	0,5	-1,371400
23,217000	0,5	-1,388250
23,225333	0,5	-1,405050
23,233667	0,5	-1,411500
23,242000	0,5	-1,425900
23,250333	0,5	-1,433000
23,258667	0,5	-1,445000
23,267000	0,5	-1,450000
23,275333	0,5	-1,453900
23,283667	0,5	-1,468550
23,292000	0,5	-1,467750
23,300333	0,5	-1,451100
23,308667	0,5	-1,479600
23,317000	0,5	-1,509500
23,325333	0,5	-1,511900
23,333667	0,5	-1,516700
23,342000	0,5	-1,508950
23,350333	0,5	-1,520650
23,358667	0,5	-1,517200
23,367000	0,5	-1,511500
23,375333	0,5	-1,498850
23,383667	0,5	-1,492200
23,392000	0,5	-1,477000
23,400333	0,5	-1,470950
23,408667	0,5	-1,457250
23,417000	0,5	-1,442850
23,425333	0,5	-1,422750
23,433667	0,5	-1,467400
23,442000	0,5	-1,420650
23,450333	0,5	-1,381700
23,458667	0,5	-1,386000
23,467000	0,5	-1,391950
23,475333	0,5	-1,384050
23,483667	0,5	-1,375000
23,492000	0,5	-1,366600
23,500333	0,5	-1,361700
23,508667	0,5	-1,356750
23,517000	0,5	-1,344050
23,525333	0,5	-1,336200
23,533667	0,5	-1,319950
23,542000	0,5	-1,308250
23,550333	0,5	-1,295050
23,558667	0,5	-1,282000
23,567000	0,5	-1,265800
23,575333	0,5	-1,317700
23,583667	0,5	-1,306000
23,592000	0,5	-1,262700
23,600333	0,5	-1,214700
23,608667	0,5	-1,194750
23,617000	0,5	-1,188450
23,625333	0,5	-1,179450
23,633667	0,5	-1,166150
23,642000	0,5	-1,153000
23,650333	0,5	-1,143900
23,658667	0,5	-1,130550
23,667000	0,5	-1,115600
23,675333	0,5	-1,103750
23,683667	0,5	-1,089400
23,692000	0,5	-1,074950
23,700333	0,5	-1,063700
23,708667	0,5	-1,051700
23,717000	0,5	-1,042650
23,725333	0,5	-1,150950
23,733667	0,5	-1,098700
23,742000	0,5	-1,058350
23,750333	0,5	-1,000850
23,758667	0,5	-0,985250
23,767000	0,5	-0,974150
23,775333	0,5	-0,968400
23,783667	0,5	-0,957700
23,792000	0,5	-0,938550
23,800333	0,5	-0,923800
23,808667	0,5	-0,905200
23,817000	0,5	-0,890700
23,825333	0,5	-0,872700
23,833667	0,5	-0,857150
23,842000	0,5	-0,841800
23,850333	0,5	-0,824750
23,858667	0,5	-0,809600
23,867000	0,5	-0,839900
23,875333	0,5	-0,909350
23,883667	0,5	-0,875800
23,892000	0,5	-0,813100
23,900333	0,5	-0,773500
23,908667	0,5	-0,750800
23,917000	0,5	-0,739450
23,925333	0,5	-0,733700
23,933667	0,5	-0,727600
23,942000	0,5	-0,717300
23,950333	0,5	-0,699400
23,958667	0,5	-0,682700
23,967000	0,5	-0,671550
23,975333	0,5	-0,654000
23,983667	0,5	-0,636550
23,992000	0,5	-0,620650
24,000333	0,5	-0,604900
24,008667	0,5	-0,591300
24,017000	0,5	-0,678700
24,025333	0,5	-0,673150
24,033667	0,5	-0,635750
24,042000	0,5	-0,578650
24,050333	0,5	-0,538850
24,058667	0,5	-0,525000
24,067000	0,5	-0,514800
24,075333	0,5	-0,518000
24,083667	0,5	-0,504500
24,092000	0,5	-0,489550
24,100333	0,5	-0,472900
24,108667	0,5	-0,459850
24,117000	0,5	-0,444650
24,125333	0,5	-0,435550
24,133667	0,5	-0,423950
24,142000	0,5	-0,408100
24,150333	0,5	-0,398250
24,158667	0,5	-0,395900
24,167000	0,5	-0,498150
24,175333	0,5	-0,452850
24,183667	0,5	-0,432200
24,192000	0,5	-0,376400
24,200333	0,5	-0,353050
24,208667	0,5	-0,340300
24,217000	0,5	-0,333000
24,225333	0,5	-0,327600
24,233667	0,5	-0,311250
24,242000	0,5	-0,292700
24,250333	0,5	-0,283850
24,258667	0,5	-0,273400
24,267000	0,5	-0,263500
24,275333	0,5	-0,248750
24,283667	0,5	-0,236850
24,292000	0,5	-0,227950
24,300333	0,5	-0,216850
24,308667	0,5	-0,262600
24,317000	0,5	-0,292100
24,325333	0,5	-0,271100
24,333667	0,5	-0,236400
24,342000	0,5	-0,207350
24,350333	0,5	-0,191450
24,358667	0,5	-0,190100
24,367000	0,5	-0,186400
24,375333	0,5	-0,187750
24,383667	0,5	-0,167650
24,392000	0,5	-0,163500
24,400333	0,5	-0,147600
24,408667	0,5	-0,144350
24,417000	0,5	-0,129750
24,425333	0,5	-0,123850
24,433667	0,5	-0,109500
24,442000	0,5	-0,101750
24,450333	0,5	-0,098950
24,458667	0,5	-0,159550
24,467000	0,5	-0,143400
24,475333	0,5	-0,125950
24,483667	0,5	-0,097300
24,492000	0,5	-0,077250
24,500333	0,5	-0,068100
24,508667	0,5	-0,067200
24,517000	0,5	-0,074500
24,525333	0,5	-0,065850
24,533667	0,5	-0,063250
24,542000	0,5	-0,049150
24,550333	0,5	-0,052050
24,558667	0,5	-0,041600
24,567000	0,5	-0,039150
24,575333	0,5	-0,028150
24,583667	0,5	-0,022950
24,592000	0,5	-0,013450
24,600333	0,5	-0,016200
24,608667	0,5	-0,068200
24,617000	0,5	-0,039900
24,625333	0,5	-0,027850
24,633667	0,5	-0,005750
24,642000	0,5	0,010050
24,650333	0,5	0,007400
24,658667	0,5	0,008650
24,667000	0,5	0,005700
24,675333	0,5	0,007550
24,683667	0,5	0,018350
24,692000	0,5	0,018900
24,700333	0,5	0,026200
24,708667	0,5	0,029350
24,717000	0,5	0,034800
24,725333	0,5	0,038050
24,733667	0,5	0,043400
24,742000	0,5	0,045100
24,750333	0,5	0,022850
24,758667	0,5	0,007200
24,767000	0,5	0,022200
24,775333	0,5	0,032250
24,783667	0,5	0,048550
24,792000	0,5	0,055050
24,800333	0,5	0,058500
24,808667	0,5	0,053150
24,817000	0,5	0,051050
24,825333	0,5	0,054950
24,833667	0,5	0,064800
24,842000	0,5	0,065550
24,850333	0,5	0,066350
24,858667	0,5	0,074800
24,867000	0,5	0,074650
24,875333	0,5	0,081150
24,883667	0,5	0,081550
24,892000	0,5	0,083500
24,900333	0,5	0,060800
24,908667	0,5	0,064950
24,917000	0,5	0,066150
24,925333	0,5	0,081500
24,933667	0,5	0,086650
24,942000	0,5	0,088800
24,950333	0,5	0,089800
24,958667	0,5	0,084900
24,967000	0,5	0,083800
24,975333	0,5	0,086050
24,983667	0,5	0,091250
24,992000	0,5	0,092000
25,000333	0,5	0,093550
25,008667	0,5	0,097150
25,017000	0,5	0,102050
25,025333	0,5	0,103750
25,033667	0,5	0,106250
25,042000	0,5	0,099750
25,050333	0,5	0,086650
25,058667	0,5	0,092750
25,067000	0,5	0,099750
25,075333	0,5	0,106700
25,083667	0,5	0,107900
25,092000	0,5	0,106950
25,100333	0,5	0,107550
25,108667	0,5	0,102300
25,117000	0,5	0,104150
25,125333	0,5	0,105500
25,133667	0,5	0,103500
25,142000	0,5	0,103750
25,150333	0,5	0,106750
25,158667	0,5	0,104700
25,167000	0,5	0,107550
25,175333	0,5	0,111300
25,183667	0,5	0,107200
25,192000	0,5	0,105000
25,200333	0,5	0,101150
25,208667	0,5	0,105800
25,217000	0,5	0,105650
25,225333	0,5	0,112000
25,233667	0,5	0,108950
25,242000	0,5	0,110650
25,250333	0,5	0,108200
25,258667	0,5	0,105750
25,267000	0,5	0,107450
25,275333	0,5	0,108600
25,283667	0,5	0,104500
25,292000	0,5	0,105000
25,300333	0,5	0,103500
25,308667	0,5	0,105950
25,317000	0,5	0,107350
25,325333	0,5	0,105100
25,333667	0,5	0,102850
25,342000	0,5	0,095550
25,350333	0,5	0,104300
25,358667	0,5	0,100850
25,367000	0,5	0,101400
25,375333	0,5	0,104900
25,383667	0,5	0,105400
25,392000	0,5	0,104150
25,400333	0,5	0,102050
25,408667	0,5	0,102550
25,417000	0,5	0,101100
25,425333	0,5	0,100200
25,433667	0,5	0,100100
25,442000	0,5	0,097150
25,450333	0,5	0,095150
25,458667	0,5	0,095200
25,467000	0,5	0,095200
25,475333	0,5	0,094500
25,483667	0,5	0,093050
25,492000	0,5	0,092750
25,500333	0,5	0,094550
25,508667	0,5	0,095150
25,517000	0,5	0,090050
25,525333	0,5	0,089850
25,533667	0,5	0,089950
25,542000	0,5	0,088650
25,550333	0,5	0,088450
25,558667	0,5	0,089050
25,567000	0,5	0,087300
25,575333	0,5	0,086400
25,583667	0,5	0,089100
25,592000	0,5	0,085150
25,600333	0,5	0,086400
25,608667	0,5	0,085650
25,617000	0,5	0,083550
25,625333	0,5	0,082750
25,633667	0,5	0,082650
25,642000	0,5	0,086250
25,650333	0,5	0,086100
25,658667	0,5	0,082650
25,667000	0,5	0,076950
25,675333	0,5	0,076250
25,683667	0,5	0,075500
25,692000	0,5	0,077350
25,700333	0,5	0,077100
25,708667	0,5	0,078450
25,717000	0,5	0,076300
25,725333	0,5	0,079250
25,733667	0,5	0,071800
25,742000	0,5	0,076100
25,750333	0,5	0,072650
25,758667	0,5	0,073000
25,767000	0,5	0,073750
25,775333	0,5	0,072050
25,783667	0,5	0,076450
25,792000	0,5	0,075650
25,800333	0,5	0,077200
25,808667	0,5	0,071600
25,817000	0,5	0,067650
25,825333	0,5	0,066950
25,833667	0,5	0,066200
25,842000	0,5	0,069450
25,850333	0,5	0,071550
25,858667	0,5	0,068350
25,867000	0,5	0,068900
25,875333	0,5	0,068850
25,883667	0,5	0,070350
25,892000	0,5	0,067500
25,900333	0,5	0,068750
25,908667	0,5	0,067000
25,917000	0,5	0,068550
25,925333	0,5	0,068200
25,933667	0,5	0,067750
25,942000	0,5	0,068250
25,950333	0,5	0,075800
25,958667	0,5	0,065250
25,967000	0,5	0,060250
25,975333	0,5	0,063850
25,983667	0,5	0,062100
25,992000	0,5	0,068400
26,000333	0,5	0,067900
