File Path	chrom://chromeleon01/ikbm_chromeleon/2022/ICS-5000/ED1/Esteban/20220612_Cell_7_4_eg.seq/246.smp/ED_1.channel/ED_1.chm
Channel	ED_1

Injection Information:
Data Vault	ikbm_chromeleon
Injection	7_24h-NT-pH6_1
Injection Number	15
Position	RB2
Comment	
Processing Method	Stop sequence after Cell Death
Instrument Method	ICS5000_PA200_FullNative_Ox_26min_ED1
Type	Unknown
Status	Finished
Injection Date	12.06.2022
Injection Time	22:41:40
Injection Volume (µl)	5,0
Dilution Factor	1,0000
Weight	1,0000

Chromatogram Data Information:
Time Min. (min)	0,000333
Time Max. (min)	26,000333
Data Points	3121
Detector	EDet1
Generating Data System	Chromeleon 7.2.9.11323
Exporting Data System	Chromeleon 7.2.9.0
Operator	Instrument Controller
Signal Quantity	
Signal Unit	nC
Signal Min.	-1,486250
Signal Max.	454,737657
Channel	ED_1
Driver Name	DC-5000
Channel Type	Evaluation
Min. Step (s)	0,5
Max. Step (s)	0,5
Average Step (s)	0,5

Signal Parameter Information:
Signal Info	

Chromatogram Data:
Time (min)	Step (s)	Value (nC)
0,000333	n.a.	-0,053000
0,008667	0,5	-0,038450
0,017000	0,5	-0,024950
0,025333	0,5	-0,004050
0,033667	0,5	-0,007000
0,042000	0,5	-0,002150
0,050333	0,5	0,002900
0,058667	0,5	0,005700
0,067000	0,5	0,000000
0,075333	0,5	0,002300
0,083667	0,5	-0,001500
0,092000	0,5	0,002600
0,100333	0,5	-0,002750
0,108667	0,5	0,000350
0,117000	0,5	-0,008850
0,125333	0,5	0,011400
0,133667	0,5	-0,006400
0,142000	0,5	-0,012550
0,150333	0,5	-0,005400
0,158667	0,5	0,008250
0,167000	0,5	0,021500
0,175333	0,5	0,025250
0,183667	0,5	0,018100
0,192000	0,5	0,019150
0,200333	0,5	0,017650
0,208667	0,5	0,018000
0,217000	0,5	0,016150
0,225333	0,5	0,014500
0,233667	0,5	0,012600
0,242000	0,5	0,010450
0,250333	0,5	0,014900
0,258667	0,5	-0,002150
0,267000	0,5	0,009600
0,275333	0,5	0,010350
0,283667	0,5	0,012400
0,292000	0,5	0,031600
0,300333	0,5	0,044100
0,308667	0,5	0,026050
0,317000	0,5	0,020850
0,325333	0,5	0,006650
0,333667	0,5	0,011450
0,342000	0,5	0,014450
0,350333	0,5	0,016850
0,358667	0,5	0,011550
0,367000	0,5	0,010900
0,375333	0,5	0,013150
0,383667	0,5	0,011850
0,392000	0,5	0,013700
0,400333	0,5	0,011250
0,408667	0,5	0,004200
0,417000	0,5	0,019350
0,425333	0,5	0,011200
0,433667	0,5	0,004700
0,442000	0,5	0,006150
0,450333	0,5	0,008900
0,458667	0,5	0,032750
0,467000	0,5	0,026850
0,475333	0,5	0,021300
0,483667	0,5	0,016600
0,492000	0,5	0,025400
0,500333	0,5	0,021950
0,508667	0,5	0,024000
0,517000	0,5	0,022300
0,525333	0,5	0,020100
0,533667	0,5	0,025900
0,542000	0,5	0,025300
0,550333	0,5	0,035250
0,558667	0,5	0,019950
0,567000	0,5	0,037900
0,575333	0,5	0,024350
0,583667	0,5	0,021950
0,592000	0,5	0,021100
0,600333	0,5	0,029100
0,608667	0,5	0,043600
0,617000	0,5	0,050300
0,625333	0,5	0,040100
0,633667	0,5	0,048200
0,642000	0,5	0,050300
0,650333	0,5	0,049700
0,658667	0,5	0,045200
0,667000	0,5	0,049100
0,675333	0,5	0,042250
0,683667	0,5	0,046900
0,692000	0,5	0,049150
0,700333	0,5	0,047300
0,708667	0,5	0,045600
0,717000	0,5	0,058300
0,725333	0,5	0,041100
0,733667	0,5	0,045750
0,742000	0,5	0,051350
0,750333	0,5	0,061100
0,758667	0,5	0,077750
0,767000	0,5	0,078600
0,775333	0,5	0,081550
0,783667	0,5	0,076300
0,792000	0,5	0,078400
0,800333	0,5	0,073900
0,808667	0,5	0,079950
0,817000	0,5	0,075150
0,825333	0,5	0,083100
0,833667	0,5	0,073300
0,842000	0,5	0,076850
0,850333	0,5	0,070100
0,858667	0,5	0,083400
0,867000	0,5	0,083850
0,875333	0,5	0,076600
0,883667	0,5	0,074800
0,892000	0,5	0,080200
0,900333	0,5	0,096900
0,908667	0,5	0,107600
0,917000	0,5	0,114100
0,925333	0,5	0,110600
0,933667	0,5	0,110350
0,942000	0,5	0,111650
0,950333	0,5	0,111200
0,958667	0,5	0,109150
0,967000	0,5	0,113600
0,975333	0,5	0,108000
0,983667	0,5	0,113350
0,992000	0,5	0,107350
1,000333	0,5	0,107900
1,008667	0,5	0,130550
1,017000	0,5	0,120800
1,025333	0,5	0,106850
1,033667	0,5	0,114150
1,042000	0,5	0,117750
1,050333	0,5	0,139600
1,058667	0,5	0,138150
1,067000	0,5	0,138450
1,075333	0,5	0,136500
1,083667	0,5	0,140250
1,092000	0,5	0,138350
1,100333	0,5	0,141950
1,108667	0,5	0,146000
1,117000	0,5	0,141000
1,125333	0,5	0,145750
1,133667	0,5	0,141500
1,142000	0,5	0,146650
1,150333	0,5	0,135800
1,158667	0,5	0,162600
1,167000	0,5	0,138100
1,175333	0,5	0,137850
1,183667	0,5	0,138150
1,192000	0,5	0,146100
1,200333	0,5	0,166550
1,208667	0,5	0,159050
1,217000	0,5	0,151850
1,225333	0,5	0,158350
1,233667	0,5	0,153600
1,242000	0,5	0,155900
1,250333	0,5	0,155300
1,258667	0,5	0,153050
1,267000	0,5	0,147350
1,275333	0,5	0,146250
1,283667	0,5	0,154300
1,292000	0,5	0,144350
1,300333	0,5	0,147800
1,308667	0,5	0,153000
1,317000	0,5	0,134400
1,325333	0,5	0,130850
1,333667	0,5	0,134300
1,342000	0,5	0,141000
1,350333	0,5	0,156950
1,358667	0,5	0,142600
1,367000	0,5	0,146050
1,375333	0,5	0,144950
1,383667	0,5	0,143900
1,392000	0,5	0,137900
1,400333	0,5	0,136000
1,408667	0,5	0,130300
1,417000	0,5	0,123300
1,425333	0,5	0,122000
1,433667	0,5	0,117150
1,442000	0,5	0,108400
1,450333	0,5	0,115450
1,458667	0,5	0,115900
1,467000	0,5	0,104100
1,475333	0,5	0,106600
1,483667	0,5	0,111700
1,492000	0,5	0,122050
1,500333	0,5	0,125600
1,508667	0,5	0,118750
1,517000	0,5	0,104650
1,525333	0,5	0,104150
1,533667	0,5	0,099400
1,542000	0,5	0,099200
1,550333	0,5	0,098250
1,558667	0,5	0,102300
1,567000	0,5	0,049950
1,575333	0,5	0,050000
1,583667	0,5	1,398500
1,592000	0,5	8,361350
1,600333	0,5	32,559250
1,608667	0,5	99,054401
1,617000	0,5	225,029903
1,625333	0,5	369,780456
1,633667	0,5	454,737657
1,642000	0,5	442,779857
1,650333	0,5	363,157255
1,658667	0,5	268,736854
1,667000	0,5	191,212953
1,675333	0,5	137,112402
1,683667	0,5	102,436952
1,692000	0,5	81,816101
1,700333	0,5	70,198851
1,708667	0,5	62,453301
1,717000	0,5	55,423251
1,725333	0,5	49,248551
1,733667	0,5	46,090051
1,742000	0,5	47,724951
1,750333	0,5	53,526101
1,758667	0,5	60,193901
1,767000	0,5	64,365151
1,775333	0,5	64,494351
1,783667	0,5	61,064201
1,792000	0,5	55,650751
1,800333	0,5	49,974051
1,808667	0,5	45,078151
1,817000	0,5	41,245551
1,825333	0,5	38,471951
1,833667	0,5	36,871201
1,842000	0,5	36,294501
1,850333	0,5	35,990401
1,858667	0,5	35,225001
1,867000	0,5	34,212951
1,875333	0,5	33,984701
1,883667	0,5	35,673151
1,892000	0,5	40,700401
1,900333	0,5	49,680751
1,908667	0,5	60,526301
1,917000	0,5	68,624351
1,925333	0,5	70,690751
1,933667	0,5	66,601151
1,942000	0,5	58,817851
1,950333	0,5	50,730251
1,958667	0,5	44,589551
1,967000	0,5	40,623651
1,975333	0,5	38,286051
1,983667	0,5	37,504951
1,992000	0,5	38,122701
2,000333	0,5	38,293551
2,008667	0,5	36,343851
2,017000	0,5	33,071850
2,025333	0,5	30,059350
2,033667	0,5	28,118450
2,042000	0,5	27,906850
2,050333	0,5	30,187200
2,058667	0,5	34,353201
2,067000	0,5	36,911951
2,075333	0,5	35,261801
2,083667	0,5	30,988750
2,092000	0,5	26,849700
2,100333	0,5	23,891800
2,108667	0,5	21,906250
2,117000	0,5	20,576700
2,125333	0,5	19,589000
2,133667	0,5	18,767350
2,142000	0,5	18,088250
2,150333	0,5	17,624400
2,158667	0,5	17,391450
2,167000	0,5	17,493200
2,175333	0,5	18,437500
2,183667	0,5	21,395650
2,192000	0,5	24,323250
2,200333	0,5	22,781150
2,208667	0,5	18,927650
2,217000	0,5	16,562250
2,225333	0,5	15,556200
2,233667	0,5	15,140350
2,242000	0,5	15,007500
2,250333	0,5	15,076550
2,258667	0,5	15,394250
2,267000	0,5	16,118550
2,275333	0,5	17,712850
2,283667	0,5	20,675800
2,292000	0,5	24,916500
2,300333	0,5	29,131050
2,308667	0,5	31,649400
2,317000	0,5	31,704450
2,325333	0,5	29,879750
2,333667	0,5	27,494850
2,342000	0,5	25,806000
2,350333	0,5	25,701000
2,358667	0,5	28,128500
2,367000	0,5	34,566151
2,375333	0,5	46,837801
2,383667	0,5	64,867651
2,392000	0,5	83,700351
2,400333	0,5	94,903551
2,408667	0,5	93,421351
2,417000	0,5	81,949901
2,425333	0,5	67,391901
2,433667	0,5	55,652501
2,442000	0,5	49,791551
2,450333	0,5	50,569501
2,458667	0,5	55,957701
2,467000	0,5	61,379951
2,475333	0,5	62,741751
2,483667	0,5	59,171701
2,492000	0,5	52,292301
2,500333	0,5	44,306701
2,508667	0,5	36,773951
2,517000	0,5	30,520900
2,525333	0,5	25,835800
2,533667	0,5	22,576650
2,542000	0,5	20,459500
2,550333	0,5	19,156750
2,558667	0,5	18,475300
2,567000	0,5	18,353150
2,575333	0,5	18,896250
2,583667	0,5	20,121600
2,592000	0,5	21,684900
2,600333	0,5	22,845150
2,608667	0,5	22,913700
2,617000	0,5	21,782600
2,625333	0,5	19,982400
2,633667	0,5	18,185600
2,642000	0,5	16,760750
2,650333	0,5	15,869400
2,658667	0,5	15,465750
2,667000	0,5	15,498450
2,675333	0,5	16,102000
2,683667	0,5	17,654650
2,692000	0,5	20,782500
2,700333	0,5	25,636850
2,708667	0,5	31,019950
2,717000	0,5	34,658251
2,725333	0,5	34,972951
2,733667	0,5	32,139350
2,742000	0,5	27,587250
2,750333	0,5	22,916550
2,758667	0,5	19,110100
2,767000	0,5	16,411800
2,775333	0,5	14,597450
2,783667	0,5	13,380000
2,792000	0,5	12,500500
2,800333	0,5	11,873500
2,808667	0,5	11,396900
2,817000	0,5	11,059100
2,825333	0,5	10,802500
2,833667	0,5	10,597200
2,842000	0,5	10,403300
2,850333	0,5	10,228150
2,858667	0,5	10,057350
2,867000	0,5	9,930250
2,875333	0,5	9,847000
2,883667	0,5	9,786800
2,892000	0,5	9,694150
2,900333	0,5	9,539800
2,908667	0,5	9,325150
2,917000	0,5	9,082250
2,925333	0,5	8,858400
2,933667	0,5	8,619200
2,942000	0,5	8,385400
2,950333	0,5	8,181100
2,958667	0,5	8,033250
2,967000	0,5	7,974150
2,975333	0,5	7,986000
2,983667	0,5	8,054800
2,992000	0,5	8,161400
3,000333	0,5	8,276750
3,008667	0,5	8,359150
3,017000	0,5	8,375850
3,025333	0,5	8,317200
3,033667	0,5	8,198550
3,042000	0,5	8,061450
3,050333	0,5	7,938500
3,058667	0,5	7,858300
3,067000	0,5	7,832850
3,075333	0,5	7,841650
3,083667	0,5	7,774900
3,092000	0,5	7,651200
3,100333	0,5	7,481600
3,108667	0,5	7,290250
3,117000	0,5	7,108400
3,125333	0,5	6,903650
3,133667	0,5	6,730300
3,142000	0,5	6,566600
3,150333	0,5	6,436650
3,158667	0,5	6,314950
3,167000	0,5	6,218500
3,175333	0,5	6,117900
3,183667	0,5	6,030100
3,192000	0,5	5,931600
3,200333	0,5	5,826900
3,208667	0,5	5,718500
3,217000	0,5	5,614850
3,225333	0,5	5,537450
3,233667	0,5	5,452850
3,242000	0,5	5,394800
3,250333	0,5	5,349550
3,258667	0,5	5,324650
3,267000	0,5	5,315100
3,275333	0,5	5,313600
3,283667	0,5	5,319200
3,292000	0,5	5,359800
3,300333	0,5	5,439150
3,308667	0,5	5,583250
3,317000	0,5	5,820950
3,325333	0,5	6,204500
3,333667	0,5	6,768500
3,342000	0,5	7,530400
3,350333	0,5	8,434650
3,358667	0,5	9,380250
3,367000	0,5	10,243450
3,375333	0,5	10,925100
3,383667	0,5	11,390200
3,392000	0,5	11,795850
3,400333	0,5	12,278900
3,408667	0,5	13,017300
3,417000	0,5	14,005550
3,425333	0,5	15,070350
3,433667	0,5	15,911100
3,442000	0,5	16,207650
3,450333	0,5	15,767250
3,458667	0,5	14,619000
3,467000	0,5	13,006850
3,475333	0,5	11,219800
3,483667	0,5	9,569800
3,492000	0,5	8,202700
3,500333	0,5	7,187150
3,508667	0,5	6,486700
3,517000	0,5	6,046250
3,525333	0,5	5,735900
3,533667	0,5	5,520100
3,542000	0,5	5,362750
3,550333	0,5	5,240450
3,558667	0,5	5,152850
3,567000	0,5	5,082100
3,575333	0,5	5,042500
3,583667	0,5	5,036250
3,592000	0,5	5,050700
3,600333	0,5	5,080450
3,608667	0,5	5,105000
3,617000	0,5	5,116400
3,625333	0,5	5,105200
3,633667	0,5	5,066300
3,642000	0,5	5,007400
3,650333	0,5	4,919600
3,658667	0,5	4,833000
3,667000	0,5	4,757300
3,675333	0,5	4,670050
3,683667	0,5	4,582550
3,692000	0,5	4,508750
3,700333	0,5	4,434750
3,708667	0,5	4,381350
3,717000	0,5	4,313750
3,725333	0,5	4,263250
3,733667	0,5	4,224250
3,742000	0,5	4,218600
3,750333	0,5	4,238450
3,758667	0,5	4,295500
3,767000	0,5	4,394050
3,775333	0,5	4,519100
3,783667	0,5	4,653250
3,792000	0,5	4,756500
3,800333	0,5	4,803850
3,808667	0,5	4,775950
3,817000	0,5	4,681550
3,825333	0,5	4,512100
3,833667	0,5	4,333500
3,842000	0,5	4,153800
3,850333	0,5	4,003950
3,858667	0,5	3,885550
3,867000	0,5	3,789350
3,875333	0,5	3,718300
3,883667	0,5	3,684050
3,892000	0,5	3,658650
3,900333	0,5	3,659300
3,908667	0,5	3,666550
3,917000	0,5	3,687650
3,925333	0,5	3,712600
3,933667	0,5	3,737850
3,942000	0,5	3,760250
3,950333	0,5	3,777450
3,958667	0,5	3,795750
3,967000	0,5	3,801500
3,975333	0,5	3,799550
3,983667	0,5	3,800500
3,992000	0,5	3,794500
4,000333	0,5	3,795000
4,008667	0,5	3,790150
4,017000	0,5	3,768450
4,025333	0,5	3,755600
4,033667	0,5	3,745400
4,042000	0,5	3,744950
4,050333	0,5	3,749200
4,058667	0,5	3,770650
4,067000	0,5	3,801600
4,075333	0,5	3,861700
4,083667	0,5	3,940800
4,092000	0,5	4,025050
4,100333	0,5	4,128600
4,108667	0,5	4,248500
4,117000	0,5	4,331050
4,125333	0,5	4,386550
4,133667	0,5	4,399350
4,142000	0,5	4,367150
4,150333	0,5	4,313500
4,158667	0,5	4,210050
4,167000	0,5	4,106500
4,175333	0,5	4,002400
4,183667	0,5	3,910400
4,192000	0,5	3,833100
4,200333	0,5	3,774850
4,208667	0,5	3,728650
4,217000	0,5	3,698650
4,225333	0,5	3,672200
4,233667	0,5	3,657050
4,242000	0,5	3,629550
4,250333	0,5	3,610100
4,258667	0,5	3,595200
4,267000	0,5	3,559500
4,275333	0,5	3,539000
4,283667	0,5	3,514450
4,292000	0,5	3,490850
4,300333	0,5	3,468850
4,308667	0,5	3,420900
4,317000	0,5	3,368600
4,325333	0,5	3,316400
4,333667	0,5	3,253650
4,342000	0,5	3,191050
4,350333	0,5	3,135350
4,358667	0,5	3,089450
4,367000	0,5	3,042200
4,375333	0,5	3,005500
4,383667	0,5	2,965650
4,392000	0,5	2,934800
4,400333	0,5	2,899400
4,408667	0,5	2,873050
4,417000	0,5	2,833800
4,425333	0,5	2,808350
4,433667	0,5	2,780900
4,442000	0,5	2,763150
4,450333	0,5	2,739900
4,458667	0,5	2,710600
4,467000	0,5	2,669400
4,475333	0,5	2,637100
4,483667	0,5	2,598150
4,492000	0,5	2,562600
4,500333	0,5	2,523850
4,508667	0,5	2,489550
4,517000	0,5	2,466850
4,525333	0,5	2,442900
4,533667	0,5	2,423050
4,542000	0,5	2,409100
4,550333	0,5	2,403400
4,558667	0,5	2,387700
4,567000	0,5	2,373500
4,575333	0,5	2,362500
4,583667	0,5	2,360550
4,592000	0,5	2,355800
4,600333	0,5	2,351350
4,608667	0,5	2,336250
4,617000	0,5	2,332950
4,625333	0,5	2,318000
4,633667	0,5	2,321900
4,642000	0,5	2,320850
4,650333	0,5	2,328850
4,658667	0,5	2,350650
4,667000	0,5	2,387300
4,675333	0,5	2,440950
4,683667	0,5	2,504500
4,692000	0,5	2,607700
4,700333	0,5	2,735600
4,708667	0,5	2,860300
4,717000	0,5	2,991650
4,725333	0,5	3,125200
4,733667	0,5	3,228400
4,742000	0,5	3,307750
4,750333	0,5	3,319300
4,758667	0,5	3,291200
4,767000	0,5	3,211950
4,775333	0,5	3,096850
4,783667	0,5	2,958050
4,792000	0,5	2,811450
4,800333	0,5	2,665900
4,808667	0,5	2,538900
4,817000	0,5	2,434400
4,825333	0,5	2,352050
4,833667	0,5	2,282400
4,842000	0,5	2,244600
4,850333	0,5	2,214400
4,858667	0,5	2,193900
4,867000	0,5	2,189850
4,875333	0,5	2,195950
4,883667	0,5	2,222050
4,892000	0,5	2,252550
4,900333	0,5	2,280900
4,908667	0,5	2,308750
4,917000	0,5	2,343700
4,925333	0,5	2,364450
4,933667	0,5	2,375250
4,942000	0,5	2,371050
4,950333	0,5	2,351450
4,958667	0,5	2,318450
4,967000	0,5	2,275900
4,975333	0,5	2,226650
4,983667	0,5	2,175950
4,992000	0,5	2,129750
5,000333	0,5	2,079350
5,008667	0,5	2,034300
5,017000	0,5	2,002600
5,025333	0,5	1,978950
5,033667	0,5	1,962950
5,042000	0,5	1,952950
5,050333	0,5	1,935750
5,058667	0,5	1,924900
5,067000	0,5	1,910850
5,075333	0,5	1,900550
5,083667	0,5	1,889600
5,092000	0,5	1,880900
5,100333	0,5	1,867600
5,108667	0,5	1,860150
5,117000	0,5	1,854500
5,125333	0,5	1,845800
5,133667	0,5	1,842750
5,142000	0,5	1,849550
5,150333	0,5	1,848600
5,158667	0,5	1,851950
5,167000	0,5	1,862950
5,175333	0,5	1,881950
5,183667	0,5	1,906150
5,192000	0,5	1,924950
5,200333	0,5	1,944850
5,208667	0,5	1,961500
5,217000	0,5	1,971200
5,225333	0,5	1,975000
5,233667	0,5	1,980450
5,242000	0,5	1,981200
5,250333	0,5	1,993550
5,258667	0,5	2,006000
5,267000	0,5	2,033800
5,275333	0,5	2,057150
5,283667	0,5	2,110500
5,292000	0,5	2,174400
5,300333	0,5	2,247450
5,308667	0,5	2,335150
5,317000	0,5	2,448150
5,325333	0,5	2,578150
5,333667	0,5	2,721550
5,342000	0,5	2,862450
5,350333	0,5	3,022500
5,358667	0,5	3,179750
5,367000	0,5	3,338200
5,375333	0,5	3,485600
5,383667	0,5	3,624250
5,392000	0,5	3,736350
5,400333	0,5	3,814050
5,408667	0,5	3,864750
5,417000	0,5	3,868600
5,425333	0,5	3,818550
5,433667	0,5	3,736600
5,442000	0,5	3,607300
5,450333	0,5	3,438600
5,458667	0,5	3,251700
5,467000	0,5	3,055650
5,475333	0,5	2,867050
5,483667	0,5	2,687800
5,492000	0,5	2,526800
5,500333	0,5	2,393650
5,508667	0,5	2,301350
5,517000	0,5	2,240500
5,525333	0,5	2,222050
5,533667	0,5	2,228600
5,542000	0,5	2,261800
5,550333	0,5	2,316450
5,558667	0,5	2,360650
5,567000	0,5	2,399800
5,575333	0,5	2,409650
5,583667	0,5	2,410950
5,592000	0,5	2,379250
5,600333	0,5	2,334150
5,608667	0,5	2,288750
5,617000	0,5	2,254300
5,625333	0,5	2,236550
5,633667	0,5	2,232550
5,642000	0,5	2,237400
5,650333	0,5	2,267700
5,658667	0,5	2,302050
5,667000	0,5	2,344550
5,675333	0,5	2,380650
5,683667	0,5	2,411700
5,692000	0,5	2,422000
5,700333	0,5	2,416150
5,708667	0,5	2,385100
5,717000	0,5	2,332200
5,725333	0,5	2,278150
5,733667	0,5	2,219550
5,742000	0,5	2,161650
5,750333	0,5	2,101700
5,758667	0,5	2,052800
5,767000	0,5	2,016600
5,775333	0,5	1,986250
5,783667	0,5	1,949550
5,792000	0,5	1,919600
5,800333	0,5	1,881150
5,808667	0,5	1,846650
5,817000	0,5	1,804200
5,825333	0,5	1,765950
5,833667	0,5	1,722600
5,842000	0,5	1,689600
5,850333	0,5	1,653000
5,858667	0,5	1,624450
5,867000	0,5	1,597150
5,875333	0,5	1,591700
5,883667	0,5	1,578750
5,892000	0,5	1,568000
5,900333	0,5	1,566600
5,908667	0,5	1,572800
5,917000	0,5	1,581100
5,925333	0,5	1,591150
5,933667	0,5	1,595500
5,942000	0,5	1,600700
5,950333	0,5	1,607100
5,958667	0,5	1,602350
5,967000	0,5	1,594000
5,975333	0,5	1,577250
5,983667	0,5	1,559950
5,992000	0,5	1,540500
6,000333	0,5	1,517500
6,008667	0,5	1,499100
6,017000	0,5	1,479250
6,025333	0,5	1,472700
6,033667	0,5	1,458650
6,042000	0,5	1,449650
6,050333	0,5	1,452150
6,058667	0,5	1,456300
6,067000	0,5	1,473100
6,075333	0,5	1,483900
6,083667	0,5	1,492050
6,092000	0,5	1,507300
6,100333	0,5	1,528950
6,108667	0,5	1,550550
6,117000	0,5	1,585250
6,125333	0,5	1,631950
6,133667	0,5	1,703700
6,142000	0,5	1,808850
6,150333	0,5	1,937750
6,158667	0,5	2,084550
6,167000	0,5	2,214350
6,175333	0,5	2,313800
6,183667	0,5	2,335400
6,192000	0,5	2,305150
6,200333	0,5	2,223650
6,208667	0,5	2,123250
6,217000	0,5	2,031900
6,225333	0,5	1,947800
6,233667	0,5	1,884050
6,242000	0,5	1,839300
6,250333	0,5	1,805150
6,258667	0,5	1,781500
6,267000	0,5	1,772750
6,275333	0,5	1,792050
6,283667	0,5	1,849350
6,292000	0,5	1,958150
6,300333	0,5	2,112150
6,308667	0,5	2,278300
6,317000	0,5	2,446850
6,325333	0,5	2,566900
6,333667	0,5	2,619300
6,342000	0,5	2,604250
6,350333	0,5	2,529750
6,358667	0,5	2,418750
6,367000	0,5	2,297200
6,375333	0,5	2,177300
6,383667	0,5	2,086050
6,392000	0,5	2,027800
6,400333	0,5	2,019150
6,408667	0,5	2,054300
6,417000	0,5	2,151750
6,425333	0,5	2,316550
6,433667	0,5	2,492850
6,442000	0,5	2,541250
6,450333	0,5	2,472950
6,458667	0,5	2,312500
6,467000	0,5	2,124900
6,475333	0,5	1,957150
6,483667	0,5	1,827600
6,492000	0,5	1,733650
6,500333	0,5	1,667750
6,508667	0,5	1,632400
6,517000	0,5	1,614250
6,525333	0,5	1,602700
6,533667	0,5	1,591200
6,542000	0,5	1,588550
6,550333	0,5	1,576750
6,558667	0,5	1,573500
6,567000	0,5	1,567900
6,575333	0,5	1,567100
6,583667	0,5	1,566100
6,592000	0,5	1,565800
6,600333	0,5	1,565550
6,608667	0,5	1,566600
6,617000	0,5	1,576850
6,625333	0,5	1,576650
6,633667	0,5	1,580100
6,642000	0,5	1,588100
6,650333	0,5	1,594050
6,658667	0,5	1,611200
6,667000	0,5	1,619850
6,675333	0,5	1,623250
6,683667	0,5	1,631900
6,692000	0,5	1,635150
6,700333	0,5	1,640550
6,708667	0,5	1,647350
6,717000	0,5	1,653200
6,725333	0,5	1,654650
6,733667	0,5	1,661900
6,742000	0,5	1,664650
6,750333	0,5	1,666100
6,758667	0,5	1,670850
6,767000	0,5	1,677050
6,775333	0,5	1,673800
6,783667	0,5	1,672850
6,792000	0,5	1,672950
6,800333	0,5	1,684300
6,808667	0,5	1,691250
6,817000	0,5	1,693500
6,825333	0,5	1,699000
6,833667	0,5	1,705650
6,842000	0,5	1,711400
6,850333	0,5	1,716300
6,858667	0,5	1,729300
6,867000	0,5	1,732600
6,875333	0,5	1,744750
6,883667	0,5	1,755350
6,892000	0,5	1,764400
6,900333	0,5	1,771700
6,908667	0,5	1,785500
6,917000	0,5	1,795050
6,925333	0,5	1,803300
6,933667	0,5	1,812150
6,942000	0,5	1,821450
6,950333	0,5	1,833100
6,958667	0,5	1,838550
6,967000	0,5	1,837850
6,975333	0,5	1,835250
6,983667	0,5	1,831500
6,992000	0,5	1,822550
7,000333	0,5	1,811950
7,008667	0,5	1,797550
7,017000	0,5	1,778150
7,025333	0,5	1,759350
7,033667	0,5	1,746900
7,042000	0,5	1,722750
7,050333	0,5	1,705050
7,058667	0,5	1,690600
7,067000	0,5	1,673450
7,075333	0,5	1,659800
7,083667	0,5	1,649400
7,092000	0,5	1,647850
7,100333	0,5	1,652400
7,108667	0,5	1,656600
7,117000	0,5	1,662650
7,125333	0,5	1,669250
7,133667	0,5	1,682300
7,142000	0,5	1,692450
7,150333	0,5	1,710250
7,158667	0,5	1,728500
7,167000	0,5	1,751300
7,175333	0,5	1,779000
7,183667	0,5	1,809550
7,192000	0,5	1,845950
7,200333	0,5	1,887000
7,208667	0,5	1,940550
7,217000	0,5	1,994800
7,225333	0,5	2,060550
7,233667	0,5	2,143900
7,242000	0,5	2,243850
7,250333	0,5	2,362100
7,258667	0,5	2,508900
7,267000	0,5	2,676350
7,275333	0,5	2,881900
7,283667	0,5	3,136500
7,292000	0,5	3,434950
7,300333	0,5	3,791400
7,308667	0,5	4,207950
7,317000	0,5	4,677850
7,325333	0,5	5,197450
7,333667	0,5	5,734300
7,342000	0,5	6,269850
7,350333	0,5	6,773450
7,358667	0,5	7,196250
7,367000	0,5	7,493450
7,375333	0,5	7,652550
7,383667	0,5	7,644200
7,392000	0,5	7,471400
7,400333	0,5	7,138750
7,408667	0,5	6,668450
7,417000	0,5	6,115150
7,425333	0,5	5,504350
7,433667	0,5	4,890850
7,442000	0,5	4,304550
7,450333	0,5	3,778450
7,458667	0,5	3,323950
7,467000	0,5	2,952750
7,475333	0,5	2,657950
7,483667	0,5	2,435700
7,492000	0,5	2,269800
7,500333	0,5	2,161800
7,508667	0,5	2,087900
7,517000	0,5	2,039600
7,525333	0,5	2,014250
7,533667	0,5	2,010150
7,542000	0,5	2,020750
7,550333	0,5	2,036900
7,558667	0,5	2,062550
7,567000	0,5	2,097250
7,575333	0,5	2,147850
7,583667	0,5	2,215050
7,592000	0,5	2,287050
7,600333	0,5	2,367750
7,608667	0,5	2,453250
7,617000	0,5	2,530150
7,625333	0,5	2,590850
7,633667	0,5	2,626150
7,642000	0,5	2,630100
7,650333	0,5	2,608300
7,658667	0,5	2,547800
7,667000	0,5	2,471500
7,675333	0,5	2,377400
7,683667	0,5	2,276350
7,692000	0,5	2,179500
7,700333	0,5	2,086300
7,708667	0,5	1,999250
7,717000	0,5	1,919850
7,725333	0,5	1,855400
7,733667	0,5	1,799050
7,742000	0,5	1,755350
7,750333	0,5	1,720050
7,758667	0,5	1,693050
7,767000	0,5	1,682250
7,775333	0,5	1,669950
7,783667	0,5	1,665200
7,792000	0,5	1,662450
7,800333	0,5	1,666000
7,808667	0,5	1,667650
7,817000	0,5	1,670650
7,825333	0,5	1,674500
7,833667	0,5	1,678900
7,842000	0,5	1,686750
7,850333	0,5	1,691100
7,858667	0,5	1,691150
7,867000	0,5	1,694300
7,875333	0,5	1,693700
7,883667	0,5	1,686150
7,892000	0,5	1,681550
7,900333	0,5	1,670200
7,908667	0,5	1,660450
7,917000	0,5	1,644050
7,925333	0,5	1,634100
7,933667	0,5	1,617600
7,942000	0,5	1,611800
7,950333	0,5	1,608050
7,958667	0,5	1,608400
7,967000	0,5	1,608550
7,975333	0,5	1,619750
7,983667	0,5	1,638900
7,992000	0,5	1,672000
8,000333	0,5	1,720250
8,008667	0,5	1,794500
8,017000	0,5	1,894150
8,025333	0,5	2,017050
8,033667	0,5	2,146700
8,042000	0,5	2,267800
8,050333	0,5	2,370350
8,058667	0,5	2,452800
8,067000	0,5	2,529500
8,075333	0,5	2,606150
8,083667	0,5	2,710700
8,092000	0,5	2,855550
8,100333	0,5	3,040150
8,108667	0,5	3,264050
8,117000	0,5	3,526150
8,125333	0,5	3,821650
8,133667	0,5	4,138100
8,142000	0,5	4,460550
8,150333	0,5	4,764500
8,158667	0,5	5,037350
8,167000	0,5	5,273050
8,175333	0,5	5,461050
8,183667	0,5	5,600000
8,192000	0,5	5,689300
8,200333	0,5	5,737150
8,208667	0,5	5,743900
8,217000	0,5	5,714600
8,225333	0,5	5,640400
8,233667	0,5	5,518850
8,242000	0,5	5,331700
8,250333	0,5	5,055250
8,258667	0,5	4,695250
8,267000	0,5	4,274800
8,275333	0,5	3,826450
8,283667	0,5	3,392800
8,292000	0,5	3,003750
8,300333	0,5	2,678650
8,308667	0,5	2,418000
8,317000	0,5	2,221700
8,325333	0,5	2,084750
8,333667	0,5	1,986300
8,342000	0,5	1,918750
8,350333	0,5	1,874400
8,358667	0,5	1,856750
8,367000	0,5	1,854500
8,375333	0,5	1,877900
8,383667	0,5	1,920450
8,392000	0,5	1,978150
8,400333	0,5	2,045400
8,408667	0,5	2,123400
8,417000	0,5	2,192850
8,425333	0,5	2,257600
8,433667	0,5	2,304700
8,442000	0,5	2,340350
8,450333	0,5	2,347950
8,458667	0,5	2,327050
8,467000	0,5	2,277400
8,475333	0,5	2,196100
8,483667	0,5	2,091000
8,492000	0,5	1,968400
8,500333	0,5	1,851600
8,508667	0,5	1,741600
8,517000	0,5	1,650950
8,525333	0,5	1,579400
8,533667	0,5	1,530300
8,542000	0,5	1,494050
8,550333	0,5	1,471900
8,558667	0,5	1,465600
8,567000	0,5	1,481550
8,575333	0,5	1,523400
8,583667	0,5	1,598100
8,592000	0,5	1,693750
8,600333	0,5	1,793650
8,608667	0,5	1,871800
8,617000	0,5	1,915150
8,625333	0,5	1,921850
8,633667	0,5	1,900350
8,642000	0,5	1,855700
8,650333	0,5	1,802550
8,658667	0,5	1,744500
8,667000	0,5	1,685250
8,675333	0,5	1,622150
8,683667	0,5	1,562850
8,692000	0,5	1,508500
8,700333	0,5	1,457850
8,708667	0,5	1,417350
8,717000	0,5	1,392550
8,725333	0,5	1,386650
8,733667	0,5	1,383950
8,742000	0,5	1,386750
8,750333	0,5	1,387450
8,758667	0,5	1,381350
8,767000	0,5	1,376250
8,775333	0,5	1,362250
8,783667	0,5	1,345850
8,792000	0,5	1,332450
8,800333	0,5	1,328200
8,808667	0,5	1,332450
8,817000	0,5	1,352550
8,825333	0,5	1,392300
8,833667	0,5	1,455650
8,842000	0,5	1,529850
8,850333	0,5	1,615350
8,858667	0,5	1,694250
8,867000	0,5	1,757450
8,875333	0,5	1,791000
8,883667	0,5	1,792900
8,892000	0,5	1,760400
8,900333	0,5	1,709200
8,908667	0,5	1,645250
8,917000	0,5	1,583800
8,925333	0,5	1,531700
8,933667	0,5	1,496250
8,942000	0,5	1,470650
8,950333	0,5	1,461100
8,958667	0,5	1,464550
8,967000	0,5	1,475650
8,975333	0,5	1,507700
8,983667	0,5	1,562900
8,992000	0,5	1,641000
9,000333	0,5	1,741050
9,008667	0,5	1,847900
9,017000	0,5	1,936950
9,025333	0,5	1,988400
9,033667	0,5	1,968350
9,042000	0,5	1,906950
9,050333	0,5	1,815850
9,058667	0,5	1,713300
9,067000	0,5	1,628700
9,075333	0,5	1,576000
9,083667	0,5	1,557350
9,092000	0,5	1,578500
9,100333	0,5	1,626100
9,108667	0,5	1,689500
9,117000	0,5	1,753100
9,125333	0,5	1,793200
9,133667	0,5	1,795050
9,142000	0,5	1,754800
9,150333	0,5	1,686150
9,158667	0,5	1,603900
9,167000	0,5	1,518750
9,175333	0,5	1,454900
9,183667	0,5	1,399100
9,192000	0,5	1,358450
9,200333	0,5	1,335800
9,208667	0,5	1,323800
9,217000	0,5	1,313000
9,225333	0,5	1,305300
9,233667	0,5	1,293500
9,242000	0,5	1,289500
9,250333	0,5	1,283500
9,258667	0,5	1,283050
9,267000	0,5	1,286050
9,275333	0,5	1,300000
9,283667	0,5	1,317300
9,292000	0,5	1,339750
9,300333	0,5	1,366700
9,308667	0,5	1,403750
9,317000	0,5	1,445150
9,325333	0,5	1,500250
9,333667	0,5	1,576700
9,342000	0,5	1,686900
9,350333	0,5	1,833800
9,358667	0,5	2,001400
9,367000	0,5	2,168000
9,375333	0,5	2,287750
9,383667	0,5	2,332900
9,392000	0,5	2,304950
9,400333	0,5	2,214050
9,408667	0,5	2,086700
9,417000	0,5	1,943000
9,425333	0,5	1,811900
9,433667	0,5	1,699900
9,442000	0,5	1,609650
9,450333	0,5	1,550300
9,458667	0,5	1,527650
9,467000	0,5	1,535650
9,475333	0,5	1,583800
9,483667	0,5	1,676200
9,492000	0,5	1,849800
9,500333	0,5	2,112100
9,508667	0,5	2,496400
9,517000	0,5	2,987950
9,525333	0,5	3,537200
9,533667	0,5	4,057800
9,542000	0,5	4,463000
9,550333	0,5	4,673150
9,558667	0,5	4,669150
9,567000	0,5	4,474450
9,575333	0,5	4,155200
9,583667	0,5	3,766950
9,592000	0,5	3,373700
9,600333	0,5	2,999450
9,608667	0,5	2,671950
9,617000	0,5	2,385500
9,625333	0,5	2,154000
9,633667	0,5	1,977250
9,642000	0,5	1,854850
9,650333	0,5	1,796550
9,658667	0,5	1,785800
9,667000	0,5	1,828400
9,675333	0,5	1,912450
9,683667	0,5	2,039800
9,692000	0,5	2,198100
9,700333	0,5	2,393600
9,708667	0,5	2,613500
9,717000	0,5	2,854500
9,725333	0,5	3,103700
9,733667	0,5	3,346400
9,742000	0,5	3,563800
9,750333	0,5	3,738400
9,758667	0,5	3,855450
9,767000	0,5	3,886550
9,775333	0,5	3,813600
9,783667	0,5	3,644650
9,792000	0,5	3,397750
9,800333	0,5	3,115350
9,808667	0,5	2,821850
9,817000	0,5	2,538850
9,825333	0,5	2,291550
9,833667	0,5	2,076000
9,842000	0,5	1,906450
9,850333	0,5	1,772750
9,858667	0,5	1,675450
9,867000	0,5	1,610050
9,875333	0,5	1,571850
9,883667	0,5	1,549500
9,892000	0,5	1,543750
9,900333	0,5	1,542000
9,908667	0,5	1,555300
9,917000	0,5	1,570850
9,925333	0,5	1,594800
9,933667	0,5	1,635250
9,942000	0,5	1,687000
9,950333	0,5	1,740900
9,958667	0,5	1,787000
9,967000	0,5	1,814250
9,975333	0,5	1,811400
9,983667	0,5	1,776850
9,992000	0,5	1,727550
10,000333	0,5	1,672700
10,008667	0,5	1,619900
10,017000	0,5	1,585800
10,025333	0,5	1,575550
10,033667	0,5	1,598550
10,042000	0,5	1,662950
10,050333	0,5	1,768000
10,058667	0,5	1,906450
10,067000	0,5	2,050350
10,075333	0,5	2,163500
10,083667	0,5	2,221850
10,092000	0,5	2,216650
10,100333	0,5	2,153250
10,108667	0,5	2,054700
10,117000	0,5	1,942500
10,125333	0,5	1,834550
10,133667	0,5	1,742700
10,142000	0,5	1,677500
10,150333	0,5	1,640450
10,158667	0,5	1,627000
10,167000	0,5	1,631100
10,175333	0,5	1,650200
10,183667	0,5	1,679900
10,192000	0,5	1,722700
10,200333	0,5	1,776450
10,208667	0,5	1,849750
10,217000	0,5	1,927200
10,225333	0,5	2,011350
10,233667	0,5	2,096850
10,242000	0,5	2,192500
10,250333	0,5	2,307350
10,258667	0,5	2,462850
10,267000	0,5	2,640500
10,275333	0,5	2,808050
10,283667	0,5	2,902100
10,292000	0,5	2,903450
10,300333	0,5	2,818200
10,308667	0,5	2,687150
10,317000	0,5	2,543400
10,325333	0,5	2,422900
10,333667	0,5	2,383500
10,342000	0,5	2,466800
10,350333	0,5	2,780750
10,358667	0,5	3,580200
10,367000	0,5	4,965850
10,375333	0,5	6,145150
10,383667	0,5	6,401250
10,392000	0,5	5,845300
10,400333	0,5	4,760850
10,408667	0,5	3,470550
10,417000	0,5	2,385450
10,425333	0,5	1,602500
10,433667	0,5	1,127750
10,442000	0,5	0,850100
10,450333	0,5	0,677450
10,458667	0,5	0,569750
10,467000	0,5	0,491450
10,475333	0,5	0,435650
10,483667	0,5	0,391000
10,492000	0,5	0,355400
10,500333	0,5	0,332050
10,508667	0,5	0,311100
10,517000	0,5	0,291050
10,525333	0,5	0,274250
10,533667	0,5	0,260850
10,542000	0,5	0,247650
10,550333	0,5	0,239400
10,558667	0,5	0,232000
10,567000	0,5	0,223100
10,575333	0,5	0,220100
10,583667	0,5	0,216500
10,592000	0,5	0,211300
10,600333	0,5	0,210750
10,608667	0,5	0,214650
10,617000	0,5	0,209900
10,625333	0,5	0,211900
10,633667	0,5	0,214250
10,642000	0,5	0,216800
10,650333	0,5	0,227000
10,658667	0,5	0,228950
10,667000	0,5	0,233750
10,675333	0,5	0,239200
10,683667	0,5	0,236750
10,692000	0,5	0,236150
10,700333	0,5	0,233950
10,708667	0,5	0,227000
10,717000	0,5	0,219000
10,725333	0,5	0,204150
10,733667	0,5	0,190800
10,742000	0,5	0,173750
10,750333	0,5	0,157500
10,758667	0,5	0,141550
10,767000	0,5	0,123400
10,775333	0,5	0,101800
10,783667	0,5	0,085300
10,792000	0,5	0,069550
10,800333	0,5	0,058150
10,808667	0,5	0,044950
10,817000	0,5	0,035750
10,825333	0,5	0,021500
10,833667	0,5	0,009950
10,842000	0,5	0,002150
10,850333	0,5	-0,005050
10,858667	0,5	-0,014600
10,867000	0,5	-0,023150
10,875333	0,5	-0,026950
10,883667	0,5	-0,035300
10,892000	0,5	-0,044100
10,900333	0,5	-0,046100
10,908667	0,5	-0,048950
10,917000	0,5	-0,055900
10,925333	0,5	-0,060150
10,933667	0,5	-0,068100
10,942000	0,5	-0,073200
10,950333	0,5	-0,065950
10,958667	0,5	-0,065250
10,967000	0,5	-0,069300
10,975333	0,5	-0,067500
10,983667	0,5	-0,067800
10,992000	0,5	-0,062150
11,000333	0,5	-0,057300
11,008667	0,5	-0,054100
11,017000	0,5	-0,046400
11,025333	0,5	-0,038750
11,033667	0,5	-0,034750
11,042000	0,5	-0,026450
11,050333	0,5	-0,014200
11,058667	0,5	-0,005200
11,067000	0,5	0,002450
11,075333	0,5	0,008650
11,083667	0,5	0,016900
11,092000	0,5	0,026100
11,100333	0,5	0,034550
11,108667	0,5	0,038400
11,117000	0,5	0,051400
11,125333	0,5	0,049350
11,133667	0,5	0,056400
11,142000	0,5	0,055650
11,150333	0,5	0,055800
11,158667	0,5	0,049500
11,167000	0,5	0,048150
11,175333	0,5	0,041600
11,183667	0,5	0,031200
11,192000	0,5	0,024850
11,200333	0,5	0,021400
11,208667	0,5	0,011450
11,217000	0,5	-0,002300
11,225333	0,5	-0,013700
11,233667	0,5	-0,020600
11,242000	0,5	-0,025350
11,250333	0,5	-0,032800
11,258667	0,5	-0,037600
11,267000	0,5	-0,044300
11,275333	0,5	-0,045450
11,283667	0,5	-0,052600
11,292000	0,5	-0,055550
11,300333	0,5	-0,055050
11,308667	0,5	-0,058650
11,317000	0,5	-0,057850
11,325333	0,5	-0,058350
11,333667	0,5	-0,065950
11,342000	0,5	-0,060600
11,350333	0,5	-0,058750
11,358667	0,5	-0,056450
11,367000	0,5	-0,058300
11,375333	0,5	-0,064250
11,383667	0,5	-0,058900
11,392000	0,5	-0,056250
11,400333	0,5	-0,053950
11,408667	0,5	-0,051750
11,417000	0,5	-0,043350
11,425333	0,5	-0,041350
11,433667	0,5	-0,039250
11,442000	0,5	-0,034900
11,450333	0,5	-0,030400
11,458667	0,5	-0,028750
11,467000	0,5	-0,021450
11,475333	0,5	-0,019050
11,483667	0,5	-0,018750
11,492000	0,5	-0,006700
11,500333	0,5	-0,003050
11,508667	0,5	0,003150
11,517000	0,5	0,005400
11,525333	0,5	0,012950
11,533667	0,5	0,021150
11,542000	0,5	0,034650
11,550333	0,5	0,045500
11,558667	0,5	0,053700
11,567000	0,5	0,063750
11,575333	0,5	0,072900
11,583667	0,5	0,080650
11,592000	0,5	0,093450
11,600333	0,5	0,103450
11,608667	0,5	0,114750
11,617000	0,5	0,125200
11,625333	0,5	0,131400
11,633667	0,5	0,139800
11,642000	0,5	0,147800
11,650333	0,5	0,151100
11,658667	0,5	0,154550
11,667000	0,5	0,153900
11,675333	0,5	0,155100
11,683667	0,5	0,156350
11,692000	0,5	0,156550
11,700333	0,5	0,152800
11,708667	0,5	0,150650
11,717000	0,5	0,146150
11,725333	0,5	0,138850
11,733667	0,5	0,131900
11,742000	0,5	0,123350
11,750333	0,5	0,118500
11,758667	0,5	0,107950
11,767000	0,5	0,101550
11,775333	0,5	0,084100
11,783667	0,5	0,087600
11,792000	0,5	0,085400
11,800333	0,5	0,078650
11,808667	0,5	0,074200
11,817000	0,5	0,063800
11,825333	0,5	0,065000
11,833667	0,5	0,065400
11,842000	0,5	0,063200
11,850333	0,5	0,062200
11,858667	0,5	0,063050
11,867000	0,5	0,061900
11,875333	0,5	0,062000
11,883667	0,5	0,065350
11,892000	0,5	0,067450
11,900333	0,5	0,072350
11,908667	0,5	0,077100
11,917000	0,5	0,082650
11,925333	0,5	0,081250
11,933667	0,5	0,091600
11,942000	0,5	0,099100
11,950333	0,5	0,105500
11,958667	0,5	0,110050
11,967000	0,5	0,114900
11,975333	0,5	0,130550
11,983667	0,5	0,145350
11,992000	0,5	0,163900
12,000333	0,5	0,180100
12,008667	0,5	0,200700
12,017000	0,5	0,219850
12,025333	0,5	0,244150
12,033667	0,5	0,269200
12,042000	0,5	0,293950
12,050333	0,5	0,323700
12,058667	0,5	0,352250
12,067000	0,5	0,380000
12,075333	0,5	0,408600
12,083667	0,5	0,445250
12,092000	0,5	0,472350
12,100333	0,5	0,504350
12,108667	0,5	0,526500
12,117000	0,5	0,553700
12,125333	0,5	0,579350
12,133667	0,5	0,606550
12,142000	0,5	0,629600
12,150333	0,5	0,653400
12,158667	0,5	0,676300
12,167000	0,5	0,700550
12,175333	0,5	0,720200
12,183667	0,5	0,744500
12,192000	0,5	0,771350
12,200333	0,5	0,800100
12,208667	0,5	0,826050
12,217000	0,5	0,854300
12,225333	0,5	0,888550
12,233667	0,5	0,928250
12,242000	0,5	0,965800
12,250333	0,5	1,004500
12,258667	0,5	1,035650
12,267000	0,5	1,065700
12,275333	0,5	1,100400
12,283667	0,5	1,123850
12,292000	0,5	1,137700
12,300333	0,5	1,142050
12,308667	0,5	1,142900
12,317000	0,5	1,137400
12,325333	0,5	1,129250
12,333667	0,5	1,118200
12,342000	0,5	1,108800
12,350333	0,5	1,100500
12,358667	0,5	1,096000
12,367000	0,5	1,085500
12,375333	0,5	1,090650
12,383667	0,5	1,090200
12,392000	0,5	1,091050
12,400333	0,5	1,093750
12,408667	0,5	1,096950
12,417000	0,5	1,107150
12,425333	0,5	1,118350
12,433667	0,5	1,129350
12,442000	0,5	1,140450
12,450333	0,5	1,156550
12,458667	0,5	1,169650
12,467000	0,5	1,182700
12,475333	0,5	1,193600
12,483667	0,5	1,209300
12,492000	0,5	1,217650
12,500333	0,5	1,231800
12,508667	0,5	1,240350
12,517000	0,5	1,248300
12,525333	0,5	1,258900
12,533667	0,5	1,268450
12,542000	0,5	1,271800
12,550333	0,5	1,279450
12,558667	0,5	1,291000
12,567000	0,5	1,308550
12,575333	0,5	1,331750
12,583667	0,5	1,362400
12,592000	0,5	1,389800
12,600333	0,5	1,414400
12,608667	0,5	1,435350
12,617000	0,5	1,447300
12,625333	0,5	1,450450
12,633667	0,5	1,442650
12,642000	0,5	1,437750
12,650333	0,5	1,423650
12,658667	0,5	1,406550
12,667000	0,5	1,394250
12,675333	0,5	1,384200
12,683667	0,5	1,373050
12,692000	0,5	1,364050
12,700333	0,5	1,353150
12,708667	0,5	1,351050
12,717000	0,5	1,355200
12,725333	0,5	1,362600
12,733667	0,5	1,364500
12,742000	0,5	1,374750
12,750333	0,5	1,378400
12,758667	0,5	1,388600
12,767000	0,5	1,387250
12,775333	0,5	1,391250
12,783667	0,5	1,391300
12,792000	0,5	1,387300
12,800333	0,5	1,386450
12,808667	0,5	1,378800
12,817000	0,5	1,380050
12,825333	0,5	1,381100
12,833667	0,5	1,379800
12,842000	0,5	1,384750
12,850333	0,5	1,388400
12,858667	0,5	1,397200
12,867000	0,5	1,404750
12,875333	0,5	1,405150
12,883667	0,5	1,405500
12,892000	0,5	1,400150
12,900333	0,5	1,394200
12,908667	0,5	1,387800
12,917000	0,5	1,382400
12,925333	0,5	1,381700
12,933667	0,5	1,377500
12,942000	0,5	1,377900
12,950333	0,5	1,367200
12,958667	0,5	1,367000
12,967000	0,5	1,362100
12,975333	0,5	1,359100
12,983667	0,5	1,348150
12,992000	0,5	1,342250
13,000333	0,5	1,336700
13,008667	0,5	1,340100
13,017000	0,5	1,338150
13,025333	0,5	1,346700
13,033667	0,5	1,348500
13,042000	0,5	1,356350
13,050333	0,5	1,362850
13,058667	0,5	1,373350
13,067000	0,5	1,374900
13,075333	0,5	1,380900
13,083667	0,5	1,386000
13,092000	0,5	1,386650
13,100333	0,5	1,373000
13,108667	0,5	1,368350
13,117000	0,5	1,359550
13,125333	0,5	1,348050
13,133667	0,5	1,337250
13,142000	0,5	1,321850
13,150333	0,5	1,323050
13,158667	0,5	1,319500
13,167000	0,5	1,319150
13,175333	0,5	1,320150
13,183667	0,5	1,322250
13,192000	0,5	1,323000
13,200333	0,5	1,327850
13,208667	0,5	1,326850
13,217000	0,5	1,333250
13,225333	0,5	1,333400
13,233667	0,5	1,337700
13,242000	0,5	1,339200
13,250333	0,5	1,333750
13,258667	0,5	1,340100
13,267000	0,5	1,339100
13,275333	0,5	1,343100
13,283667	0,5	1,340050
13,292000	0,5	1,337850
13,300333	0,5	1,341250
13,308667	0,5	1,350850
13,317000	0,5	1,354450
13,325333	0,5	1,353600
13,333667	0,5	1,351100
13,342000	0,5	1,347900
13,350333	0,5	1,340650
13,358667	0,5	1,339000
13,367000	0,5	1,336150
13,375333	0,5	1,339300
13,383667	0,5	1,345000
13,392000	0,5	1,352800
13,400333	0,5	1,354150
13,408667	0,5	1,366350
13,417000	0,5	1,363150
13,425333	0,5	1,363900
13,433667	0,5	1,354500
13,442000	0,5	1,350250
13,450333	0,5	1,348950
13,458667	0,5	1,342550
13,467000	0,5	1,334100
13,475333	0,5	1,328900
13,483667	0,5	1,322950
13,492000	0,5	1,325400
13,500333	0,5	1,328850
13,508667	0,5	1,336200
13,517000	0,5	1,352650
13,525333	0,5	1,365300
13,533667	0,5	1,381900
13,542000	0,5	1,389050
13,550333	0,5	1,399950
13,558667	0,5	1,405650
13,567000	0,5	1,401400
13,575333	0,5	1,395500
13,583667	0,5	1,375000
13,592000	0,5	1,364450
13,600333	0,5	1,355350
13,608667	0,5	1,344700
13,617000	0,5	1,340000
13,625333	0,5	1,342850
13,633667	0,5	1,343750
13,642000	0,5	1,347700
13,650333	0,5	1,350900
13,658667	0,5	1,346500
13,667000	0,5	1,339250
13,675333	0,5	1,337200
13,683667	0,5	1,323400
13,692000	0,5	1,316600
13,700333	0,5	1,328800
13,708667	0,5	1,343150
13,717000	0,5	1,362700
13,725333	0,5	1,391250
13,733667	0,5	1,415700
13,742000	0,5	1,448750
13,750333	0,5	1,464600
13,758667	0,5	1,462950
13,767000	0,5	1,442850
13,775333	0,5	1,419700
13,783667	0,5	1,385000
13,792000	0,5	1,360650
13,800333	0,5	1,339650
13,808667	0,5	1,327700
13,817000	0,5	1,327550
13,825333	0,5	1,329050
13,833667	0,5	1,348650
13,842000	0,5	1,353300
13,850333	0,5	1,376250
13,858667	0,5	1,379550
13,867000	0,5	1,386950
13,875333	0,5	1,385400
13,883667	0,5	1,399650
13,892000	0,5	1,439950
13,900333	0,5	1,491750
13,908667	0,5	1,541600
13,917000	0,5	1,580700
13,925333	0,5	1,588600
13,933667	0,5	1,581600
13,942000	0,5	1,540450
13,950333	0,5	1,477150
13,958667	0,5	1,408500
13,967000	0,5	1,350500
13,975333	0,5	1,309850
13,983667	0,5	1,277250
13,992000	0,5	1,265750
14,000333	0,5	1,271050
14,008667	0,5	1,281100
14,017000	0,5	1,296250
14,025333	0,5	1,320350
14,033667	0,5	1,348700
14,042000	0,5	1,395050
14,050333	0,5	1,439650
14,058667	0,5	1,490850
14,067000	0,5	1,524800
14,075333	0,5	1,538550
14,083667	0,5	1,514950
14,092000	0,5	1,480100
14,100333	0,5	1,413600
14,108667	0,5	1,351500
14,117000	0,5	1,303550
14,125333	0,5	1,255300
14,133667	0,5	1,222050
14,142000	0,5	1,214550
14,150333	0,5	1,217500
14,158667	0,5	1,224900
14,167000	0,5	1,253500
14,175333	0,5	1,284700
14,183667	0,5	1,332850
14,192000	0,5	1,367650
14,200333	0,5	1,401900
14,208667	0,5	1,415450
14,217000	0,5	1,409850
14,225333	0,5	1,386150
14,233667	0,5	1,348400
14,242000	0,5	1,298250
14,250333	0,5	1,248500
14,258667	0,5	1,206400
14,267000	0,5	1,182450
14,275333	0,5	1,157750
14,283667	0,5	1,154350
14,292000	0,5	1,166350
14,300333	0,5	1,179400
14,308667	0,5	1,197850
14,317000	0,5	1,217500
14,325333	0,5	1,241450
14,333667	0,5	1,263750
14,342000	0,5	1,276900
14,350333	0,5	1,263250
14,358667	0,5	1,252750
14,367000	0,5	1,227400
14,375333	0,5	1,201850
14,383667	0,5	1,177000
14,392000	0,5	1,160650
14,400333	0,5	1,151850
14,408667	0,5	1,152500
14,417000	0,5	1,165600
14,425333	0,5	1,182450
14,433667	0,5	1,202300
14,442000	0,5	1,220050
14,450333	0,5	1,226350
14,458667	0,5	1,223350
14,467000	0,5	1,211200
14,475333	0,5	1,197100
14,483667	0,5	1,186500
14,492000	0,5	1,167150
14,500333	0,5	1,144400
14,508667	0,5	1,129950
14,517000	0,5	1,116550
14,525333	0,5	1,106250
14,533667	0,5	1,103750
14,542000	0,5	1,098100
14,550333	0,5	1,093650
14,558667	0,5	1,094500
14,567000	0,5	1,093050
14,575333	0,5	1,079750
14,583667	0,5	1,080200
14,592000	0,5	1,072700
14,600333	0,5	1,065850
14,608667	0,5	1,056550
14,617000	0,5	1,052300
14,625333	0,5	1,050950
14,633667	0,5	1,051250
14,642000	0,5	1,051600
14,650333	0,5	1,046400
14,658667	0,5	1,045150
14,667000	0,5	1,043100
14,675333	0,5	1,039900
14,683667	0,5	1,030050
14,692000	0,5	1,028150
14,700333	0,5	1,021550
14,708667	0,5	1,024600
14,717000	0,5	1,013750
14,725333	0,5	1,014600
14,733667	0,5	1,015900
14,742000	0,5	1,016200
14,750333	0,5	1,008900
14,758667	0,5	1,001950
14,767000	0,5	0,992100
14,775333	0,5	0,991650
14,783667	0,5	0,980800
14,792000	0,5	0,972000
14,800333	0,5	0,962000
14,808667	0,5	0,953050
14,817000	0,5	0,945450
14,825333	0,5	0,941650
14,833667	0,5	0,937600
14,842000	0,5	0,932100
14,850333	0,5	0,933750
14,858667	0,5	0,943800
14,867000	0,5	0,937900
14,875333	0,5	0,947700
14,883667	0,5	0,951700
14,892000	0,5	0,945450
14,900333	0,5	0,940250
14,908667	0,5	0,921400
14,917000	0,5	0,914900
14,925333	0,5	0,910400
14,933667	0,5	0,904250
14,942000	0,5	0,893650
14,950333	0,5	0,888800
14,958667	0,5	0,888000
14,967000	0,5	0,890050
14,975333	0,5	0,892900
14,983667	0,5	0,886400
14,992000	0,5	0,878750
15,000333	0,5	0,873000
15,008667	0,5	0,873250
15,017000	0,5	0,863150
15,025333	0,5	0,867900
15,033667	0,5	0,866000
15,042000	0,5	0,864950
15,050333	0,5	0,863200
15,058667	0,5	0,861400
15,067000	0,5	0,862600
15,075333	0,5	0,871750
15,083667	0,5	0,867550
15,092000	0,5	0,875350
15,100333	0,5	0,866250
15,108667	0,5	0,867600
15,117000	0,5	0,861950
15,125333	0,5	0,858600
15,133667	0,5	0,852850
15,142000	0,5	0,845850
15,150333	0,5	0,844550
15,158667	0,5	0,837950
15,167000	0,5	0,831600
15,175333	0,5	0,836700
15,183667	0,5	0,834750
15,192000	0,5	0,829050
15,200333	0,5	0,824350
15,208667	0,5	0,819700
15,217000	0,5	0,823850
15,225333	0,5	0,820550
15,233667	0,5	0,825150
15,242000	0,5	0,814000
15,250333	0,5	0,814350
15,258667	0,5	0,812700
15,267000	0,5	0,817450
15,275333	0,5	0,816250
15,283667	0,5	0,819500
15,292000	0,5	0,825400
15,300333	0,5	0,826550
15,308667	0,5	0,815050
15,317000	0,5	0,822850
15,325333	0,5	0,825700
15,333667	0,5	0,824350
15,342000	0,5	0,824900
15,350333	0,5	0,819550
15,358667	0,5	0,828900
15,367000	0,5	0,834500
15,375333	0,5	0,845250
15,383667	0,5	0,846800
15,392000	0,5	0,847600
15,400333	0,5	0,843100
15,408667	0,5	0,842350
15,417000	0,5	0,838500
15,425333	0,5	0,841600
15,433667	0,5	0,836450
15,442000	0,5	0,839000
15,450333	0,5	0,839500
15,458667	0,5	0,831600
15,467000	0,5	0,840650
15,475333	0,5	0,838900
15,483667	0,5	0,835350
15,492000	0,5	0,833900
15,500333	0,5	0,829400
15,508667	0,5	0,837600
15,517000	0,5	0,843500
15,525333	0,5	0,841800
15,533667	0,5	0,838750
15,542000	0,5	0,841200
15,550333	0,5	0,849200
15,558667	0,5	0,851550
15,567000	0,5	0,857900
15,575333	0,5	0,855300
15,583667	0,5	0,864500
15,592000	0,5	0,863350
15,600333	0,5	0,872050
15,608667	0,5	0,863700
15,617000	0,5	0,875050
15,625333	0,5	0,874500
15,633667	0,5	0,875250
15,642000	0,5	0,876500
15,650333	0,5	0,881700
15,658667	0,5	0,905500
15,667000	0,5	0,921150
15,675333	0,5	0,922250
15,683667	0,5	0,919900
15,692000	0,5	0,911400
15,700333	0,5	0,896000
15,708667	0,5	0,884800
15,717000	0,5	0,867700
15,725333	0,5	0,855000
15,733667	0,5	0,843500
15,742000	0,5	0,844350
15,750333	0,5	0,836500
15,758667	0,5	0,840450
15,767000	0,5	0,845100
15,775333	0,5	0,838750
15,783667	0,5	0,834700
15,792000	0,5	0,823800
15,800333	0,5	0,817400
15,808667	0,5	0,820600
15,817000	0,5	0,819600
15,825333	0,5	0,814400
15,833667	0,5	0,807750
15,842000	0,5	0,807450
15,850333	0,5	0,811250
15,858667	0,5	0,807250
15,867000	0,5	0,812050
15,875333	0,5	0,810050
15,883667	0,5	0,815250
15,892000	0,5	0,812100
15,900333	0,5	0,797650
15,908667	0,5	0,798950
15,917000	0,5	0,795400
15,925333	0,5	0,783550
15,933667	0,5	0,777100
15,942000	0,5	0,762550
15,950333	0,5	0,771350
15,958667	0,5	0,770150
15,967000	0,5	0,773600
15,975333	0,5	0,773300
15,983667	0,5	0,777850
15,992000	0,5	0,784000
16,000333	0,5	0,785700
16,008667	0,5	0,787700
16,017000	0,5	0,786000
16,025333	0,5	0,790300
16,033667	0,5	0,792700
16,042000	0,5	0,789200
16,050333	0,5	0,785600
16,058667	0,5	0,801000
16,067000	0,5	0,805750
16,075333	0,5	0,807450
16,083667	0,5	0,808300
16,092000	0,5	0,815250
16,100333	0,5	0,837950
16,108667	0,5	0,859700
16,117000	0,5	0,877500
16,125333	0,5	0,903150
16,133667	0,5	0,914950
16,142000	0,5	0,924300
16,150333	0,5	0,929200
16,158667	0,5	0,918450
16,167000	0,5	0,904250
16,175333	0,5	0,886350
16,183667	0,5	0,870300
16,192000	0,5	0,848400
16,200333	0,5	0,838850
16,208667	0,5	0,833250
16,217000	0,5	0,824050
16,225333	0,5	0,815900
16,233667	0,5	0,809700
16,242000	0,5	0,812600
16,250333	0,5	0,825200
16,258667	0,5	0,828450
16,267000	0,5	0,833500
16,275333	0,5	0,829050
16,283667	0,5	0,833000
16,292000	0,5	0,828800
16,300333	0,5	0,829050
16,308667	0,5	0,825350
16,317000	0,5	0,825150
16,325333	0,5	0,835100
16,333667	0,5	0,836400
16,342000	0,5	0,829100
16,350333	0,5	0,841750
16,358667	0,5	0,838950
16,367000	0,5	0,829700
16,375333	0,5	0,822650
16,383667	0,5	0,809300
16,392000	0,5	0,807750
16,400333	0,5	0,805600
16,408667	0,5	0,810250
16,417000	0,5	0,809550
16,425333	0,5	0,811250
16,433667	0,5	0,808000
16,442000	0,5	0,813850
16,450333	0,5	0,815450
16,458667	0,5	0,819700
16,467000	0,5	0,821150
16,475333	0,5	0,829900
16,483667	0,5	0,825450
16,492000	0,5	0,830050
16,500333	0,5	0,838500
16,508667	0,5	0,839100
16,517000	0,5	0,836950
16,525333	0,5	0,821350
16,533667	0,5	0,824600
16,542000	0,5	0,834950
16,550333	0,5	0,845100
16,558667	0,5	0,853600
16,567000	0,5	0,871350
16,575333	0,5	0,887800
16,583667	0,5	0,912800
16,592000	0,5	0,936400
16,600333	0,5	0,965750
16,608667	0,5	0,989800
16,617000	0,5	1,012500
16,625333	0,5	1,027050
16,633667	0,5	1,026650
16,642000	0,5	1,034950
16,650333	0,5	1,040550
16,658667	0,5	1,056050
16,667000	0,5	1,076150
16,675333	0,5	1,112600
16,683667	0,5	1,172350
16,692000	0,5	1,255000
16,700333	0,5	1,322350
16,708667	0,5	1,384500
16,717000	0,5	1,416850
16,725333	0,5	1,416200
16,733667	0,5	1,385200
16,742000	0,5	1,329200
16,750333	0,5	1,249150
16,758667	0,5	1,165550
16,767000	0,5	1,092300
16,775333	0,5	1,028200
16,783667	0,5	0,959100
16,792000	0,5	0,923050
16,800333	0,5	0,888550
16,808667	0,5	0,864850
16,817000	0,5	0,839200
16,825333	0,5	0,814850
16,833667	0,5	0,815150
16,842000	0,5	0,811600
16,850333	0,5	0,812100
16,858667	0,5	0,805000
16,867000	0,5	0,803750
16,875333	0,5	0,797600
16,883667	0,5	0,791450
16,892000	0,5	0,782550
16,900333	0,5	0,781950
16,908667	0,5	0,781500
16,917000	0,5	0,781300
16,925333	0,5	0,768000
16,933667	0,5	0,764800
16,942000	0,5	0,766600
16,950333	0,5	0,761850
16,958667	0,5	0,758150
16,967000	0,5	0,744500
16,975333	0,5	0,741250
16,983667	0,5	0,738000
16,992000	0,5	0,738000
17,000333	0,5	0,732750
17,008667	0,5	0,727200
17,017000	0,5	0,721750
17,025333	0,5	0,721800
17,033667	0,5	0,717750
17,042000	0,5	0,715950
17,050333	0,5	0,708700
17,058667	0,5	0,717500
17,067000	0,5	0,713050
17,075333	0,5	0,705950
17,083667	0,5	0,705450
17,092000	0,5	0,707550
17,100333	0,5	0,702350
17,108667	0,5	0,695450
17,117000	0,5	0,676900
17,125333	0,5	0,674550
17,133667	0,5	0,676350
17,142000	0,5	0,681950
17,150333	0,5	0,679900
17,158667	0,5	0,685600
17,167000	0,5	0,682500
17,175333	0,5	0,681300
17,183667	0,5	0,683700
17,192000	0,5	0,684500
17,200333	0,5	0,683550
17,208667	0,5	0,687100
17,217000	0,5	0,686400
17,225333	0,5	0,670650
17,233667	0,5	0,677750
17,242000	0,5	0,675850
17,250333	0,5	0,672300
17,258667	0,5	0,660700
17,267000	0,5	0,651200
17,275333	0,5	0,657900
17,283667	0,5	0,659500
17,292000	0,5	0,652150
17,300333	0,5	0,650750
17,308667	0,5	0,645200
17,317000	0,5	0,642550
17,325333	0,5	0,643250
17,333667	0,5	0,639400
17,342000	0,5	0,641650
17,350333	0,5	0,638450
17,358667	0,5	0,644400
17,367000	0,5	0,637400
17,375333	0,5	0,626600
17,383667	0,5	0,633400
17,392000	0,5	0,632950
17,400333	0,5	0,620850
17,408667	0,5	0,614750
17,417000	0,5	0,600300
17,425333	0,5	0,615050
17,433667	0,5	0,614450
17,442000	0,5	0,619250
17,450333	0,5	0,615650
17,458667	0,5	0,620100
17,467000	0,5	0,620600
17,475333	0,5	0,625700
17,483667	0,5	0,626350
17,492000	0,5	0,632250
17,500333	0,5	0,642300
17,508667	0,5	0,652850
17,517000	0,5	0,645700
17,525333	0,5	0,664050
17,533667	0,5	0,678600
17,542000	0,5	0,688400
17,550333	0,5	0,700650
17,558667	0,5	0,702500
17,567000	0,5	0,727750
17,575333	0,5	0,751550
17,583667	0,5	0,781500
17,592000	0,5	0,800200
17,600333	0,5	0,827500
17,608667	0,5	0,852550
17,617000	0,5	0,875300
17,625333	0,5	0,896250
17,633667	0,5	0,925450
17,642000	0,5	0,947200
17,650333	0,5	0,974750
17,658667	0,5	0,994600
17,667000	0,5	1,005100
17,675333	0,5	1,028400
17,683667	0,5	1,037950
17,692000	0,5	1,050800
17,700333	0,5	1,050150
17,708667	0,5	1,053900
17,717000	0,5	1,060550
17,725333	0,5	1,080250
17,733667	0,5	1,088900
17,742000	0,5	1,102300
17,750333	0,5	1,109550
17,758667	0,5	1,117100
17,767000	0,5	1,117300
17,775333	0,5	1,121450
17,783667	0,5	1,110800
17,792000	0,5	1,108050
17,800333	0,5	1,098400
17,808667	0,5	1,079350
17,817000	0,5	1,059200
17,825333	0,5	1,050750
17,833667	0,5	1,028200
17,842000	0,5	1,004550
17,850333	0,5	0,972500
17,858667	0,5	0,950400
17,867000	0,5	0,939250
17,875333	0,5	0,921200
17,883667	0,5	0,909650
17,892000	0,5	0,892750
17,900333	0,5	0,882600
17,908667	0,5	0,860600
17,917000	0,5	0,853450
17,925333	0,5	0,839700
17,933667	0,5	0,830650
17,942000	0,5	0,825500
17,950333	0,5	0,818250
17,958667	0,5	0,789800
17,967000	0,5	0,793350
17,975333	0,5	0,783950
17,983667	0,5	0,768950
17,992000	0,5	0,759100
18,000333	0,5	0,737750
18,008667	0,5	0,735550
18,017000	0,5	0,726800
18,025333	0,5	0,721100
18,033667	0,5	0,715200
18,042000	0,5	0,714400
18,050333	0,5	0,707550
18,058667	0,5	0,707400
18,067000	0,5	0,703950
18,075333	0,5	0,701950
18,083667	0,5	0,694800
18,092000	0,5	0,697050
18,100333	0,5	0,688100
18,108667	0,5	0,674350
18,117000	0,5	0,679250
18,125333	0,5	0,676100
18,133667	0,5	0,665750
18,142000	0,5	0,657950
18,150333	0,5	0,646400
18,158667	0,5	0,646500
18,167000	0,5	0,647850
18,175333	0,5	0,641250
18,183667	0,5	0,646450
18,192000	0,5	0,642650
18,200333	0,5	0,646100
18,208667	0,5	0,640200
18,217000	0,5	0,646000
18,225333	0,5	0,642450
18,233667	0,5	0,651200
18,242000	0,5	0,656500
18,250333	0,5	0,658550
18,258667	0,5	0,657500
18,267000	0,5	0,675000
18,275333	0,5	0,679150
18,283667	0,5	0,686450
18,292000	0,5	0,679550
18,300333	0,5	0,680450
18,308667	0,5	0,689900
18,317000	0,5	0,697100
18,325333	0,5	0,695400
18,333667	0,5	0,694700
18,342000	0,5	0,692300
18,350333	0,5	0,691850
18,358667	0,5	0,688950
18,367000	0,5	0,682500
18,375333	0,5	0,679250
18,383667	0,5	0,674150
18,392000	0,5	0,673900
18,400333	0,5	0,656100
18,408667	0,5	0,657800
18,417000	0,5	0,657950
18,425333	0,5	0,655500
18,433667	0,5	0,645350
18,442000	0,5	0,637250
18,450333	0,5	0,632150
18,458667	0,5	0,637950
18,467000	0,5	0,633050
18,475333	0,5	0,642200
18,483667	0,5	0,643250
18,492000	0,5	0,647600
18,500333	0,5	0,648200
18,508667	0,5	0,646200
18,517000	0,5	0,652000
18,525333	0,5	0,651900
18,533667	0,5	0,664150
18,542000	0,5	0,657750
18,550333	0,5	0,654550
18,558667	0,5	0,656350
18,567000	0,5	0,654100
18,575333	0,5	0,647300
18,583667	0,5	0,638900
18,592000	0,5	0,629950
18,600333	0,5	0,627250
18,608667	0,5	0,628650
18,617000	0,5	0,635800
18,625333	0,5	0,629450
18,633667	0,5	0,634000
18,642000	0,5	0,634150
18,650333	0,5	0,632950
18,658667	0,5	0,628250
18,667000	0,5	0,622200
18,675333	0,5	0,630950
18,683667	0,5	0,628300
18,692000	0,5	0,613100
18,700333	0,5	0,608250
18,708667	0,5	0,610000
18,717000	0,5	0,607150
18,725333	0,5	0,603250
18,733667	0,5	0,584250
18,742000	0,5	0,591300
18,750333	0,5	0,589100
18,758667	0,5	0,593100
18,767000	0,5	0,585900
18,775333	0,5	0,587300
18,783667	0,5	0,586150
18,792000	0,5	0,586050
18,800333	0,5	0,584850
18,808667	0,5	0,581850
18,817000	0,5	0,582150
18,825333	0,5	0,589700
18,833667	0,5	0,590350
18,842000	0,5	0,575750
18,850333	0,5	0,584850
18,858667	0,5	0,578950
18,867000	0,5	0,575700
18,875333	0,5	0,568650
18,883667	0,5	0,559000
18,892000	0,5	0,558700
18,900333	0,5	0,556250
18,908667	0,5	0,557450
18,917000	0,5	0,559950
18,925333	0,5	0,562950
18,933667	0,5	0,561950
18,942000	0,5	0,560250
18,950333	0,5	0,569150
18,958667	0,5	0,561550
18,967000	0,5	0,562950
18,975333	0,5	0,570650
18,983667	0,5	0,566700
18,992000	0,5	0,555700
19,000333	0,5	0,560250
19,008667	0,5	0,560300
19,017000	0,5	0,550150
19,025333	0,5	0,545250
19,033667	0,5	0,539300
19,042000	0,5	0,550600
19,050333	0,5	0,544350
19,058667	0,5	0,547250
19,067000	0,5	0,544100
19,075333	0,5	0,549650
19,083667	0,5	0,547550
19,092000	0,5	0,547000
19,100333	0,5	0,544050
19,108667	0,5	0,545300
19,117000	0,5	0,553000
19,125333	0,5	0,559000
19,133667	0,5	0,549750
19,142000	0,5	0,552300
19,150333	0,5	0,555050
19,158667	0,5	0,560200
19,167000	0,5	0,554000
19,175333	0,5	0,540300
19,183667	0,5	0,547200
19,192000	0,5	0,539200
19,200333	0,5	0,546100
19,208667	0,5	0,543550
19,217000	0,5	0,551100
19,225333	0,5	0,550100
19,233667	0,5	0,552550
19,242000	0,5	0,555550
19,250333	0,5	0,558250
19,258667	0,5	0,556350
19,267000	0,5	0,568300
19,275333	0,5	0,570650
19,283667	0,5	0,569600
19,292000	0,5	0,577500
19,300333	0,5	0,578050
19,308667	0,5	0,581150
19,317000	0,5	0,575650
19,325333	0,5	0,575750
19,333667	0,5	0,579550
19,342000	0,5	0,593700
19,350333	0,5	0,599300
19,358667	0,5	0,608150
19,367000	0,5	0,614750
19,375333	0,5	0,623200
19,383667	0,5	0,625900
19,392000	0,5	0,635900
19,400333	0,5	0,638450
19,408667	0,5	0,652000
19,417000	0,5	0,654150
19,425333	0,5	0,649050
19,433667	0,5	0,645700
19,442000	0,5	0,646900
19,450333	0,5	0,635000
19,458667	0,5	0,628600
19,467000	0,5	0,609050
19,475333	0,5	0,598150
19,483667	0,5	0,596650
19,492000	0,5	0,586950
19,500333	0,5	0,584950
19,508667	0,5	0,585200
19,517000	0,5	0,585100
19,525333	0,5	0,584250
19,533667	0,5	0,589750
19,542000	0,5	0,584550
19,550333	0,5	0,589250
19,558667	0,5	0,596300
19,567000	0,5	0,599000
19,575333	0,5	0,586450
19,583667	0,5	0,596950
19,592000	0,5	0,595200
19,600333	0,5	0,592600
19,608667	0,5	0,583700
19,617000	0,5	0,570550
19,625333	0,5	0,578650
19,633667	0,5	0,577550
19,642000	0,5	0,582750
19,650333	0,5	0,580050
19,658667	0,5	0,587300
19,667000	0,5	0,587150
19,675333	0,5	0,592600
19,683667	0,5	0,589950
19,692000	0,5	0,593600
19,700333	0,5	0,594900
19,708667	0,5	0,607300
19,717000	0,5	0,598750
19,725333	0,5	0,604300
19,733667	0,5	0,607800
19,742000	0,5	0,616300
19,750333	0,5	0,611050
19,758667	0,5	0,604000
19,767000	0,5	0,601600
19,775333	0,5	0,606250
19,783667	0,5	0,613400
19,792000	0,5	0,611900
19,800333	0,5	0,618900
19,808667	0,5	0,626350
19,817000	0,5	0,631600
19,825333	0,5	0,637700
19,833667	0,5	0,643600
19,842000	0,5	0,641700
19,850333	0,5	0,651250
19,858667	0,5	0,655500
19,867000	0,5	0,647750
19,875333	0,5	0,660150
19,883667	0,5	0,661450
19,892000	0,5	0,657950
19,900333	0,5	0,655600
19,908667	0,5	0,640400
19,917000	0,5	0,651500
19,925333	0,5	0,654750
19,933667	0,5	0,651250
19,942000	0,5	0,656000
19,950333	0,5	0,657050
19,958667	0,5	0,660050
19,967000	0,5	0,662050
19,975333	0,5	0,670650
19,983667	0,5	0,661000
19,992000	0,5	0,669100
20,000333	0,5	0,677800
20,008667	0,5	0,684650
20,017000	0,5	0,678300
20,025333	0,5	0,692400
20,033667	0,5	0,693300
20,042000	0,5	0,695100
20,050333	0,5	0,690750
20,058667	0,5	0,684150
20,067000	0,5	0,695450
20,075333	0,5	0,702700
20,083667	0,5	0,693500
20,092000	0,5	0,697950
20,100333	0,5	0,696150
20,108667	0,5	0,691950
20,117000	0,5	0,694350
20,125333	0,5	0,690450
20,133667	0,5	0,690600
20,142000	0,5	0,692150
20,150333	0,5	0,702450
20,158667	0,5	0,701250
20,167000	0,5	0,696300
20,175333	0,5	0,701750
20,183667	0,5	0,700600
20,192000	0,5	0,700250
20,200333	0,5	0,691550
20,208667	0,5	0,687750
20,217000	0,5	0,693650
20,225333	0,5	0,696200
20,233667	0,5	0,703400
20,242000	0,5	0,704150
20,250333	0,5	0,715350
20,258667	0,5	0,713200
20,267000	0,5	0,718400
20,275333	0,5	0,722600
20,283667	0,5	0,722700
20,292000	0,5	0,742350
20,300333	0,5	0,745300
20,308667	0,5	0,739600
20,317000	0,5	0,743350
20,325333	0,5	0,748800
20,333667	0,5	0,742300
20,342000	0,5	0,737050
20,350333	0,5	0,728000
20,358667	0,5	0,733400
20,367000	0,5	0,738950
20,375333	0,5	0,740900
20,383667	0,5	0,743500
20,392000	0,5	0,752900
20,400333	0,5	0,756550
20,408667	0,5	0,761550
20,417000	0,5	0,763150
20,425333	0,5	0,764950
20,433667	0,5	0,776800
20,442000	0,5	0,789750
20,450333	0,5	0,790650
20,458667	0,5	0,788150
20,467000	0,5	0,793300
20,475333	0,5	0,788750
20,483667	0,5	0,787850
20,492000	0,5	0,780650
20,500333	0,5	0,781100
20,508667	0,5	0,781250
20,517000	0,5	0,787750
20,525333	0,5	0,790650
20,533667	0,5	0,797350
20,542000	0,5	0,799200
20,550333	0,5	0,809400
20,558667	0,5	0,813300
20,567000	0,5	0,819950
20,575333	0,5	0,822950
20,583667	0,5	0,834950
20,592000	0,5	0,851700
20,600333	0,5	0,851100
20,608667	0,5	0,855100
20,617000	0,5	0,857000
20,625333	0,5	0,858400
20,633667	0,5	0,849000
20,642000	0,5	0,843600
20,650333	0,5	0,853650
20,658667	0,5	0,863650
20,667000	0,5	0,866150
20,675333	0,5	0,872250
20,683667	0,5	0,876250
20,692000	0,5	0,888350
20,700333	0,5	0,899350
20,708667	0,5	0,910100
20,717000	0,5	0,917300
20,725333	0,5	0,926550
20,733667	0,5	0,952150
20,742000	0,5	0,971000
20,750333	0,5	0,962350
20,758667	0,5	0,966650
20,767000	0,5	0,974100
20,775333	0,5	0,961200
20,783667	0,5	0,957850
20,792000	0,5	0,958050
20,800333	0,5	0,970600
20,808667	0,5	0,973950
20,817000	0,5	0,981300
20,825333	0,5	0,982050
20,833667	0,5	0,993000
20,842000	0,5	0,996950
20,850333	0,5	1,013700
20,858667	0,5	1,026000
20,867000	0,5	1,038300
20,875333	0,5	1,069200
20,883667	0,5	1,099150
20,892000	0,5	1,124750
20,900333	0,5	1,130600
20,908667	0,5	1,144650
20,917000	0,5	1,147300
20,925333	0,5	1,146150
20,933667	0,5	1,129500
20,942000	0,5	1,139700
20,950333	0,5	1,145350
20,958667	0,5	1,158400
20,967000	0,5	1,161300
20,975333	0,5	1,175150
20,983667	0,5	1,184800
20,992000	0,5	1,198350
21,000333	0,5	1,212550
21,008667	0,5	1,224850
21,017000	0,5	1,233550
21,025333	0,5	1,260050
21,033667	0,5	1,278150
21,042000	0,5	1,282150
21,050333	0,5	1,287600
21,058667	0,5	1,282400
21,067000	0,5	1,282850
21,075333	0,5	1,275400
21,083667	0,5	1,272700
21,092000	0,5	1,290900
21,100333	0,5	1,306700
21,108667	0,5	1,310350
21,117000	0,5	1,329050
21,125333	0,5	1,341600
21,133667	0,5	1,358700
21,142000	0,5	1,379250
21,150333	0,5	1,398350
21,158667	0,5	1,426650
21,167000	0,5	1,457350
21,175333	0,5	1,506200
21,183667	0,5	1,548950
21,192000	0,5	1,563250
21,200333	0,5	1,579200
21,208667	0,5	1,585150
21,217000	0,5	1,570400
21,225333	0,5	1,558450
21,233667	0,5	1,541150
21,242000	0,5	1,547450
21,250333	0,5	1,543200
21,258667	0,5	1,550600
21,267000	0,5	1,554700
21,275333	0,5	1,568900
21,283667	0,5	1,577550
21,292000	0,5	1,590850
21,300333	0,5	1,594100
21,308667	0,5	1,599050
21,317000	0,5	1,623750
21,325333	0,5	1,643450
21,333667	0,5	1,640550
21,342000	0,5	1,642950
21,350333	0,5	1,639400
21,358667	0,5	1,636650
21,367000	0,5	1,624650
21,375333	0,5	1,630200
21,383667	0,5	1,646350
21,392000	0,5	1,661850
21,400333	0,5	1,687100
21,408667	0,5	1,702250
21,417000	0,5	1,723700
21,425333	0,5	1,735400
21,433667	0,5	1,749950
21,442000	0,5	1,765000
21,450333	0,5	1,774400
21,458667	0,5	1,797950
21,467000	0,5	1,826350
21,475333	0,5	1,847550
21,483667	0,5	1,862550
21,492000	0,5	1,880150
21,500333	0,5	1,890050
21,508667	0,5	1,913200
21,517000	0,5	1,915950
21,525333	0,5	1,938900
21,533667	0,5	1,948550
21,542000	0,5	1,966300
21,550333	0,5	1,976350
21,558667	0,5	1,994600
21,567000	0,5	2,000700
21,575333	0,5	2,024300
21,583667	0,5	2,036600
21,592000	0,5	2,050600
21,600333	0,5	2,067800
21,608667	0,5	2,100400
21,617000	0,5	2,124250
21,625333	0,5	2,132550
21,633667	0,5	2,143900
21,642000	0,5	2,151850
21,650333	0,5	2,162700
21,658667	0,5	2,161600
21,667000	0,5	2,169600
21,675333	0,5	2,189250
21,683667	0,5	2,215200
21,692000	0,5	2,227000
21,700333	0,5	2,256450
21,708667	0,5	2,272950
21,717000	0,5	2,294050
21,725333	0,5	2,316350
21,733667	0,5	2,343500
21,742000	0,5	2,369500
21,750333	0,5	2,399200
21,758667	0,5	2,442250
21,767000	0,5	2,468650
21,775333	0,5	2,489900
21,783667	0,5	2,515000
21,792000	0,5	2,533950
21,800333	0,5	2,548500
21,808667	0,5	2,567500
21,817000	0,5	2,587250
21,825333	0,5	2,623900
21,833667	0,5	2,639150
21,842000	0,5	2,655450
21,850333	0,5	2,666800
21,858667	0,5	2,678500
21,867000	0,5	2,693800
21,875333	0,5	2,719050
21,883667	0,5	2,740450
21,892000	0,5	2,765000
21,900333	0,5	2,802650
21,908667	0,5	2,840900
21,917000	0,5	2,856750
21,925333	0,5	2,892750
21,933667	0,5	2,920750
21,942000	0,5	2,942150
21,950333	0,5	2,966600
21,958667	0,5	2,974050
21,967000	0,5	3,022850
21,975333	0,5	3,054000
21,983667	0,5	3,094300
21,992000	0,5	3,128700
22,000333	0,5	3,175900
22,008667	0,5	3,222650
22,017000	0,5	3,271950
22,025333	0,5	3,315650
22,033667	0,5	3,344050
22,042000	0,5	3,359100
22,050333	0,5	3,373550
22,058667	0,5	3,378600
22,067000	0,5	3,388050
22,075333	0,5	3,416450
22,083667	0,5	3,438150
22,092000	0,5	3,460250
22,100333	0,5	3,473750
22,108667	0,5	3,500400
22,117000	0,5	3,534900
22,125333	0,5	3,569350
22,133667	0,5	3,591650
22,142000	0,5	3,624050
22,150333	0,5	3,649950
22,158667	0,5	3,683750
22,167000	0,5	3,717850
22,175333	0,5	3,753650
22,183667	0,5	3,787450
22,192000	0,5	3,826200
22,200333	0,5	3,870600
22,208667	0,5	3,905300
22,217000	0,5	3,951800
22,225333	0,5	3,996100
22,233667	0,5	4,032500
22,242000	0,5	4,062850
22,250333	0,5	4,093900
22,258667	0,5	4,132450
22,267000	0,5	4,185850
22,275333	0,5	4,225300
22,283667	0,5	4,278600
22,292000	0,5	4,328500
22,300333	0,5	4,382800
22,308667	0,5	4,439900
22,317000	0,5	4,512100
22,325333	0,5	4,592050
22,333667	0,5	4,668150
22,342000	0,5	4,746750
22,350333	0,5	4,815400
22,358667	0,5	4,900300
22,367000	0,5	4,968850
22,375333	0,5	5,012350
22,383667	0,5	5,047250
22,392000	0,5	5,070000
22,400333	0,5	5,103100
22,408667	0,5	5,152150
22,417000	0,5	5,188100
22,425333	0,5	5,242000
22,433667	0,5	5,283700
22,442000	0,5	5,341400
22,450333	0,5	5,391800
22,458667	0,5	5,454000
22,467000	0,5	5,514050
22,475333	0,5	5,572850
22,483667	0,5	5,614400
22,492000	0,5	5,662650
22,500333	0,5	5,729700
22,508667	0,5	5,804100
22,517000	0,5	5,865100
22,525333	0,5	5,911250
22,533667	0,5	5,958800
22,542000	0,5	5,986750
22,550333	0,5	6,037200
22,558667	0,5	6,072200
22,567000	0,5	6,098950
22,575333	0,5	6,107800
22,583667	0,5	6,122350
22,592000	0,5	6,121900
22,600333	0,5	6,123900
22,608667	0,5	6,120100
22,617000	0,5	6,098250
22,625333	0,5	6,076400
22,633667	0,5	6,006550
22,642000	0,5	5,988300
22,650333	0,5	5,966500
22,658667	0,5	5,925750
22,667000	0,5	5,859100
22,675333	0,5	5,781050
22,683667	0,5	5,690650
22,692000	0,5	5,601500
22,700333	0,5	5,511850
22,708667	0,5	5,413300
22,717000	0,5	5,304700
22,725333	0,5	5,193500
22,733667	0,5	5,076400
22,742000	0,5	4,960900
22,750333	0,5	4,837900
22,758667	0,5	4,713050
22,767000	0,5	4,583350
22,775333	0,5	4,418950
22,783667	0,5	4,269050
22,792000	0,5	4,127200
22,800333	0,5	4,000700
22,808667	0,5	3,840550
22,817000	0,5	3,673300
22,825333	0,5	3,512150
22,833667	0,5	3,349300
22,842000	0,5	3,180100
22,850333	0,5	3,004700
22,858667	0,5	2,849250
22,867000	0,5	2,682450
22,875333	0,5	2,528350
22,883667	0,5	2,372750
22,892000	0,5	2,219800
22,900333	0,5	2,066000
22,908667	0,5	1,918000
22,917000	0,5	1,778300
22,925333	0,5	1,645900
22,933667	0,5	1,513150
22,942000	0,5	1,378000
22,950333	0,5	1,218500
22,958667	0,5	1,091000
22,967000	0,5	0,974700
22,975333	0,5	0,861300
22,983667	0,5	0,760550
22,992000	0,5	0,636550
23,000333	0,5	0,540850
23,008667	0,5	0,439600
23,017000	0,5	0,348150
23,025333	0,5	0,255350
23,033667	0,5	0,172450
23,042000	0,5	0,083400
23,050333	0,5	0,001900
23,058667	0,5	-0,075450
23,067000	0,5	-0,133150
23,075333	0,5	-0,216350
23,083667	0,5	-0,268450
23,092000	0,5	-0,364700
23,100333	0,5	-0,450500
23,108667	0,5	-0,507300
23,117000	0,5	-0,563250
23,125333	0,5	-0,608550
23,133667	0,5	-0,658250
23,142000	0,5	-0,708500
23,150333	0,5	-0,760750
23,158667	0,5	-0,795700
23,167000	0,5	-0,837450
23,175333	0,5	-0,873100
23,183667	0,5	-0,911550
23,192000	0,5	-0,941400
23,200333	0,5	-0,977000
23,208667	0,5	-1,008950
23,217000	0,5	-1,038800
23,225333	0,5	-1,072250
23,233667	0,5	-1,073050
23,242000	0,5	-1,122000
23,250333	0,5	-1,166350
23,258667	0,5	-1,194600
23,267000	0,5	-1,209450
23,275333	0,5	-1,230200
23,283667	0,5	-1,245200
23,292000	0,5	-1,266050
23,300333	0,5	-1,276350
23,308667	0,5	-1,292750
23,317000	0,5	-1,297350
23,325333	0,5	-1,312100
23,333667	0,5	-1,316750
23,342000	0,5	-1,329650
23,350333	0,5	-1,334300
23,358667	0,5	-1,339150
23,367000	0,5	-1,403250
23,375333	0,5	-1,378200
23,383667	0,5	-1,350950
23,392000	0,5	-1,366250
23,400333	0,5	-1,385500
23,408667	0,5	-1,396050
23,417000	0,5	-1,401050
23,425333	0,5	-1,403400
23,433667	0,5	-1,413050
23,442000	0,5	-1,413000
23,450333	0,5	-1,420350
23,458667	0,5	-1,420550
23,467000	0,5	-1,420000
23,475333	0,5	-1,420000
23,483667	0,5	-1,421850
23,492000	0,5	-1,415750
23,500333	0,5	-1,417450
23,508667	0,5	-1,454100
23,517000	0,5	-1,486250
23,525333	0,5	-1,460500
23,533667	0,5	-1,404750
23,542000	0,5	-1,398450
23,550333	0,5	-1,401450
23,558667	0,5	-1,402500
23,567000	0,5	-1,402650
23,575333	0,5	-1,397600
23,583667	0,5	-1,398450
23,592000	0,5	-1,392050
23,600333	0,5	-1,386550
23,608667	0,5	-1,385150
23,617000	0,5	-1,378450
23,625333	0,5	-1,374250
23,633667	0,5	-1,368750
23,642000	0,5	-1,362600
23,650333	0,5	-1,359400
23,658667	0,5	-1,464500
23,667000	0,5	-1,431950
23,675333	0,5	-1,397450
23,683667	0,5	-1,341500
23,692000	0,5	-1,328200
23,700333	0,5	-1,323050
23,708667	0,5	-1,321150
23,717000	0,5	-1,321250
23,725333	0,5	-1,305400
23,733667	0,5	-1,294400
23,742000	0,5	-1,283850
23,750333	0,5	-1,271200
23,758667	0,5	-1,265600
23,767000	0,5	-1,252550
23,775333	0,5	-1,244750
23,783667	0,5	-1,231450
23,792000	0,5	-1,223250
23,800333	0,5	-1,236500
23,808667	0,5	-1,336800
23,817000	0,5	-1,277850
23,825333	0,5	-1,248000
23,833667	0,5	-1,195700
23,842000	0,5	-1,182100
23,850333	0,5	-1,169850
23,858667	0,5	-1,172500
23,867000	0,5	-1,166850
23,875333	0,5	-1,149600
23,883667	0,5	-1,132850
23,892000	0,5	-1,125600
23,900333	0,5	-1,116650
23,908667	0,5	-1,104400
23,917000	0,5	-1,092600
23,925333	0,5	-1,074750
23,933667	0,5	-1,061400
23,942000	0,5	-1,049950
23,950333	0,5	-1,134400
23,958667	0,5	-1,127200
23,967000	0,5	-1,094700
23,975333	0,5	-1,041100
23,983667	0,5	-1,006150
23,992000	0,5	-0,989700
24,000333	0,5	-0,988950
24,008667	0,5	-0,985650
24,017000	0,5	-0,983950
24,025333	0,5	-0,962550
24,033667	0,5	-0,951150
24,042000	0,5	-0,938350
24,050333	0,5	-0,928250
24,058667	0,5	-0,914950
24,067000	0,5	-0,904400
24,075333	0,5	-0,889800
24,083667	0,5	-0,880600
24,092000	0,5	-0,878600
24,100333	0,5	-0,969150
24,108667	0,5	-0,930500
24,117000	0,5	-0,896700
24,125333	0,5	-0,850300
24,133667	0,5	-0,825150
24,142000	0,5	-0,812350
24,150333	0,5	-0,808700
24,158667	0,5	-0,809400
24,167000	0,5	-0,793100
24,175333	0,5	-0,782400
24,183667	0,5	-0,764150
24,192000	0,5	-0,761800
24,200333	0,5	-0,748600
24,208667	0,5	-0,736100
24,217000	0,5	-0,723000
24,225333	0,5	-0,713650
24,233667	0,5	-0,705700
24,242000	0,5	-0,711500
24,250333	0,5	-0,766400
24,258667	0,5	-0,739600
24,267000	0,5	-0,706850
24,275333	0,5	-0,676800
24,283667	0,5	-0,662100
24,292000	0,5	-0,652500
24,300333	0,5	-0,652750
24,308667	0,5	-0,647500
24,317000	0,5	-0,642000
24,325333	0,5	-0,623450
24,333667	0,5	-0,619500
24,342000	0,5	-0,607700
24,350333	0,5	-0,599300
24,358667	0,5	-0,584950
24,367000	0,5	-0,576150
24,375333	0,5	-0,562850
24,383667	0,5	-0,559700
24,392000	0,5	-0,604750
24,400333	0,5	-0,596950
24,408667	0,5	-0,581600
24,417000	0,5	-0,553450
24,425333	0,5	-0,529350
24,433667	0,5	-0,525100
24,442000	0,5	-0,516300
24,450333	0,5	-0,518450
24,458667	0,5	-0,515750
24,467000	0,5	-0,503150
24,475333	0,5	-0,498050
24,483667	0,5	-0,493550
24,492000	0,5	-0,486800
24,500333	0,5	-0,477700
24,508667	0,5	-0,473050
24,517000	0,5	-0,461200
24,525333	0,5	-0,458100
24,533667	0,5	-0,451100
24,542000	0,5	-0,494000
24,550333	0,5	-0,469850
24,558667	0,5	-0,461600
24,567000	0,5	-0,435100
24,575333	0,5	-0,423200
24,583667	0,5	-0,422000
24,592000	0,5	-0,420350
24,600333	0,5	-0,421700
24,608667	0,5	-0,411950
24,617000	0,5	-0,406900
24,625333	0,5	-0,402500
24,633667	0,5	-0,400950
24,642000	0,5	-0,393350
24,650333	0,5	-0,393200
24,658667	0,5	-0,385150
24,667000	0,5	-0,381300
24,675333	0,5	-0,375250
24,683667	0,5	-0,387900
24,692000	0,5	-0,397300
24,700333	0,5	-0,385650
24,708667	0,5	-0,374650
24,717000	0,5	-0,358650
24,725333	0,5	-0,350500
24,733667	0,5	-0,347250
24,742000	0,5	-0,343550
24,750333	0,5	-0,345350
24,758667	0,5	-0,340100
24,767000	0,5	-0,337400
24,775333	0,5	-0,336450
24,783667	0,5	-0,330750
24,792000	0,5	-0,327550
24,800333	0,5	-0,324650
24,808667	0,5	-0,321200
24,817000	0,5	-0,317400
24,825333	0,5	-0,316000
24,833667	0,5	-0,334650
24,842000	0,5	-0,327100
24,850333	0,5	-0,316350
24,858667	0,5	-0,310650
24,867000	0,5	-0,299800
24,875333	0,5	-0,297950
24,883667	0,5	-0,294600
24,892000	0,5	-0,296700
24,900333	0,5	-0,295900
24,908667	0,5	-0,289600
24,917000	0,5	-0,286350
24,925333	0,5	-0,282250
24,933667	0,5	-0,276350
24,942000	0,5	-0,275750
24,950333	0,5	-0,270450
24,958667	0,5	-0,269200
24,967000	0,5	-0,268700
24,975333	0,5	-0,265550
24,983667	0,5	-0,281950
24,992000	0,5	-0,269250
25,000333	0,5	-0,265000
25,008667	0,5	-0,257550
25,017000	0,5	-0,254600
25,025333	0,5	-0,253900
25,033667	0,5	-0,253300
25,042000	0,5	-0,255600
25,050333	0,5	-0,252600
25,058667	0,5	-0,247800
25,067000	0,5	-0,250050
25,075333	0,5	-0,245500
25,083667	0,5	-0,243150
25,092000	0,5	-0,240700
25,100333	0,5	-0,240200
25,108667	0,5	-0,234400
25,117000	0,5	-0,232750
25,125333	0,5	-0,235550
25,133667	0,5	-0,235850
25,142000	0,5	-0,231000
25,150333	0,5	-0,228650
25,158667	0,5	-0,225200
25,167000	0,5	-0,224300
25,175333	0,5	-0,225800
25,183667	0,5	-0,224100
25,192000	0,5	-0,228300
25,200333	0,5	-0,223600
25,208667	0,5	-0,221350
25,217000	0,5	-0,219950
25,225333	0,5	-0,220700
25,233667	0,5	-0,217150
25,242000	0,5	-0,215550
25,250333	0,5	-0,213700
25,258667	0,5	-0,212800
25,267000	0,5	-0,211450
25,275333	0,5	-0,211600
25,283667	0,5	-0,211850
25,292000	0,5	-0,206750
25,300333	0,5	-0,205150
25,308667	0,5	-0,206200
25,317000	0,5	-0,205350
25,325333	0,5	-0,204350
25,333667	0,5	-0,200950
25,342000	0,5	-0,201400
25,350333	0,5	-0,200100
25,358667	0,5	-0,201550
25,367000	0,5	-0,199600
25,375333	0,5	-0,201050
25,383667	0,5	-0,200300
25,392000	0,5	-0,197300
25,400333	0,5	-0,196300
25,408667	0,5	-0,192800
25,417000	0,5	-0,194100
25,425333	0,5	-0,191650
25,433667	0,5	-0,189650
25,442000	0,5	-0,189450
25,450333	0,5	-0,187900
25,458667	0,5	-0,188350
25,467000	0,5	-0,185900
25,475333	0,5	-0,187050
25,483667	0,5	-0,184600
25,492000	0,5	-0,184550
25,500333	0,5	-0,183500
25,508667	0,5	-0,182500
25,517000	0,5	-0,182950
25,525333	0,5	-0,184500
25,533667	0,5	-0,183950
25,542000	0,5	-0,184300
25,550333	0,5	-0,183350
25,558667	0,5	-0,182100
25,567000	0,5	-0,183850
25,575333	0,5	-0,178800
25,583667	0,5	-0,180450
25,592000	0,5	-0,172550
25,600333	0,5	-0,176750
25,608667	0,5	-0,177750
25,617000	0,5	-0,175600
25,625333	0,5	-0,173900
25,633667	0,5	-0,171400
25,642000	0,5	-0,172500
25,650333	0,5	-0,172450
25,658667	0,5	-0,170350
25,667000	0,5	-0,169500
25,675333	0,5	-0,168150
25,683667	0,5	-0,169150
25,692000	0,5	-0,168550
25,700333	0,5	-0,165450
25,708667	0,5	-0,165000
25,717000	0,5	-0,159000
25,725333	0,5	-0,162350
25,733667	0,5	-0,158400
25,742000	0,5	-0,160250
25,750333	0,5	-0,160250
25,758667	0,5	-0,162600
25,767000	0,5	-0,159750
25,775333	0,5	-0,156150
25,783667	0,5	-0,153750
25,792000	0,5	-0,153800
25,800333	0,5	-0,153150
25,808667	0,5	-0,151050
25,817000	0,5	-0,148550
25,825333	0,5	-0,151200
25,833667	0,5	-0,151250
25,842000	0,5	-0,149700
25,850333	0,5	-0,149200
25,858667	0,5	-0,147250
25,867000	0,5	-0,140200
25,875333	0,5	-0,142450
25,883667	0,5	-0,139600
25,892000	0,5	-0,143850
25,900333	0,5	-0,144200
25,908667	0,5	-0,143300
25,917000	0,5	-0,143800
25,925333	0,5	-0,134300
25,933667	0,5	-0,134300
25,942000	0,5	-0,131600
25,950333	0,5	-0,130450
25,958667	0,5	-0,132850
25,967000	0,5	-0,129500
25,975333	0,5	-0,130250
25,983667	0,5	-0,128000
25,992000	0,5	-0,128450
26,000333	0,5	-0,127150
