File Path	chrom://chromeleon01/ikbm_chromeleon/2022/ICS-5000/ED1/Esteban/20220612_Cell_7_4_eg.seq/425.smp/ED_1.channel/ED_1.chm
Channel	ED_1

Injection Information:
Data Vault	ikbm_chromeleon
Injection	C-NE_24h-NT_
Injection Number	50
Position	GA3
Comment	
Processing Method	Stop sequence after Cell Death
Instrument Method	ICS5000_PA200_FullNative_Ox_26min_ED1
Type	Unknown
Status	Finished
Injection Date	13.06.2022
Injection Time	15:24:52
Injection Volume (µl)	5,0
Dilution Factor	1,0000
Weight	1,0000

Chromatogram Data Information:
Time Min. (min)	0,000333
Time Max. (min)	26,000333
Data Points	3121
Detector	EDet1
Generating Data System	Chromeleon 7.2.9.11323
Exporting Data System	Chromeleon 7.2.9.0
Operator	Instrument Controller
Signal Quantity	
Signal Unit	nC
Signal Min.	-1,998800
Signal Max.	101,961652
Channel	ED_1
Driver Name	DC-5000
Channel Type	Evaluation
Min. Step (s)	0,5
Max. Step (s)	0,5
Average Step (s)	0,5

Signal Parameter Information:
Signal Info	

Chromatogram Data:
Time (min)	Step (s)	Value (nC)
0,000333	n.a.	-0,018100
0,008667	0,5	-0,063750
0,017000	0,5	-0,051900
0,025333	0,5	-0,047800
0,033667	0,5	-0,044100
0,042000	0,5	-0,032400
0,050333	0,5	-0,036450
0,058667	0,5	-0,022300
0,067000	0,5	-0,016900
0,075333	0,5	-0,018450
0,083667	0,5	-0,015000
0,092000	0,5	-0,019850
0,100333	0,5	-0,039000
0,108667	0,5	-0,038050
0,117000	0,5	-0,030700
0,125333	0,5	-0,009850
0,133667	0,5	0,002550
0,142000	0,5	0,000700
0,150333	0,5	-0,005450
0,158667	0,5	-0,004550
0,167000	0,5	-0,002100
0,175333	0,5	-0,004700
0,183667	0,5	-0,008200
0,192000	0,5	-0,016550
0,200333	0,5	-0,011650
0,208667	0,5	-0,016600
0,217000	0,5	-0,023800
0,225333	0,5	-0,030450
0,233667	0,5	-0,016350
0,242000	0,5	-0,031350
0,250333	0,5	-0,034350
0,258667	0,5	-0,033600
0,267000	0,5	-0,014650
0,275333	0,5	-0,005400
0,283667	0,5	0,002250
0,292000	0,5	-0,000800
0,300333	0,5	0,027500
0,308667	0,5	0,032400
0,317000	0,5	0,009750
0,325333	0,5	-0,018150
0,333667	0,5	-0,028250
0,342000	0,5	-0,031500
0,350333	0,5	-0,034300
0,358667	0,5	-0,027500
0,367000	0,5	-0,044100
0,375333	0,5	-0,038200
0,383667	0,5	-0,034000
0,392000	0,5	-0,044150
0,400333	0,5	-0,049600
0,408667	0,5	-0,045000
0,417000	0,5	-0,033900
0,425333	0,5	-0,014400
0,433667	0,5	-0,019300
0,442000	0,5	-0,013950
0,450333	0,5	-0,017550
0,458667	0,5	-0,008550
0,467000	0,5	-0,023500
0,475333	0,5	-0,022350
0,483667	0,5	-0,029600
0,492000	0,5	-0,028050
0,500333	0,5	-0,028650
0,508667	0,5	-0,035650
0,517000	0,5	-0,044550
0,525333	0,5	-0,026500
0,533667	0,5	-0,035850
0,542000	0,5	-0,042950
0,550333	0,5	-0,037500
0,558667	0,5	-0,038950
0,567000	0,5	-0,010800
0,575333	0,5	-0,011600
0,583667	0,5	-0,011500
0,592000	0,5	-0,018700
0,600333	0,5	-0,014850
0,608667	0,5	-0,018800
0,617000	0,5	-0,010600
0,625333	0,5	-0,021250
0,633667	0,5	-0,019150
0,642000	0,5	-0,019900
0,650333	0,5	-0,012600
0,658667	0,5	-0,021450
0,667000	0,5	-0,026550
0,675333	0,5	-0,006800
0,683667	0,5	-0,024050
0,692000	0,5	-0,028800
0,700333	0,5	-0,028750
0,708667	0,5	-0,025500
0,717000	0,5	-0,004900
0,725333	0,5	-0,007200
0,733667	0,5	-0,011350
0,742000	0,5	0,001850
0,750333	0,5	-0,001900
0,758667	0,5	-0,002100
0,767000	0,5	-0,007450
0,775333	0,5	-0,004850
0,783667	0,5	-0,012600
0,792000	0,5	-0,006800
0,800333	0,5	-0,009350
0,808667	0,5	-0,011350
0,817000	0,5	-0,018900
0,825333	0,5	0,005600
0,833667	0,5	-0,016300
0,842000	0,5	-0,012250
0,850333	0,5	-0,011900
0,858667	0,5	-0,004450
0,867000	0,5	0,020100
0,875333	0,5	0,011600
0,883667	0,5	0,008900
0,892000	0,5	0,013650
0,900333	0,5	0,015450
0,908667	0,5	0,012250
0,917000	0,5	0,015800
0,925333	0,5	0,010350
0,933667	0,5	0,020500
0,942000	0,5	0,014900
0,950333	0,5	0,017200
0,958667	0,5	-0,001000
0,967000	0,5	0,003950
0,975333	0,5	0,010550
0,983667	0,5	0,002600
0,992000	0,5	0,001450
1,000333	0,5	0,010500
1,008667	0,5	0,016000
1,017000	0,5	0,035800
1,025333	0,5	0,029850
1,033667	0,5	0,035650
1,042000	0,5	0,032850
1,050333	0,5	0,034450
1,058667	0,5	0,034250
1,067000	0,5	0,032700
1,075333	0,5	0,029800
1,083667	0,5	0,024100
1,092000	0,5	0,033200
1,100333	0,5	0,026850
1,108667	0,5	0,025900
1,117000	0,5	0,033450
1,125333	0,5	0,035650
1,133667	0,5	0,019850
1,142000	0,5	0,023850
1,150333	0,5	0,024050
1,158667	0,5	0,045100
1,167000	0,5	0,050750
1,175333	0,5	0,057150
1,183667	0,5	0,049500
1,192000	0,5	0,055650
1,200333	0,5	0,047550
1,208667	0,5	0,047200
1,217000	0,5	0,046000
1,225333	0,5	0,045850
1,233667	0,5	0,044000
1,242000	0,5	0,039950
1,250333	0,5	0,036950
1,258667	0,5	0,037100
1,267000	0,5	0,047200
1,275333	0,5	0,033950
1,283667	0,5	0,026200
1,292000	0,5	0,026950
1,300333	0,5	0,037750
1,308667	0,5	0,051200
1,317000	0,5	0,064000
1,325333	0,5	0,048600
1,333667	0,5	0,049800
1,342000	0,5	0,042750
1,350333	0,5	0,045900
1,358667	0,5	0,038900
1,367000	0,5	0,036000
1,375333	0,5	0,029750
1,383667	0,5	0,027300
1,392000	0,5	0,023000
1,400333	0,5	0,011700
1,408667	0,5	0,017450
1,417000	0,5	0,022500
1,425333	0,5	0,007000
1,433667	0,5	0,000750
1,442000	0,5	-0,002700
1,450333	0,5	0,006800
1,458667	0,5	0,015900
1,467000	0,5	0,014300
1,475333	0,5	0,019850
1,483667	0,5	0,009800
1,492000	0,5	0,006500
1,500333	0,5	0,002950
1,508667	0,5	0,006350
1,517000	0,5	-0,009700
1,525333	0,5	-0,010050
1,533667	0,5	-0,019750
1,542000	0,5	-0,028350
1,550333	0,5	-0,038250
1,558667	0,5	-0,005100
1,567000	0,5	0,023400
1,575333	0,5	0,027800
1,583667	0,5	-0,202150
1,592000	0,5	-0,555650
1,600333	0,5	-0,448900
1,608667	0,5	0,523800
1,617000	0,5	2,497150
1,625333	0,5	5,317200
1,633667	0,5	8,319250
1,642000	0,5	10,363250
1,650333	0,5	10,820600
1,658667	0,5	10,059450
1,667000	0,5	8,951700
1,675333	0,5	8,297000
1,683667	0,5	8,727250
1,692000	0,5	11,102450
1,700333	0,5	17,412200
1,708667	0,5	28,528150
1,717000	0,5	39,351001
1,725333	0,5	42,675301
1,733667	0,5	37,641051
1,742000	0,5	29,328350
1,750333	0,5	22,885800
1,758667	0,5	20,815550
1,767000	0,5	22,919050
1,775333	0,5	26,383750
1,783667	0,5	28,258900
1,792000	0,5	27,743900
1,800333	0,5	25,649800
1,808667	0,5	23,014800
1,817000	0,5	20,548800
1,825333	0,5	18,533700
1,833667	0,5	16,874750
1,842000	0,5	15,494450
1,850333	0,5	14,440250
1,858667	0,5	13,885350
1,867000	0,5	13,789400
1,875333	0,5	14,002100
1,883667	0,5	14,157300
1,892000	0,5	14,204850
1,900333	0,5	14,503350
1,908667	0,5	15,570250
1,917000	0,5	18,042550
1,925333	0,5	22,720800
1,933667	0,5	30,508800
1,942000	0,5	42,431101
1,950333	0,5	59,198051
1,958667	0,5	79,425351
1,967000	0,5	96,601901
1,975333	0,5	101,961652
1,983667	0,5	94,030501
1,992000	0,5	79,663751
2,000333	0,5	66,054901
2,008667	0,5	56,156351
2,017000	0,5	50,184351
2,025333	0,5	48,115201
2,033667	0,5	51,253401
2,042000	0,5	60,835701
2,050333	0,5	71,834101
2,058667	0,5	75,106051
2,067000	0,5	69,983501
2,075333	0,5	62,144301
2,083667	0,5	53,680901
2,092000	0,5	44,428801
2,100333	0,5	35,872551
2,108667	0,5	29,396000
2,117000	0,5	25,030900
2,125333	0,5	22,151000
2,133667	0,5	20,134550
2,142000	0,5	18,626050
2,150333	0,5	17,454000
2,158667	0,5	16,512400
2,167000	0,5	15,744450
2,175333	0,5	15,098600
2,183667	0,5	14,509850
2,192000	0,5	13,991550
2,200333	0,5	13,555150
2,208667	0,5	13,204350
2,217000	0,5	12,921900
2,225333	0,5	12,718000
2,233667	0,5	12,579500
2,242000	0,5	12,520950
2,250333	0,5	12,536000
2,258667	0,5	12,882250
2,267000	0,5	14,287150
2,275333	0,5	15,419300
2,283667	0,5	14,550850
2,292000	0,5	13,095650
2,300333	0,5	12,369100
2,308667	0,5	12,094450
2,317000	0,5	11,945750
2,325333	0,5	11,838050
2,333667	0,5	11,826850
2,342000	0,5	11,952300
2,350333	0,5	12,272550
2,358667	0,5	12,875000
2,367000	0,5	13,972550
2,375333	0,5	15,896700
2,383667	0,5	19,088650
2,392000	0,5	23,597450
2,400333	0,5	28,684700
2,408667	0,5	32,976100
2,417000	0,5	35,334501
2,425333	0,5	35,372301
2,433667	0,5	33,582101
2,442000	0,5	30,996700
2,450333	0,5	28,631700
2,458667	0,5	27,193200
2,467000	0,5	27,182250
2,475333	0,5	29,153350
2,483667	0,5	34,127551
2,492000	0,5	43,494251
2,500333	0,5	57,828701
2,508667	0,5	74,442851
2,517000	0,5	87,154751
2,525333	0,5	90,614251
2,533667	0,5	84,342051
2,542000	0,5	72,182201
2,550333	0,5	58,935001
2,558667	0,5	47,996401
2,567000	0,5	40,912201
2,575333	0,5	37,957301
2,583667	0,5	38,160601
2,592000	0,5	38,171451
2,600333	0,5	39,378901
2,608667	0,5	36,909801
2,617000	0,5	32,594100
2,625333	0,5	27,693750
2,633667	0,5	23,263100
2,642000	0,5	19,766500
2,650333	0,5	17,229100
2,658667	0,5	15,456200
2,667000	0,5	14,199750
2,675333	0,5	13,279250
2,683667	0,5	12,581650
2,692000	0,5	12,030500
2,700333	0,5	11,592100
2,708667	0,5	11,252000
2,717000	0,5	11,049700
2,725333	0,5	11,018350
2,733667	0,5	11,228950
2,742000	0,5	11,690400
2,750333	0,5	12,185700
2,758667	0,5	12,476350
2,767000	0,5	12,358650
2,775333	0,5	11,818100
2,783667	0,5	11,050000
2,792000	0,5	10,245400
2,800333	0,5	9,568850
2,808667	0,5	9,059850
2,817000	0,5	8,735600
2,825333	0,5	8,607150
2,833667	0,5	8,776500
2,842000	0,5	9,432350
2,850333	0,5	10,841850
2,858667	0,5	13,123150
2,867000	0,5	15,874700
2,875333	0,5	18,145150
2,883667	0,5	18,993800
2,892000	0,5	18,159700
2,900333	0,5	16,028200
2,908667	0,5	13,476800
2,917000	0,5	11,183850
2,925333	0,5	9,468850
2,933667	0,5	8,298050
2,942000	0,5	7,494650
2,950333	0,5	6,910450
2,958667	0,5	6,484200
2,967000	0,5	6,142000
2,975333	0,5	5,866400
2,983667	0,5	5,635750
2,992000	0,5	5,451450
3,000333	0,5	5,293300
3,008667	0,5	5,158450
3,017000	0,5	5,030400
3,025333	0,5	4,899850
3,033667	0,5	4,770600
3,042000	0,5	4,642450
3,050333	0,5	4,496450
3,058667	0,5	4,375000
3,067000	0,5	4,268850
3,075333	0,5	4,184200
3,083667	0,5	4,109300
3,092000	0,5	4,011350
3,100333	0,5	3,926750
3,108667	0,5	3,833050
3,117000	0,5	3,735550
3,125333	0,5	3,644900
3,133667	0,5	3,562350
3,142000	0,5	3,477150
3,150333	0,5	3,405400
3,158667	0,5	3,337500
3,167000	0,5	3,262650
3,175333	0,5	3,189100
3,183667	0,5	3,123500
3,192000	0,5	3,047900
3,200333	0,5	2,968150
3,208667	0,5	2,903300
3,217000	0,5	2,841200
3,225333	0,5	2,799600
3,233667	0,5	2,763700
3,242000	0,5	2,713950
3,250333	0,5	2,673150
3,258667	0,5	2,628400
3,267000	0,5	2,582250
3,275333	0,5	2,542300
3,283667	0,5	2,495200
3,292000	0,5	2,454100
3,300333	0,5	2,406600
3,308667	0,5	2,358050
3,317000	0,5	2,301200
3,325333	0,5	2,252550
3,333667	0,5	2,203650
3,342000	0,5	2,144150
3,350333	0,5	2,091300
3,358667	0,5	2,053700
3,367000	0,5	2,030550
3,375333	0,5	2,027950
3,383667	0,5	2,020950
3,392000	0,5	2,015900
3,400333	0,5	2,018450
3,408667	0,5	2,028000
3,417000	0,5	2,032350
3,425333	0,5	2,035950
3,433667	0,5	2,037000
3,442000	0,5	2,022550
3,450333	0,5	2,008900
3,458667	0,5	1,986250
3,467000	0,5	1,951700
3,475333	0,5	1,925850
3,483667	0,5	1,887300
3,492000	0,5	1,835550
3,500333	0,5	1,792650
3,508667	0,5	1,752500
3,517000	0,5	1,734100
3,525333	0,5	1,709700
3,533667	0,5	1,676400
3,542000	0,5	1,650700
3,550333	0,5	1,630050
3,558667	0,5	1,604850
3,567000	0,5	1,580450
3,575333	0,5	1,562700
3,583667	0,5	1,551250
3,592000	0,5	1,560150
3,600333	0,5	1,583550
3,608667	0,5	1,646700
3,617000	0,5	1,742000
3,625333	0,5	1,918150
3,633667	0,5	2,131350
3,642000	0,5	2,404750
3,650333	0,5	2,715250
3,658667	0,5	3,039350
3,667000	0,5	3,334800
3,675333	0,5	3,557000
3,683667	0,5	3,692250
3,692000	0,5	3,789600
3,700333	0,5	3,861500
3,708667	0,5	3,976750
3,717000	0,5	4,133050
3,725333	0,5	4,326100
3,733667	0,5	4,497850
3,742000	0,5	4,586000
3,750333	0,5	4,532050
3,758667	0,5	4,307800
3,767000	0,5	3,945500
3,775333	0,5	3,523900
3,783667	0,5	3,063300
3,792000	0,5	2,659000
3,800333	0,5	2,350350
3,808667	0,5	2,157450
3,817000	0,5	2,088050
3,825333	0,5	2,086700
3,833667	0,5	2,157750
3,842000	0,5	2,256250
3,850333	0,5	2,351500
3,858667	0,5	2,403200
3,867000	0,5	2,405000
3,875333	0,5	2,340650
3,883667	0,5	2,236650
3,892000	0,5	2,102100
3,900333	0,5	1,957850
3,908667	0,5	1,813000
3,917000	0,5	1,684750
3,925333	0,5	1,584850
3,933667	0,5	1,480250
3,942000	0,5	1,405250
3,950333	0,5	1,345550
3,958667	0,5	1,304050
3,967000	0,5	1,272950
3,975333	0,5	1,230300
3,983667	0,5	1,181350
3,992000	0,5	1,139650
4,000333	0,5	1,093300
4,008667	0,5	1,052250
4,017000	0,5	1,008150
4,025333	0,5	0,969850
4,033667	0,5	0,939400
4,042000	0,5	0,915850
4,050333	0,5	0,897750
4,058667	0,5	0,882350
4,067000	0,5	0,862300
4,075333	0,5	0,853800
4,083667	0,5	0,826800
4,092000	0,5	0,812850
4,100333	0,5	0,800150
4,108667	0,5	0,797400
4,117000	0,5	0,791050
4,125333	0,5	0,770100
4,133667	0,5	0,760200
4,142000	0,5	0,747700
4,150333	0,5	0,736400
4,158667	0,5	0,730750
4,167000	0,5	0,726850
4,175333	0,5	0,723050
4,183667	0,5	0,721700
4,192000	0,5	0,726350
4,200333	0,5	0,737600
4,208667	0,5	0,744250
4,217000	0,5	0,773900
4,225333	0,5	0,792900
4,233667	0,5	0,812900
4,242000	0,5	0,842000
4,250333	0,5	0,870700
4,258667	0,5	0,897550
4,267000	0,5	0,916350
4,275333	0,5	0,921850
4,283667	0,5	0,919350
4,292000	0,5	0,907950
4,300333	0,5	0,891800
4,308667	0,5	0,868900
4,317000	0,5	0,850250
4,325333	0,5	0,833500
4,333667	0,5	0,821050
4,342000	0,5	0,811650
4,350333	0,5	0,793550
4,358667	0,5	0,799300
4,367000	0,5	0,807900
4,375333	0,5	0,808400
4,383667	0,5	0,814300
4,392000	0,5	0,839950
4,400333	0,5	0,866700
4,408667	0,5	0,902200
4,417000	0,5	0,921900
4,425333	0,5	0,939150
4,433667	0,5	0,946400
4,442000	0,5	0,949150
4,450333	0,5	0,943450
4,458667	0,5	0,936900
4,467000	0,5	0,920000
4,475333	0,5	0,897250
4,483667	0,5	0,888100
4,492000	0,5	0,875750
4,500333	0,5	0,858800
4,508667	0,5	0,854150
4,517000	0,5	0,849400
4,525333	0,5	0,838550
4,533667	0,5	0,827050
4,542000	0,5	0,822750
4,550333	0,5	0,825300
4,558667	0,5	0,827350
4,567000	0,5	0,824400
4,575333	0,5	0,816600
4,583667	0,5	0,818750
4,592000	0,5	0,818500
4,600333	0,5	0,816500
4,608667	0,5	0,807400
4,617000	0,5	0,805700
4,625333	0,5	0,800500
4,633667	0,5	0,794100
4,642000	0,5	0,793750
4,650333	0,5	0,781100
4,658667	0,5	0,784300
4,667000	0,5	0,772750
4,675333	0,5	0,758350
4,683667	0,5	0,747950
4,692000	0,5	0,748050
4,700333	0,5	0,752600
4,708667	0,5	0,746100
4,717000	0,5	0,731650
4,725333	0,5	0,731850
4,733667	0,5	0,724500
4,742000	0,5	0,723650
4,750333	0,5	0,722000
4,758667	0,5	0,723950
4,767000	0,5	0,724700
4,775333	0,5	0,729950
4,783667	0,5	0,742700
4,792000	0,5	0,756800
4,800333	0,5	0,763950
4,808667	0,5	0,802000
4,817000	0,5	0,820150
4,825333	0,5	0,858200
4,833667	0,5	0,908900
4,842000	0,5	0,983100
4,850333	0,5	1,090000
4,858667	0,5	1,202100
4,867000	0,5	1,341450
4,875333	0,5	1,507000
4,883667	0,5	1,685950
4,892000	0,5	1,851350
4,900333	0,5	1,993700
4,908667	0,5	2,075100
4,917000	0,5	2,098150
4,925333	0,5	2,052950
4,933667	0,5	1,948300
4,942000	0,5	1,796300
4,950333	0,5	1,627400
4,958667	0,5	1,463100
4,967000	0,5	1,286850
4,975333	0,5	1,143800
4,983667	0,5	1,031000
4,992000	0,5	0,940400
5,000333	0,5	0,882950
5,008667	0,5	0,824050
5,017000	0,5	0,781600
5,025333	0,5	0,753050
5,033667	0,5	0,729700
5,042000	0,5	0,709300
5,050333	0,5	0,698300
5,058667	0,5	0,689650
5,067000	0,5	0,677500
5,075333	0,5	0,675900
5,083667	0,5	0,672150
5,092000	0,5	0,673300
5,100333	0,5	0,680000
5,108667	0,5	0,697650
5,117000	0,5	0,710200
5,125333	0,5	0,748600
5,133667	0,5	0,793900
5,142000	0,5	0,855200
5,150333	0,5	0,916350
5,158667	0,5	0,961050
5,167000	0,5	0,992750
5,175333	0,5	1,014700
5,183667	0,5	1,011500
5,192000	0,5	0,978650
5,200333	0,5	0,934400
5,208667	0,5	0,883300
5,217000	0,5	0,823400
5,225333	0,5	0,764150
5,233667	0,5	0,708000
5,242000	0,5	0,659800
5,250333	0,5	0,631700
5,258667	0,5	0,602400
5,267000	0,5	0,579250
5,275333	0,5	0,563000
5,283667	0,5	0,557300
5,292000	0,5	0,553150
5,300333	0,5	0,549700
5,308667	0,5	0,539250
5,317000	0,5	0,534200
5,325333	0,5	0,521650
5,333667	0,5	0,520550
5,342000	0,5	0,507950
5,350333	0,5	0,497500
5,358667	0,5	0,490700
5,367000	0,5	0,483550
5,375333	0,5	0,486100
5,383667	0,5	0,473600
5,392000	0,5	0,471600
5,400333	0,5	0,476400
5,408667	0,5	0,467200
5,417000	0,5	0,458850
5,425333	0,5	0,457350
5,433667	0,5	0,459200
5,442000	0,5	0,466000
5,450333	0,5	0,460950
5,458667	0,5	0,459400
5,467000	0,5	0,451350
5,475333	0,5	0,449000
5,483667	0,5	0,443450
5,492000	0,5	0,439950
5,500333	0,5	0,436100
5,508667	0,5	0,435000
5,517000	0,5	0,430200
5,525333	0,5	0,429500
5,533667	0,5	0,420700
5,542000	0,5	0,428300
5,550333	0,5	0,423350
5,558667	0,5	0,418800
5,567000	0,5	0,415850
5,575333	0,5	0,423650
5,583667	0,5	0,427200
5,592000	0,5	0,431800
5,600333	0,5	0,433500
5,608667	0,5	0,434350
5,617000	0,5	0,437150
5,625333	0,5	0,430400
5,633667	0,5	0,423950
5,642000	0,5	0,415850
5,650333	0,5	0,408900
5,658667	0,5	0,396950
5,667000	0,5	0,395500
5,675333	0,5	0,388150
5,683667	0,5	0,380150
5,692000	0,5	0,381050
5,700333	0,5	0,375000
5,708667	0,5	0,369700
5,717000	0,5	0,365650
5,725333	0,5	0,365800
5,733667	0,5	0,375350
5,742000	0,5	0,380400
5,750333	0,5	0,373450
5,758667	0,5	0,377350
5,767000	0,5	0,381100
5,775333	0,5	0,384800
5,783667	0,5	0,382050
5,792000	0,5	0,394950
5,800333	0,5	0,394850
5,808667	0,5	0,404700
5,817000	0,5	0,411100
5,825333	0,5	0,420900
5,833667	0,5	0,413500
5,842000	0,5	0,422200
5,850333	0,5	0,411900
5,858667	0,5	0,404650
5,867000	0,5	0,402650
5,875333	0,5	0,408900
5,883667	0,5	0,428050
5,892000	0,5	0,445300
5,900333	0,5	0,466650
5,908667	0,5	0,498600
5,917000	0,5	0,530450
5,925333	0,5	0,553150
5,933667	0,5	0,568900
5,942000	0,5	0,568250
5,950333	0,5	0,558600
5,958667	0,5	0,540450
5,967000	0,5	0,512600
5,975333	0,5	0,484450
5,983667	0,5	0,457500
5,992000	0,5	0,436650
6,000333	0,5	0,411850
6,008667	0,5	0,394850
6,017000	0,5	0,386650
6,025333	0,5	0,382400
6,033667	0,5	0,393050
6,042000	0,5	0,391950
6,050333	0,5	0,399800
6,058667	0,5	0,407400
6,067000	0,5	0,415000
6,075333	0,5	0,421500
6,083667	0,5	0,427700
6,092000	0,5	0,440700
6,100333	0,5	0,453100
6,108667	0,5	0,474100
6,117000	0,5	0,497550
6,125333	0,5	0,532400
6,133667	0,5	0,579550
6,142000	0,5	0,645100
6,150333	0,5	0,715000
6,158667	0,5	0,816800
6,167000	0,5	0,930900
6,175333	0,5	1,071000
6,183667	0,5	1,210650
6,192000	0,5	1,340200
6,200333	0,5	1,448350
6,208667	0,5	1,532900
6,217000	0,5	1,579800
6,225333	0,5	1,592400
6,233667	0,5	1,574100
6,242000	0,5	1,523200
6,250333	0,5	1,451700
6,258667	0,5	1,373950
6,267000	0,5	1,294100
6,275333	0,5	1,206550
6,283667	0,5	1,129750
6,292000	0,5	1,046150
6,300333	0,5	0,967600
6,308667	0,5	0,901550
6,317000	0,5	0,842700
6,325333	0,5	0,789150
6,333667	0,5	0,744550
6,342000	0,5	0,699900
6,350333	0,5	0,665200
6,358667	0,5	0,634300
6,367000	0,5	0,608500
6,375333	0,5	0,581350
6,383667	0,5	0,566600
6,392000	0,5	0,549850
6,400333	0,5	0,544950
6,408667	0,5	0,545150
6,417000	0,5	0,547750
6,425333	0,5	0,567100
6,433667	0,5	0,594700
6,442000	0,5	0,622100
6,450333	0,5	0,658350
6,458667	0,5	0,701250
6,467000	0,5	0,742050
6,475333	0,5	0,774950
6,483667	0,5	0,785000
6,492000	0,5	0,781300
6,500333	0,5	0,759700
6,508667	0,5	0,730300
6,517000	0,5	0,690600
6,525333	0,5	0,653950
6,533667	0,5	0,620050
6,542000	0,5	0,590550
6,550333	0,5	0,565900
6,558667	0,5	0,544800
6,567000	0,5	0,523400
6,575333	0,5	0,514700
6,583667	0,5	0,502450
6,592000	0,5	0,490200
6,600333	0,5	0,486900
6,608667	0,5	0,484450
6,617000	0,5	0,489600
6,625333	0,5	0,491600
6,633667	0,5	0,495500
6,642000	0,5	0,494950
6,650333	0,5	0,503250
6,658667	0,5	0,499550
6,667000	0,5	0,498850
6,675333	0,5	0,490950
6,683667	0,5	0,483950
6,692000	0,5	0,475700
6,700333	0,5	0,470250
6,708667	0,5	0,465550
6,717000	0,5	0,455900
6,725333	0,5	0,462300
6,733667	0,5	0,451050
6,742000	0,5	0,452450
6,750333	0,5	0,446500
6,758667	0,5	0,454300
6,767000	0,5	0,459550
6,775333	0,5	0,459850
6,783667	0,5	0,463150
6,792000	0,5	0,466100
6,800333	0,5	0,474450
6,808667	0,5	0,478650
6,817000	0,5	0,489150
6,825333	0,5	0,498750
6,833667	0,5	0,509200
6,842000	0,5	0,523500
6,850333	0,5	0,528850
6,858667	0,5	0,538750
6,867000	0,5	0,537500
6,875333	0,5	0,542650
6,883667	0,5	0,532400
6,892000	0,5	0,523550
6,900333	0,5	0,515050
6,908667	0,5	0,514400
6,917000	0,5	0,513200
6,925333	0,5	0,509450
6,933667	0,5	0,504050
6,942000	0,5	0,502350
6,950333	0,5	0,501450
6,958667	0,5	0,502500
6,967000	0,5	0,501350
6,975333	0,5	0,501850
6,983667	0,5	0,502700
6,992000	0,5	0,507000
7,000333	0,5	0,513800
7,008667	0,5	0,517150
7,017000	0,5	0,527200
7,025333	0,5	0,544250
7,033667	0,5	0,551100
7,042000	0,5	0,564350
7,050333	0,5	0,575400
7,058667	0,5	0,585950
7,067000	0,5	0,600900
7,075333	0,5	0,599350
7,083667	0,5	0,598150
7,092000	0,5	0,589100
7,100333	0,5	0,578000
7,108667	0,5	0,563700
7,117000	0,5	0,558100
7,125333	0,5	0,541250
7,133667	0,5	0,533500
7,142000	0,5	0,530500
7,150333	0,5	0,526350
7,158667	0,5	0,522500
7,167000	0,5	0,531200
7,175333	0,5	0,532750
7,183667	0,5	0,535550
7,192000	0,5	0,541050
7,200333	0,5	0,545300
7,208667	0,5	0,553100
7,217000	0,5	0,562400
7,225333	0,5	0,563050
7,233667	0,5	0,560050
7,242000	0,5	0,559600
7,250333	0,5	0,554800
7,258667	0,5	0,552000
7,267000	0,5	0,549650
7,275333	0,5	0,548500
7,283667	0,5	0,546350
7,292000	0,5	0,550100
7,300333	0,5	0,552550
7,308667	0,5	0,561950
7,317000	0,5	0,578400
7,325333	0,5	0,597300
7,333667	0,5	0,614400
7,342000	0,5	0,645050
7,350333	0,5	0,677450
7,358667	0,5	0,716000
7,367000	0,5	0,750150
7,375333	0,5	0,783900
7,383667	0,5	0,821450
7,392000	0,5	0,863300
7,400333	0,5	0,909550
7,408667	0,5	0,954450
7,417000	0,5	0,989050
7,425333	0,5	0,990450
7,433667	0,5	0,964950
7,442000	0,5	0,901900
7,450333	0,5	0,824550
7,458667	0,5	0,747450
7,467000	0,5	0,686200
7,475333	0,5	0,629400
7,483667	0,5	0,598050
7,492000	0,5	0,578500
7,500333	0,5	0,568100
7,508667	0,5	0,568750
7,517000	0,5	0,565600
7,525333	0,5	0,566100
7,533667	0,5	0,566200
7,542000	0,5	0,568700
7,550333	0,5	0,574450
7,558667	0,5	0,581050
7,567000	0,5	0,591150
7,575333	0,5	0,601850
7,583667	0,5	0,616200
7,592000	0,5	0,631950
7,600333	0,5	0,637750
7,608667	0,5	0,646950
7,617000	0,5	0,646000
7,625333	0,5	0,645000
7,633667	0,5	0,644500
7,642000	0,5	0,650550
7,650333	0,5	0,657900
7,658667	0,5	0,671950
7,667000	0,5	0,677900
7,675333	0,5	0,685200
7,683667	0,5	0,691750
7,692000	0,5	0,695300
7,700333	0,5	0,692400
7,708667	0,5	0,688150
7,717000	0,5	0,679650
7,725333	0,5	0,666950
7,733667	0,5	0,652550
7,742000	0,5	0,641750
7,750333	0,5	0,627550
7,758667	0,5	0,618400
7,767000	0,5	0,613250
7,775333	0,5	0,606300
7,783667	0,5	0,601000
7,792000	0,5	0,598650
7,800333	0,5	0,604550
7,808667	0,5	0,610700
7,817000	0,5	0,616500
7,825333	0,5	0,625650
7,833667	0,5	0,640650
7,842000	0,5	0,653100
7,850333	0,5	0,669200
7,858667	0,5	0,681000
7,867000	0,5	0,689500
7,875333	0,5	0,688600
7,883667	0,5	0,692650
7,892000	0,5	0,697000
7,900333	0,5	0,701550
7,908667	0,5	0,711050
7,917000	0,5	0,721200
7,925333	0,5	0,729750
7,933667	0,5	0,735700
7,942000	0,5	0,747050
7,950333	0,5	0,761850
7,958667	0,5	0,776000
7,967000	0,5	0,786900
7,975333	0,5	0,798850
7,983667	0,5	0,808950
7,992000	0,5	0,821850
8,000333	0,5	0,827250
8,008667	0,5	0,834900
8,017000	0,5	0,832300
8,025333	0,5	0,832500
8,033667	0,5	0,827350
8,042000	0,5	0,824000
8,050333	0,5	0,821800
8,058667	0,5	0,829650
8,067000	0,5	0,848450
8,075333	0,5	0,884700
8,083667	0,5	0,938750
8,092000	0,5	1,012150
8,100333	0,5	1,086600
8,108667	0,5	1,138000
8,117000	0,5	1,155300
8,125333	0,5	1,129350
8,133667	0,5	1,083500
8,142000	0,5	1,029150
8,150333	0,5	0,981850
8,158667	0,5	0,944750
8,167000	0,5	0,920900
8,175333	0,5	0,909950
8,183667	0,5	0,900200
8,192000	0,5	0,893350
8,200333	0,5	0,891800
8,208667	0,5	0,887600
8,217000	0,5	0,883350
8,225333	0,5	0,880900
8,233667	0,5	0,888100
8,242000	0,5	0,889250
8,250333	0,5	0,897550
8,258667	0,5	0,909900
8,267000	0,5	0,919700
8,275333	0,5	0,933850
8,283667	0,5	0,950500
8,292000	0,5	0,963650
8,300333	0,5	0,973150
8,308667	0,5	0,981350
8,317000	0,5	0,982700
8,325333	0,5	0,976600
8,333667	0,5	0,968800
8,342000	0,5	0,962800
8,350333	0,5	0,965250
8,358667	0,5	0,967450
8,367000	0,5	0,977050
8,375333	0,5	0,991100
8,383667	0,5	1,010550
8,392000	0,5	1,026350
8,400333	0,5	1,037900
8,408667	0,5	1,048200
8,417000	0,5	1,051450
8,425333	0,5	1,053650
8,433667	0,5	1,060750
8,442000	0,5	1,068300
8,450333	0,5	1,086900
8,458667	0,5	1,116700
8,467000	0,5	1,155600
8,475333	0,5	1,199000
8,483667	0,5	1,245000
8,492000	0,5	1,293700
8,500333	0,5	1,341500
8,508667	0,5	1,373600
8,517000	0,5	1,385250
8,525333	0,5	1,379500
8,533667	0,5	1,352800
8,542000	0,5	1,323150
8,550333	0,5	1,283300
8,558667	0,5	1,254800
8,567000	0,5	1,245550
8,575333	0,5	1,267350
8,583667	0,5	1,320050
8,592000	0,5	1,385900
8,600333	0,5	1,440500
8,608667	0,5	1,463050
8,617000	0,5	1,436800
8,625333	0,5	1,381300
8,633667	0,5	1,306100
8,642000	0,5	1,242450
8,650333	0,5	1,195000
8,658667	0,5	1,164100
8,667000	0,5	1,144950
8,675333	0,5	1,137650
8,683667	0,5	1,141150
8,692000	0,5	1,153600
8,700333	0,5	1,166100
8,708667	0,5	1,194850
8,717000	0,5	1,226100
8,725333	0,5	1,272200
8,733667	0,5	1,329300
8,742000	0,5	1,393350
8,750333	0,5	1,461450
8,758667	0,5	1,532250
8,767000	0,5	1,604900
8,775333	0,5	1,689600
8,783667	0,5	1,782050
8,792000	0,5	1,892600
8,800333	0,5	2,001550
8,808667	0,5	2,095550
8,817000	0,5	2,157100
8,825333	0,5	2,181850
8,833667	0,5	2,152900
8,842000	0,5	2,074100
8,850333	0,5	1,957500
8,858667	0,5	1,817200
8,867000	0,5	1,673650
8,875333	0,5	1,545350
8,883667	0,5	1,433400
8,892000	0,5	1,346250
8,900333	0,5	1,289750
8,908667	0,5	1,248050
8,917000	0,5	1,218900
8,925333	0,5	1,206600
8,933667	0,5	1,199250
8,942000	0,5	1,196450
8,950333	0,5	1,204850
8,958667	0,5	1,227800
8,967000	0,5	1,274100
8,975333	0,5	1,339000
8,983667	0,5	1,422450
8,992000	0,5	1,502800
9,000333	0,5	1,559150
9,008667	0,5	1,572200
9,017000	0,5	1,547250
9,025333	0,5	1,497350
9,033667	0,5	1,445850
9,042000	0,5	1,411500
9,050333	0,5	1,393400
9,058667	0,5	1,391850
9,067000	0,5	1,398750
9,075333	0,5	1,402700
9,083667	0,5	1,394650
9,092000	0,5	1,388400
9,100333	0,5	1,372200
9,108667	0,5	1,357900
9,117000	0,5	1,342350
9,125333	0,5	1,333150
9,133667	0,5	1,323350
9,142000	0,5	1,315250
9,150333	0,5	1,305800
9,158667	0,5	1,293900
9,167000	0,5	1,282750
9,175333	0,5	1,281700
9,183667	0,5	1,282350
9,192000	0,5	1,294650
9,200333	0,5	1,303500
9,208667	0,5	1,311050
9,217000	0,5	1,317750
9,225333	0,5	1,316350
9,233667	0,5	1,309250
9,242000	0,5	1,298050
9,250333	0,5	1,284750
9,258667	0,5	1,274350
9,267000	0,5	1,268100
9,275333	0,5	1,275100
9,283667	0,5	1,295450
9,292000	0,5	1,334800
9,300333	0,5	1,389300
9,308667	0,5	1,461150
9,317000	0,5	1,541150
9,325333	0,5	1,616350
9,333667	0,5	1,677750
9,342000	0,5	1,699700
9,350333	0,5	1,679250
9,358667	0,5	1,633050
9,367000	0,5	1,572750
9,375333	0,5	1,520200
9,383667	0,5	1,495850
9,392000	0,5	1,501050
9,400333	0,5	1,534050
9,408667	0,5	1,590150
9,417000	0,5	1,649500
9,425333	0,5	1,699800
9,433667	0,5	1,726900
9,442000	0,5	1,725400
9,450333	0,5	1,694950
9,458667	0,5	1,644950
9,467000	0,5	1,579950
9,475333	0,5	1,519900
9,483667	0,5	1,464050
9,492000	0,5	1,428550
9,500333	0,5	1,413350
9,508667	0,5	1,423650
9,517000	0,5	1,456450
9,525333	0,5	1,491850
9,533667	0,5	1,529750
9,542000	0,5	1,547750
9,550333	0,5	1,542750
9,558667	0,5	1,523600
9,567000	0,5	1,495550
9,575333	0,5	1,459800
9,583667	0,5	1,426500
9,592000	0,5	1,400100
9,600333	0,5	1,376250
9,608667	0,5	1,373850
9,617000	0,5	1,387800
9,625333	0,5	1,422850
9,633667	0,5	1,477200
9,642000	0,5	1,545100
9,650333	0,5	1,622050
9,658667	0,5	1,683700
9,667000	0,5	1,729750
9,675333	0,5	1,748300
9,683667	0,5	1,740700
9,692000	0,5	1,704400
9,700333	0,5	1,639150
9,708667	0,5	1,562350
9,717000	0,5	1,483050
9,725333	0,5	1,413050
9,733667	0,5	1,363650
9,742000	0,5	1,325500
9,750333	0,5	1,307400
9,758667	0,5	1,298950
9,767000	0,5	1,289950
9,775333	0,5	1,272350
9,783667	0,5	1,252450
9,792000	0,5	1,230050
9,800333	0,5	1,202550
9,808667	0,5	1,188100
9,817000	0,5	1,174400
9,825333	0,5	1,165700
9,833667	0,5	1,165800
9,842000	0,5	1,163800
9,850333	0,5	1,165650
9,858667	0,5	1,171950
9,867000	0,5	1,179100
9,875333	0,5	1,204450
9,883667	0,5	1,239250
9,892000	0,5	1,291300
9,900333	0,5	1,356200
9,908667	0,5	1,431300
9,917000	0,5	1,495950
9,925333	0,5	1,538150
9,933667	0,5	1,544700
9,942000	0,5	1,516850
9,950333	0,5	1,462700
9,958667	0,5	1,401950
9,967000	0,5	1,339600
9,975333	0,5	1,285000
9,983667	0,5	1,240800
9,992000	0,5	1,201950
10,000333	0,5	1,166750
10,008667	0,5	1,139600
10,017000	0,5	1,124150
10,025333	0,5	1,116750
10,033667	0,5	1,117950
10,042000	0,5	1,120450
10,050333	0,5	1,132250
10,058667	0,5	1,148650
10,067000	0,5	1,162400
10,075333	0,5	1,168250
10,083667	0,5	1,173300
10,092000	0,5	1,170350
10,100333	0,5	1,161400
10,108667	0,5	1,153350
10,117000	0,5	1,146750
10,125333	0,5	1,146500
10,133667	0,5	1,144650
10,142000	0,5	1,142000
10,150333	0,5	1,136600
10,158667	0,5	1,133900
10,167000	0,5	1,131150
10,175333	0,5	1,136850
10,183667	0,5	1,140050
10,192000	0,5	1,146100
10,200333	0,5	1,160100
10,208667	0,5	1,193450
10,217000	0,5	1,237300
10,225333	0,5	1,302100
10,233667	0,5	1,376200
10,242000	0,5	1,446450
10,250333	0,5	1,508250
10,258667	0,5	1,546050
10,267000	0,5	1,569450
10,275333	0,5	1,589450
10,283667	0,5	1,628250
10,292000	0,5	1,706000
10,300333	0,5	1,848650
10,308667	0,5	2,066950
10,317000	0,5	2,363400
10,325333	0,5	2,705600
10,333667	0,5	3,053900
10,342000	0,5	3,349500
10,350333	0,5	3,542600
10,358667	0,5	3,622900
10,367000	0,5	3,595250
10,375333	0,5	3,476700
10,383667	0,5	3,300550
10,392000	0,5	3,094200
10,400333	0,5	2,874650
10,408667	0,5	2,647050
10,417000	0,5	2,427550
10,425333	0,5	2,213150
10,433667	0,5	2,012550
10,442000	0,5	1,823850
10,450333	0,5	1,660550
10,458667	0,5	1,525250
10,467000	0,5	1,420850
10,475333	0,5	1,349600
10,483667	0,5	1,309000
10,492000	0,5	1,297700
10,500333	0,5	1,318700
10,508667	0,5	1,354800
10,517000	0,5	1,390600
10,525333	0,5	1,419100
10,533667	0,5	1,417000
10,542000	0,5	1,391450
10,550333	0,5	1,343950
10,558667	0,5	1,277100
10,567000	0,5	1,210200
10,575333	0,5	1,151600
10,583667	0,5	1,097050
10,592000	0,5	1,054350
10,600333	0,5	1,021300
10,608667	0,5	1,003450
10,617000	0,5	0,991600
10,625333	0,5	0,987850
10,633667	0,5	0,993250
10,642000	0,5	1,001350
10,650333	0,5	1,012300
10,658667	0,5	1,030400
10,667000	0,5	1,043950
10,675333	0,5	1,049600
10,683667	0,5	1,050600
10,692000	0,5	1,042550
10,700333	0,5	1,043800
10,708667	0,5	1,050350
10,717000	0,5	1,089500
10,725333	0,5	1,139200
10,733667	0,5	1,192600
10,742000	0,5	1,235800
10,750333	0,5	1,256200
10,758667	0,5	1,258200
10,767000	0,5	1,229150
10,775333	0,5	1,182800
10,783667	0,5	1,139750
10,792000	0,5	1,094200
10,800333	0,5	1,067050
10,808667	0,5	1,049500
10,817000	0,5	1,040100
10,825333	0,5	1,033600
10,833667	0,5	1,038050
10,842000	0,5	1,048100
10,850333	0,5	1,061200
10,858667	0,5	1,079800
10,867000	0,5	1,114500
10,875333	0,5	1,159700
10,883667	0,5	1,210100
10,892000	0,5	1,266750
10,900333	0,5	1,316450
10,908667	0,5	1,355750
10,917000	0,5	1,359000
10,925333	0,5	1,338500
10,933667	0,5	1,294900
10,942000	0,5	1,254900
10,950333	0,5	1,225850
10,958667	0,5	1,231650
10,967000	0,5	1,260800
10,975333	0,5	1,324950
10,983667	0,5	1,408250
10,992000	0,5	1,504200
11,000333	0,5	1,605700
11,008667	0,5	1,698650
11,017000	0,5	1,772650
11,025333	0,5	1,801000
11,033667	0,5	1,815450
11,042000	0,5	1,870550
11,050333	0,5	2,090400
11,058667	0,5	2,502200
11,067000	0,5	2,936350
11,075333	0,5	3,133500
11,083667	0,5	3,013650
11,092000	0,5	2,753550
11,100333	0,5	2,377100
11,108667	0,5	1,856050
11,117000	0,5	1,342150
11,125333	0,5	0,990250
11,133667	0,5	0,762500
11,142000	0,5	0,579500
11,150333	0,5	0,430450
11,158667	0,5	0,298900
11,167000	0,5	0,188250
11,175333	0,5	0,085650
11,183667	0,5	0,001050
11,192000	0,5	-0,065250
11,200333	0,5	-0,117600
11,208667	0,5	-0,149500
11,217000	0,5	-0,177600
11,225333	0,5	-0,202050
11,233667	0,5	-0,216300
11,242000	0,5	-0,233550
11,250333	0,5	-0,251300
11,258667	0,5	-0,272750
11,267000	0,5	-0,291650
11,275333	0,5	-0,317850
11,283667	0,5	-0,339550
11,292000	0,5	-0,361450
11,300333	0,5	-0,388100
11,308667	0,5	-0,401650
11,317000	0,5	-0,416850
11,325333	0,5	-0,432150
11,333667	0,5	-0,451800
11,342000	0,5	-0,459050
11,350333	0,5	-0,472900
11,358667	0,5	-0,482350
11,367000	0,5	-0,491500
11,375333	0,5	-0,498350
11,383667	0,5	-0,511600
11,392000	0,5	-0,521100
11,400333	0,5	-0,529500
11,408667	0,5	-0,538100
11,417000	0,5	-0,548900
11,425333	0,5	-0,557550
11,433667	0,5	-0,559350
11,442000	0,5	-0,568450
11,450333	0,5	-0,571450
11,458667	0,5	-0,576700
11,467000	0,5	-0,574900
11,475333	0,5	-0,579600
11,483667	0,5	-0,585600
11,492000	0,5	-0,586000
11,500333	0,5	-0,581500
11,508667	0,5	-0,582000
11,517000	0,5	-0,577750
11,525333	0,5	-0,579350
11,533667	0,5	-0,576250
11,542000	0,5	-0,575100
11,550333	0,5	-0,574200
11,558667	0,5	-0,571350
11,567000	0,5	-0,571150
11,575333	0,5	-0,569950
11,583667	0,5	-0,568900
11,592000	0,5	-0,573000
11,600333	0,5	-0,568750
11,608667	0,5	-0,566200
11,617000	0,5	-0,568900
11,625333	0,5	-0,570800
11,633667	0,5	-0,579800
11,642000	0,5	-0,578150
11,650333	0,5	-0,577550
11,658667	0,5	-0,578750
11,667000	0,5	-0,583650
11,675333	0,5	-0,584600
11,683667	0,5	-0,587250
11,692000	0,5	-0,590300
11,700333	0,5	-0,588700
11,708667	0,5	-0,594600
11,717000	0,5	-0,593750
11,725333	0,5	-0,595450
11,733667	0,5	-0,592950
11,742000	0,5	-0,601050
11,750333	0,5	-0,594500
11,758667	0,5	-0,593350
11,767000	0,5	-0,595400
11,775333	0,5	-0,597550
11,783667	0,5	-0,603650
11,792000	0,5	-0,596100
11,800333	0,5	-0,594650
11,808667	0,5	-0,594200
11,817000	0,5	-0,589000
11,825333	0,5	-0,585800
11,833667	0,5	-0,581800
11,842000	0,5	-0,575950
11,850333	0,5	-0,572850
11,858667	0,5	-0,565050
11,867000	0,5	-0,560500
11,875333	0,5	-0,554650
11,883667	0,5	-0,547400
11,892000	0,5	-0,546750
11,900333	0,5	-0,535850
11,908667	0,5	-0,531700
11,917000	0,5	-0,525500
11,925333	0,5	-0,523600
11,933667	0,5	-0,525100
11,942000	0,5	-0,517850
11,950333	0,5	-0,516100
11,958667	0,5	-0,509200
11,967000	0,5	-0,511650
11,975333	0,5	-0,510500
11,983667	0,5	-0,513750
11,992000	0,5	-0,509000
12,000333	0,5	-0,511350
12,008667	0,5	-0,511400
12,017000	0,5	-0,510600
12,025333	0,5	-0,511500
12,033667	0,5	-0,515700
12,042000	0,5	-0,516050
12,050333	0,5	-0,513050
12,058667	0,5	-0,520450
12,067000	0,5	-0,520300
12,075333	0,5	-0,522050
12,083667	0,5	-0,525200
12,092000	0,5	-0,521350
12,100333	0,5	-0,515200
12,108667	0,5	-0,513900
12,117000	0,5	-0,511750
12,125333	0,5	-0,506400
12,133667	0,5	-0,505800
12,142000	0,5	-0,503850
12,150333	0,5	-0,502950
12,158667	0,5	-0,501100
12,167000	0,5	-0,494750
12,175333	0,5	-0,495750
12,183667	0,5	-0,499250
12,192000	0,5	-0,494400
12,200333	0,5	-0,491400
12,208667	0,5	-0,494250
12,217000	0,5	-0,492700
12,225333	0,5	-0,494800
12,233667	0,5	-0,488750
12,242000	0,5	-0,487750
12,250333	0,5	-0,485400
12,258667	0,5	-0,482750
12,267000	0,5	-0,476900
12,275333	0,5	-0,474450
12,283667	0,5	-0,473250
12,292000	0,5	-0,472650
12,300333	0,5	-0,474350
12,308667	0,5	-0,473150
12,317000	0,5	-0,473550
12,325333	0,5	-0,477200
12,333667	0,5	-0,480900
12,342000	0,5	-0,473200
12,350333	0,5	-0,473100
12,358667	0,5	-0,472750
12,367000	0,5	-0,475150
12,375333	0,5	-0,470100
12,383667	0,5	-0,462700
12,392000	0,5	-0,449900
12,400333	0,5	-0,443300
12,408667	0,5	-0,435100
12,417000	0,5	-0,427950
12,425333	0,5	-0,422600
12,433667	0,5	-0,419650
12,442000	0,5	-0,419550
12,450333	0,5	-0,418950
12,458667	0,5	-0,420300
12,467000	0,5	-0,417850
12,475333	0,5	-0,426850
12,483667	0,5	-0,424650
12,492000	0,5	-0,421250
12,500333	0,5	-0,426300
12,508667	0,5	-0,428400
12,517000	0,5	-0,433800
12,525333	0,5	-0,433100
12,533667	0,5	-0,429850
12,542000	0,5	-0,432650
12,550333	0,5	-0,428950
12,558667	0,5	-0,432100
12,567000	0,5	-0,433250
12,575333	0,5	-0,432000
12,583667	0,5	-0,429000
12,592000	0,5	-0,426300
12,600333	0,5	-0,422350
12,608667	0,5	-0,412950
12,617000	0,5	-0,410200
12,625333	0,5	-0,414700
12,633667	0,5	-0,403400
12,642000	0,5	-0,402250
12,650333	0,5	-0,401200
12,658667	0,5	-0,397800
12,667000	0,5	-0,405850
12,675333	0,5	-0,400850
12,683667	0,5	-0,395550
12,692000	0,5	-0,386800
12,700333	0,5	-0,382550
12,708667	0,5	-0,374750
12,717000	0,5	-0,370700
12,725333	0,5	-0,363250
12,733667	0,5	-0,361450
12,742000	0,5	-0,360050
12,750333	0,5	-0,357850
12,758667	0,5	-0,355500
12,767000	0,5	-0,360200
12,775333	0,5	-0,361950
12,783667	0,5	-0,357900
12,792000	0,5	-0,356950
12,800333	0,5	-0,357050
12,808667	0,5	-0,358350
12,817000	0,5	-0,362100
12,825333	0,5	-0,350650
12,833667	0,5	-0,344750
12,842000	0,5	-0,340100
12,850333	0,5	-0,332900
12,858667	0,5	-0,328450
12,867000	0,5	-0,322300
12,875333	0,5	-0,316350
12,883667	0,5	-0,307700
12,892000	0,5	-0,303700
12,900333	0,5	-0,297350
12,908667	0,5	-0,291500
12,917000	0,5	-0,283500
12,925333	0,5	-0,283750
12,933667	0,5	-0,274500
12,942000	0,5	-0,273700
12,950333	0,5	-0,273000
12,958667	0,5	-0,276300
12,967000	0,5	-0,278550
12,975333	0,5	-0,265400
12,983667	0,5	-0,261450
12,992000	0,5	-0,257950
13,000333	0,5	-0,251300
13,008667	0,5	-0,244700
13,017000	0,5	-0,235750
13,025333	0,5	-0,226350
13,033667	0,5	-0,220500
13,042000	0,5	-0,210750
13,050333	0,5	-0,200100
13,058667	0,5	-0,186050
13,067000	0,5	-0,183800
13,075333	0,5	-0,169700
13,083667	0,5	-0,164300
13,092000	0,5	-0,161500
13,100333	0,5	-0,163650
13,108667	0,5	-0,161550
13,117000	0,5	-0,160550
13,125333	0,5	-0,158050
13,133667	0,5	-0,149600
13,142000	0,5	-0,142600
13,150333	0,5	-0,139250
13,158667	0,5	-0,141750
13,167000	0,5	-0,131350
13,175333	0,5	-0,126800
13,183667	0,5	-0,124300
13,192000	0,5	-0,119100
13,200333	0,5	-0,109000
13,208667	0,5	-0,107350
13,217000	0,5	-0,103250
13,225333	0,5	-0,093450
13,233667	0,5	-0,087350
13,242000	0,5	-0,084600
13,250333	0,5	-0,080800
13,258667	0,5	-0,077950
13,267000	0,5	-0,074450
13,275333	0,5	-0,067800
13,283667	0,5	-0,063850
13,292000	0,5	-0,058550
13,300333	0,5	-0,053000
13,308667	0,5	-0,051150
13,317000	0,5	-0,045300
13,325333	0,5	-0,040650
13,333667	0,5	-0,035050
13,342000	0,5	-0,020850
13,350333	0,5	-0,014550
13,358667	0,5	-0,017200
13,367000	0,5	-0,008100
13,375333	0,5	-0,001200
13,383667	0,5	0,001550
13,392000	0,5	0,000450
13,400333	0,5	-0,001100
13,408667	0,5	0,004750
13,417000	0,5	0,018350
13,425333	0,5	0,040650
13,433667	0,5	0,060050
13,442000	0,5	0,086650
13,450333	0,5	0,106050
13,458667	0,5	0,117500
13,467000	0,5	0,119650
13,475333	0,5	0,110050
13,483667	0,5	0,098200
13,492000	0,5	0,083550
13,500333	0,5	0,076700
13,508667	0,5	0,055950
13,517000	0,5	0,056100
13,525333	0,5	0,059950
13,533667	0,5	0,059550
13,542000	0,5	0,058250
13,550333	0,5	0,052250
13,558667	0,5	0,050850
13,567000	0,5	0,061950
13,575333	0,5	0,065550
13,583667	0,5	0,079350
13,592000	0,5	0,102500
13,600333	0,5	0,138150
13,608667	0,5	0,167400
13,617000	0,5	0,194600
13,625333	0,5	0,203900
13,633667	0,5	0,198400
13,642000	0,5	0,184000
13,650333	0,5	0,163100
13,658667	0,5	0,129600
13,667000	0,5	0,119500
13,675333	0,5	0,103700
13,683667	0,5	0,094450
13,692000	0,5	0,089450
13,700333	0,5	0,083600
13,708667	0,5	0,110400
13,717000	0,5	0,133250
13,725333	0,5	0,172200
13,733667	0,5	0,208000
13,742000	0,5	0,254250
13,750333	0,5	0,282600
13,758667	0,5	0,304850
13,767000	0,5	0,297950
13,775333	0,5	0,274600
13,783667	0,5	0,236950
13,792000	0,5	0,198300
13,800333	0,5	0,160600
13,808667	0,5	0,121950
13,817000	0,5	0,105150
13,825333	0,5	0,095150
13,833667	0,5	0,103150
13,842000	0,5	0,119650
13,850333	0,5	0,146200
13,858667	0,5	0,186350
13,867000	0,5	0,226800
13,875333	0,5	0,241550
13,883667	0,5	0,253050
13,892000	0,5	0,241750
13,900333	0,5	0,219500
13,908667	0,5	0,182050
13,917000	0,5	0,148250
13,925333	0,5	0,121500
13,933667	0,5	0,104100
13,942000	0,5	0,098300
13,950333	0,5	0,105750
13,958667	0,5	0,126550
13,967000	0,5	0,160450
13,975333	0,5	0,179400
13,983667	0,5	0,188650
13,992000	0,5	0,186500
14,000333	0,5	0,180350
14,008667	0,5	0,165300
14,017000	0,5	0,145850
14,025333	0,5	0,122100
14,033667	0,5	0,101600
14,042000	0,5	0,085700
14,050333	0,5	0,072800
14,058667	0,5	0,074500
14,067000	0,5	0,080350
14,075333	0,5	0,078900
14,083667	0,5	0,086550
14,092000	0,5	0,081700
14,100333	0,5	0,066000
14,108667	0,5	0,057700
14,117000	0,5	0,040900
14,125333	0,5	0,021450
14,133667	0,5	0,001700
14,142000	0,5	-0,011350
14,150333	0,5	-0,018700
14,158667	0,5	-0,003100
14,167000	0,5	0,009350
14,175333	0,5	0,019400
14,183667	0,5	0,033550
14,192000	0,5	0,038000
14,200333	0,5	0,039600
14,208667	0,5	0,031750
14,217000	0,5	0,020200
14,225333	0,5	0,007700
14,233667	0,5	-0,003700
14,242000	0,5	-0,028750
14,250333	0,5	-0,043350
14,258667	0,5	-0,046400
14,267000	0,5	-0,050750
14,275333	0,5	-0,058650
14,283667	0,5	-0,070050
14,292000	0,5	-0,079250
14,300333	0,5	-0,082800
14,308667	0,5	-0,089500
14,317000	0,5	-0,089050
14,325333	0,5	-0,096850
14,333667	0,5	-0,098500
14,342000	0,5	-0,105700
14,350333	0,5	-0,110050
14,358667	0,5	-0,109400
14,367000	0,5	-0,112450
14,375333	0,5	-0,108250
14,383667	0,5	-0,111650
14,392000	0,5	-0,129800
14,400333	0,5	-0,135150
14,408667	0,5	-0,135050
14,417000	0,5	-0,146900
14,425333	0,5	-0,154150
14,433667	0,5	-0,172350
14,442000	0,5	-0,175350
14,450333	0,5	-0,178700
14,458667	0,5	-0,169250
14,467000	0,5	-0,173300
14,475333	0,5	-0,170150
14,483667	0,5	-0,169650
14,492000	0,5	-0,167200
14,500333	0,5	-0,168600
14,508667	0,5	-0,174500
14,517000	0,5	-0,180400
14,525333	0,5	-0,180500
14,533667	0,5	-0,181850
14,542000	0,5	-0,199200
14,550333	0,5	-0,188550
14,558667	0,5	-0,189750
14,567000	0,5	-0,191550
14,575333	0,5	-0,194400
14,583667	0,5	-0,201100
14,592000	0,5	-0,198500
14,600333	0,5	-0,195800
14,608667	0,5	-0,201600
14,617000	0,5	-0,202850
14,625333	0,5	-0,210550
14,633667	0,5	-0,211600
14,642000	0,5	-0,214850
14,650333	0,5	-0,212350
14,658667	0,5	-0,211200
14,667000	0,5	-0,207800
14,675333	0,5	-0,197450
14,683667	0,5	-0,202300
14,692000	0,5	-0,213550
14,700333	0,5	-0,205500
14,708667	0,5	-0,212250
14,717000	0,5	-0,217850
14,725333	0,5	-0,228100
14,733667	0,5	-0,240250
14,742000	0,5	-0,236350
14,750333	0,5	-0,235950
14,758667	0,5	-0,234650
14,767000	0,5	-0,243550
14,775333	0,5	-0,241250
14,783667	0,5	-0,248600
14,792000	0,5	-0,245700
14,800333	0,5	-0,248600
14,808667	0,5	-0,247150
14,817000	0,5	-0,241650
14,825333	0,5	-0,231600
14,833667	0,5	-0,242500
14,842000	0,5	-0,244100
14,850333	0,5	-0,242500
14,858667	0,5	-0,242350
14,867000	0,5	-0,246300
14,875333	0,5	-0,254950
14,883667	0,5	-0,254450
14,892000	0,5	-0,259050
14,900333	0,5	-0,258650
14,908667	0,5	-0,263350
14,917000	0,5	-0,267200
14,925333	0,5	-0,272150
14,933667	0,5	-0,270800
14,942000	0,5	-0,280350
14,950333	0,5	-0,278600
14,958667	0,5	-0,277550
14,967000	0,5	-0,272950
14,975333	0,5	-0,271950
14,983667	0,5	-0,277250
14,992000	0,5	-0,272800
15,000333	0,5	-0,274600
15,008667	0,5	-0,279600
15,017000	0,5	-0,284400
15,025333	0,5	-0,292750
15,033667	0,5	-0,292650
15,042000	0,5	-0,291750
15,050333	0,5	-0,285550
15,058667	0,5	-0,282650
15,067000	0,5	-0,276700
15,075333	0,5	-0,274900
15,083667	0,5	-0,271950
15,092000	0,5	-0,267350
15,100333	0,5	-0,271950
15,108667	0,5	-0,270600
15,117000	0,5	-0,270900
15,125333	0,5	-0,275500
15,133667	0,5	-0,284800
15,142000	0,5	-0,277500
15,150333	0,5	-0,279650
15,158667	0,5	-0,284450
15,167000	0,5	-0,300100
15,175333	0,5	-0,310050
15,183667	0,5	-0,309100
15,192000	0,5	-0,306450
15,200333	0,5	-0,309250
15,208667	0,5	-0,310350
15,217000	0,5	-0,309450
15,225333	0,5	-0,307650
15,233667	0,5	-0,307350
15,242000	0,5	-0,308650
15,250333	0,5	-0,299950
15,258667	0,5	-0,293900
15,267000	0,5	-0,283700
15,275333	0,5	-0,288350
15,283667	0,5	-0,284950
15,292000	0,5	-0,278200
15,300333	0,5	-0,279400
15,308667	0,5	-0,278000
15,317000	0,5	-0,281450
15,325333	0,5	-0,281650
15,333667	0,5	-0,278650
15,342000	0,5	-0,273200
15,350333	0,5	-0,267100
15,358667	0,5	-0,266700
15,367000	0,5	-0,257650
15,375333	0,5	-0,251400
15,383667	0,5	-0,244200
15,392000	0,5	-0,236550
15,400333	0,5	-0,238000
15,408667	0,5	-0,225750
15,417000	0,5	-0,222050
15,425333	0,5	-0,236400
15,433667	0,5	-0,235100
15,442000	0,5	-0,231550
15,450333	0,5	-0,238500
15,458667	0,5	-0,238700
15,467000	0,5	-0,249400
15,475333	0,5	-0,239050
15,483667	0,5	-0,235850
15,492000	0,5	-0,230750
15,500333	0,5	-0,242750
15,508667	0,5	-0,248500
15,517000	0,5	-0,266000
15,525333	0,5	-0,282050
15,533667	0,5	-0,300100
15,542000	0,5	-0,310250
15,550333	0,5	-0,320950
15,558667	0,5	-0,322850
15,567000	0,5	-0,330200
15,575333	0,5	-0,342900
15,583667	0,5	-0,337600
15,592000	0,5	-0,345850
15,600333	0,5	-0,348600
15,608667	0,5	-0,364500
15,617000	0,5	-0,369900
15,625333	0,5	-0,368400
15,633667	0,5	-0,365250
15,642000	0,5	-0,366850
15,650333	0,5	-0,360950
15,658667	0,5	-0,368100
15,667000	0,5	-0,362850
15,675333	0,5	-0,362650
15,683667	0,5	-0,361400
15,692000	0,5	-0,362750
15,700333	0,5	-0,364500
15,708667	0,5	-0,351900
15,717000	0,5	-0,356200
15,725333	0,5	-0,354150
15,733667	0,5	-0,347100
15,742000	0,5	-0,338100
15,750333	0,5	-0,335150
15,758667	0,5	-0,338550
15,767000	0,5	-0,337050
15,775333	0,5	-0,325800
15,783667	0,5	-0,325300
15,792000	0,5	-0,325300
15,800333	0,5	-0,329100
15,808667	0,5	-0,329350
15,817000	0,5	-0,341550
15,825333	0,5	-0,348800
15,833667	0,5	-0,358200
15,842000	0,5	-0,368300
15,850333	0,5	-0,377700
15,858667	0,5	-0,380250
15,867000	0,5	-0,400000
15,875333	0,5	-0,396200
15,883667	0,5	-0,403100
15,892000	0,5	-0,408600
15,900333	0,5	-0,417550
15,908667	0,5	-0,434250
15,917000	0,5	-0,433350
15,925333	0,5	-0,439700
15,933667	0,5	-0,436400
15,942000	0,5	-0,442250
15,950333	0,5	-0,440000
15,958667	0,5	-0,443800
15,967000	0,5	-0,444100
15,975333	0,5	-0,449900
15,983667	0,5	-0,450550
15,992000	0,5	-0,448400
16,000333	0,5	-0,444500
16,008667	0,5	-0,446750
16,017000	0,5	-0,445950
16,025333	0,5	-0,432000
16,033667	0,5	-0,427150
16,042000	0,5	-0,417550
16,050333	0,5	-0,419100
16,058667	0,5	-0,424300
16,067000	0,5	-0,420950
16,075333	0,5	-0,419100
16,083667	0,5	-0,423750
16,092000	0,5	-0,429950
16,100333	0,5	-0,434800
16,108667	0,5	-0,428050
16,117000	0,5	-0,427300
16,125333	0,5	-0,425400
16,133667	0,5	-0,420450
16,142000	0,5	-0,410400
16,150333	0,5	-0,410050
16,158667	0,5	-0,404750
16,167000	0,5	-0,410550
16,175333	0,5	-0,403750
16,183667	0,5	-0,413100
16,192000	0,5	-0,418450
16,200333	0,5	-0,432400
16,208667	0,5	-0,435600
16,217000	0,5	-0,434450
16,225333	0,5	-0,428300
16,233667	0,5	-0,422400
16,242000	0,5	-0,413600
16,250333	0,5	-0,404350
16,258667	0,5	-0,400350
16,267000	0,5	-0,394450
16,275333	0,5	-0,392550
16,283667	0,5	-0,382200
16,292000	0,5	-0,374100
16,300333	0,5	-0,363600
16,308667	0,5	-0,368750
16,317000	0,5	-0,354700
16,325333	0,5	-0,340400
16,333667	0,5	-0,332300
16,342000	0,5	-0,328200
16,350333	0,5	-0,328050
16,358667	0,5	-0,315700
16,367000	0,5	-0,311200
16,375333	0,5	-0,311300
16,383667	0,5	-0,307750
16,392000	0,5	-0,311200
16,400333	0,5	-0,309650
16,408667	0,5	-0,313850
16,417000	0,5	-0,319500
16,425333	0,5	-0,318500
16,433667	0,5	-0,310250
16,442000	0,5	-0,294100
16,450333	0,5	-0,293750
16,458667	0,5	-0,288350
16,467000	0,5	-0,275000
16,475333	0,5	-0,257500
16,483667	0,5	-0,247650
16,492000	0,5	-0,237250
16,500333	0,5	-0,229350
16,508667	0,5	-0,195700
16,517000	0,5	-0,169700
16,525333	0,5	-0,130700
16,533667	0,5	-0,089600
16,542000	0,5	-0,025300
16,550333	0,5	0,045700
16,558667	0,5	0,126900
16,567000	0,5	0,205800
16,575333	0,5	0,268500
16,583667	0,5	0,323200
16,592000	0,5	0,360750
16,600333	0,5	0,356500
16,608667	0,5	0,356650
16,617000	0,5	0,334850
16,625333	0,5	0,319050
16,633667	0,5	0,295650
16,642000	0,5	0,264500
16,650333	0,5	0,245100
16,658667	0,5	0,229700
16,667000	0,5	0,208500
16,675333	0,5	0,176750
16,683667	0,5	0,152250
16,692000	0,5	0,112950
16,700333	0,5	0,082000
16,708667	0,5	0,049100
16,717000	0,5	0,008500
16,725333	0,5	-0,015500
16,733667	0,5	-0,044200
16,742000	0,5	-0,061250
16,750333	0,5	-0,093400
16,758667	0,5	-0,096600
16,767000	0,5	-0,108050
16,775333	0,5	-0,125100
16,783667	0,5	-0,140350
16,792000	0,5	-0,161850
16,800333	0,5	-0,165600
16,808667	0,5	-0,170850
16,817000	0,5	-0,183150
16,825333	0,5	-0,188100
16,833667	0,5	-0,196600
16,842000	0,5	-0,197050
16,850333	0,5	-0,202150
16,858667	0,5	-0,206500
16,867000	0,5	-0,210450
16,875333	0,5	-0,215900
16,883667	0,5	-0,212200
16,892000	0,5	-0,212450
16,900333	0,5	-0,223000
16,908667	0,5	-0,218350
16,917000	0,5	-0,224950
16,925333	0,5	-0,224700
16,933667	0,5	-0,238700
16,942000	0,5	-0,254850
16,950333	0,5	-0,252600
16,958667	0,5	-0,256700
16,967000	0,5	-0,258500
16,975333	0,5	-0,265700
16,983667	0,5	-0,265050
16,992000	0,5	-0,272450
17,000333	0,5	-0,272750
17,008667	0,5	-0,282550
17,017000	0,5	-0,288200
17,025333	0,5	-0,280200
17,033667	0,5	-0,280200
17,042000	0,5	-0,290550
17,050333	0,5	-0,295050
17,058667	0,5	-0,292750
17,067000	0,5	-0,295600
17,075333	0,5	-0,304000
17,083667	0,5	-0,316150
17,092000	0,5	-0,323900
17,100333	0,5	-0,327650
17,108667	0,5	-0,330750
17,117000	0,5	-0,335750
17,125333	0,5	-0,334700
17,133667	0,5	-0,340150
17,142000	0,5	-0,342300
17,150333	0,5	-0,350000
17,158667	0,5	-0,352900
17,167000	0,5	-0,360600
17,175333	0,5	-0,361000
17,183667	0,5	-0,366200
17,192000	0,5	-0,373550
17,200333	0,5	-0,372500
17,208667	0,5	-0,374700
17,217000	0,5	-0,385650
17,225333	0,5	-0,391400
17,233667	0,5	-0,399850
17,242000	0,5	-0,406350
17,250333	0,5	-0,401650
17,258667	0,5	-0,403000
17,267000	0,5	-0,402600
17,275333	0,5	-0,404800
17,283667	0,5	-0,404150
17,292000	0,5	-0,406300
17,300333	0,5	-0,405600
17,308667	0,5	-0,418450
17,317000	0,5	-0,418900
17,325333	0,5	-0,416200
17,333667	0,5	-0,424650
17,342000	0,5	-0,431100
17,350333	0,5	-0,425350
17,358667	0,5	-0,430250
17,367000	0,5	-0,435450
17,375333	0,5	-0,452250
17,383667	0,5	-0,461150
17,392000	0,5	-0,462100
17,400333	0,5	-0,468050
17,408667	0,5	-0,471550
17,417000	0,5	-0,476850
17,425333	0,5	-0,478600
17,433667	0,5	-0,488600
17,442000	0,5	-0,488500
17,450333	0,5	-0,497200
17,458667	0,5	-0,499750
17,467000	0,5	-0,506150
17,475333	0,5	-0,503000
17,483667	0,5	-0,523950
17,492000	0,5	-0,516200
17,500333	0,5	-0,520800
17,508667	0,5	-0,522450
17,517000	0,5	-0,534900
17,525333	0,5	-0,547650
17,533667	0,5	-0,552100
17,542000	0,5	-0,556000
17,550333	0,5	-0,554250
17,558667	0,5	-0,557600
17,567000	0,5	-0,558500
17,575333	0,5	-0,557600
17,583667	0,5	-0,562550
17,592000	0,5	-0,565200
17,600333	0,5	-0,571150
17,608667	0,5	-0,574700
17,617000	0,5	-0,564700
17,625333	0,5	-0,567100
17,633667	0,5	-0,582500
17,642000	0,5	-0,573000
17,650333	0,5	-0,575650
17,658667	0,5	-0,584100
17,667000	0,5	-0,591500
17,675333	0,5	-0,608250
17,683667	0,5	-0,601500
17,692000	0,5	-0,603100
17,700333	0,5	-0,604500
17,708667	0,5	-0,607350
17,717000	0,5	-0,605350
17,725333	0,5	-0,609750
17,733667	0,5	-0,611650
17,742000	0,5	-0,611050
17,750333	0,5	-0,617400
17,758667	0,5	-0,619100
17,767000	0,5	-0,619700
17,775333	0,5	-0,621350
17,783667	0,5	-0,631700
17,792000	0,5	-0,626650
17,800333	0,5	-0,634300
17,808667	0,5	-0,637150
17,817000	0,5	-0,651850
17,825333	0,5	-0,657800
17,833667	0,5	-0,661150
17,842000	0,5	-0,657500
17,850333	0,5	-0,662700
17,858667	0,5	-0,662750
17,867000	0,5	-0,667700
17,875333	0,5	-0,662150
17,883667	0,5	-0,665050
17,892000	0,5	-0,669250
17,900333	0,5	-0,674050
17,908667	0,5	-0,674000
17,917000	0,5	-0,665600
17,925333	0,5	-0,669600
17,933667	0,5	-0,667650
17,942000	0,5	-0,662200
17,950333	0,5	-0,660900
17,958667	0,5	-0,666400
17,967000	0,5	-0,670400
17,975333	0,5	-0,677150
17,983667	0,5	-0,663050
17,992000	0,5	-0,662400
18,000333	0,5	-0,656400
18,008667	0,5	-0,648900
18,017000	0,5	-0,635550
18,025333	0,5	-0,627400
18,033667	0,5	-0,613000
18,042000	0,5	-0,599550
18,050333	0,5	-0,581700
18,058667	0,5	-0,557950
18,067000	0,5	-0,538500
18,075333	0,5	-0,528800
18,083667	0,5	-0,502150
18,092000	0,5	-0,484950
18,100333	0,5	-0,473500
18,108667	0,5	-0,458900
18,117000	0,5	-0,453550
18,125333	0,5	-0,431000
18,133667	0,5	-0,418550
18,142000	0,5	-0,395700
18,150333	0,5	-0,391100
18,158667	0,5	-0,374100
18,167000	0,5	-0,365950
18,175333	0,5	-0,355900
18,183667	0,5	-0,354400
18,192000	0,5	-0,352350
18,200333	0,5	-0,350250
18,208667	0,5	-0,339600
18,217000	0,5	-0,347150
18,225333	0,5	-0,352200
18,233667	0,5	-0,346150
18,242000	0,5	-0,354500
18,250333	0,5	-0,359150
18,258667	0,5	-0,379550
18,267000	0,5	-0,388500
18,275333	0,5	-0,393450
18,283667	0,5	-0,390000
18,292000	0,5	-0,399450
18,300333	0,5	-0,391250
18,308667	0,5	-0,384850
18,317000	0,5	-0,368150
18,325333	0,5	-0,346700
18,333667	0,5	-0,319850
18,342000	0,5	-0,291150
18,350333	0,5	-0,246250
18,358667	0,5	-0,205650
18,367000	0,5	-0,179200
18,375333	0,5	-0,144400
18,383667	0,5	-0,123200
18,392000	0,5	-0,129050
18,400333	0,5	-0,136850
18,408667	0,5	-0,176000
18,417000	0,5	-0,208100
18,425333	0,5	-0,242350
18,433667	0,5	-0,289950
18,442000	0,5	-0,330300
18,450333	0,5	-0,378000
18,458667	0,5	-0,415050
18,467000	0,5	-0,448800
18,475333	0,5	-0,480350
18,483667	0,5	-0,514900
18,492000	0,5	-0,538050
18,500333	0,5	-0,551500
18,508667	0,5	-0,566400
18,517000	0,5	-0,598800
18,525333	0,5	-0,598700
18,533667	0,5	-0,608800
18,542000	0,5	-0,620950
18,550333	0,5	-0,635500
18,558667	0,5	-0,654500
18,567000	0,5	-0,652150
18,575333	0,5	-0,655900
18,583667	0,5	-0,664750
18,592000	0,5	-0,672050
18,600333	0,5	-0,674050
18,608667	0,5	-0,672600
18,617000	0,5	-0,673800
18,625333	0,5	-0,680250
18,633667	0,5	-0,682600
18,642000	0,5	-0,688650
18,650333	0,5	-0,679300
18,658667	0,5	-0,689700
18,667000	0,5	-0,690950
18,675333	0,5	-0,691800
18,683667	0,5	-0,693850
18,692000	0,5	-0,705850
18,700333	0,5	-0,718300
18,708667	0,5	-0,717850
18,717000	0,5	-0,719650
18,725333	0,5	-0,720800
18,733667	0,5	-0,720650
18,742000	0,5	-0,724100
18,750333	0,5	-0,723800
18,758667	0,5	-0,728300
18,767000	0,5	-0,728450
18,775333	0,5	-0,727900
18,783667	0,5	-0,739900
18,792000	0,5	-0,734950
18,800333	0,5	-0,730450
18,808667	0,5	-0,738850
18,817000	0,5	-0,737000
18,825333	0,5	-0,732000
18,833667	0,5	-0,737550
18,842000	0,5	-0,745150
18,850333	0,5	-0,759450
18,858667	0,5	-0,757850
18,867000	0,5	-0,754500
18,875333	0,5	-0,754200
18,883667	0,5	-0,760650
18,892000	0,5	-0,758050
18,900333	0,5	-0,754700
18,908667	0,5	-0,752650
18,917000	0,5	-0,750100
18,925333	0,5	-0,753950
18,933667	0,5	-0,747550
18,942000	0,5	-0,752750
18,950333	0,5	-0,745450
18,958667	0,5	-0,755550
18,967000	0,5	-0,739200
18,975333	0,5	-0,744550
18,983667	0,5	-0,747950
18,992000	0,5	-0,762550
19,000333	0,5	-0,775100
19,008667	0,5	-0,779900
19,017000	0,5	-0,780400
19,025333	0,5	-0,783100
19,033667	0,5	-0,784600
19,042000	0,5	-0,787450
19,050333	0,5	-0,792100
19,058667	0,5	-0,795450
19,067000	0,5	-0,804200
19,075333	0,5	-0,811000
19,083667	0,5	-0,817650
19,092000	0,5	-0,813350
19,100333	0,5	-0,824400
19,108667	0,5	-0,829200
19,117000	0,5	-0,828700
19,125333	0,5	-0,833950
19,133667	0,5	-0,840600
19,142000	0,5	-0,855350
19,150333	0,5	-0,868150
19,158667	0,5	-0,859550
19,167000	0,5	-0,858250
19,175333	0,5	-0,854900
19,183667	0,5	-0,862600
19,192000	0,5	-0,857900
19,200333	0,5	-0,862500
19,208667	0,5	-0,862050
19,217000	0,5	-0,870600
19,225333	0,5	-0,881750
19,233667	0,5	-0,877950
19,242000	0,5	-0,878200
19,250333	0,5	-0,896750
19,258667	0,5	-0,892850
19,267000	0,5	-0,895200
19,275333	0,5	-0,908150
19,283667	0,5	-0,914250
19,292000	0,5	-0,927650
19,300333	0,5	-0,928850
19,308667	0,5	-0,934900
19,317000	0,5	-0,928300
19,325333	0,5	-0,932700
19,333667	0,5	-0,928500
19,342000	0,5	-0,930650
19,350333	0,5	-0,926600
19,358667	0,5	-0,928250
19,367000	0,5	-0,930950
19,375333	0,5	-0,934600
19,383667	0,5	-0,929900
19,392000	0,5	-0,936850
19,400333	0,5	-0,936850
19,408667	0,5	-0,931350
19,417000	0,5	-0,929600
19,425333	0,5	-0,936600
19,433667	0,5	-0,949000
19,442000	0,5	-0,956200
19,450333	0,5	-0,951700
19,458667	0,5	-0,943100
19,467000	0,5	-0,949250
19,475333	0,5	-0,950400
19,483667	0,5	-0,954300
19,492000	0,5	-0,949400
19,500333	0,5	-0,950250
19,508667	0,5	-0,953500
19,517000	0,5	-0,958250
19,525333	0,5	-0,960750
19,533667	0,5	-0,952650
19,542000	0,5	-0,970800
19,550333	0,5	-0,967650
19,558667	0,5	-0,964500
19,567000	0,5	-0,963850
19,575333	0,5	-0,979200
19,583667	0,5	-0,993450
19,592000	0,5	-0,992400
19,600333	0,5	-0,983300
19,608667	0,5	-0,994300
19,617000	0,5	-0,988800
19,625333	0,5	-0,997900
19,633667	0,5	-0,995900
19,642000	0,5	-0,996450
19,650333	0,5	-0,990250
19,658667	0,5	-0,993000
19,667000	0,5	-0,995550
19,675333	0,5	-0,985850
19,683667	0,5	-0,983550
19,692000	0,5	-0,996800
19,700333	0,5	-0,981400
19,708667	0,5	-0,980150
19,717000	0,5	-0,981850
19,725333	0,5	-0,988400
19,733667	0,5	-1,005150
19,742000	0,5	-0,991700
19,750333	0,5	-0,991300
19,758667	0,5	-0,982600
19,767000	0,5	-0,984500
19,775333	0,5	-0,979550
19,783667	0,5	-0,980350
19,792000	0,5	-0,974750
19,800333	0,5	-0,981300
19,808667	0,5	-0,981900
19,817000	0,5	-0,982600
19,825333	0,5	-0,976800
19,833667	0,5	-0,983250
19,842000	0,5	-0,989500
19,850333	0,5	-0,981400
19,858667	0,5	-0,983850
19,867000	0,5	-0,991950
19,875333	0,5	-1,007150
19,883667	0,5	-1,010050
19,892000	0,5	-1,007900
19,900333	0,5	-1,001650
19,908667	0,5	-1,007550
19,917000	0,5	-1,001250
19,925333	0,5	-1,005900
19,933667	0,5	-1,003800
19,942000	0,5	-1,005400
19,950333	0,5	-1,000650
19,958667	0,5	-1,006600
19,967000	0,5	-1,002900
19,975333	0,5	-0,999550
19,983667	0,5	-1,000150
19,992000	0,5	-0,995450
20,000333	0,5	-0,988800
20,008667	0,5	-0,991100
20,017000	0,5	-0,992850
20,025333	0,5	-1,001700
20,033667	0,5	-1,010900
20,042000	0,5	-0,999950
20,050333	0,5	-1,002250
20,058667	0,5	-0,997850
20,067000	0,5	-1,007800
20,075333	0,5	-0,997550
20,083667	0,5	-0,997100
20,092000	0,5	-0,989650
20,100333	0,5	-0,996100
20,108667	0,5	-0,989300
20,117000	0,5	-0,983000
20,125333	0,5	-0,979600
20,133667	0,5	-0,981350
20,142000	0,5	-0,971700
20,150333	0,5	-0,974350
20,158667	0,5	-0,974600
20,167000	0,5	-0,993750
20,175333	0,5	-0,999750
20,183667	0,5	-0,994000
20,192000	0,5	-0,997350
20,200333	0,5	-0,993400
20,208667	0,5	-0,995800
20,217000	0,5	-0,992150
20,225333	0,5	-0,993550
20,233667	0,5	-0,992850
20,242000	0,5	-0,994550
20,250333	0,5	-0,992550
20,258667	0,5	-0,988800
20,267000	0,5	-0,984450
20,275333	0,5	-0,995950
20,283667	0,5	-0,986500
20,292000	0,5	-0,972450
20,300333	0,5	-0,969900
20,308667	0,5	-0,974550
20,317000	0,5	-0,985250
20,325333	0,5	-0,985900
20,333667	0,5	-0,980200
20,342000	0,5	-0,970150
20,350333	0,5	-0,961500
20,358667	0,5	-0,953350
20,367000	0,5	-0,946100
20,375333	0,5	-0,934200
20,383667	0,5	-0,937800
20,392000	0,5	-0,939250
20,400333	0,5	-0,951850
20,408667	0,5	-0,950100
20,417000	0,5	-0,960150
20,425333	0,5	-0,978600
20,433667	0,5	-0,978250
20,442000	0,5	-0,976350
20,450333	0,5	-0,986550
20,458667	0,5	-0,998700
20,467000	0,5	-1,009650
20,475333	0,5	-1,005350
20,483667	0,5	-1,000300
20,492000	0,5	-0,999200
20,500333	0,5	-0,998700
20,508667	0,5	-0,998600
20,517000	0,5	-0,999200
20,525333	0,5	-0,998300
20,533667	0,5	-0,994550
20,542000	0,5	-0,998250
20,550333	0,5	-0,991550
20,558667	0,5	-0,980300
20,567000	0,5	-0,985950
20,575333	0,5	-0,987300
20,583667	0,5	-0,975600
20,592000	0,5	-0,977500
20,600333	0,5	-0,980450
20,608667	0,5	-0,993000
20,617000	0,5	-0,991500
20,625333	0,5	-0,983650
20,633667	0,5	-0,976450
20,642000	0,5	-0,972700
20,650333	0,5	-0,960550
20,658667	0,5	-0,958800
20,667000	0,5	-0,953000
20,675333	0,5	-0,943700
20,683667	0,5	-0,950600
20,692000	0,5	-0,954100
20,700333	0,5	-0,948700
20,708667	0,5	-0,936400
20,717000	0,5	-0,951550
20,725333	0,5	-0,945250
20,733667	0,5	-0,947450
20,742000	0,5	-0,946250
20,750333	0,5	-0,958900
20,758667	0,5	-0,978900
20,767000	0,5	-0,972900
20,775333	0,5	-0,963450
20,783667	0,5	-0,964650
20,792000	0,5	-0,959000
20,800333	0,5	-0,958700
20,808667	0,5	-0,954250
20,817000	0,5	-0,948800
20,825333	0,5	-0,950000
20,833667	0,5	-0,949250
20,842000	0,5	-0,947100
20,850333	0,5	-0,927150
20,858667	0,5	-0,917750
20,867000	0,5	-0,922550
20,875333	0,5	-0,917900
20,883667	0,5	-0,914450
20,892000	0,5	-0,919150
20,900333	0,5	-0,923400
20,908667	0,5	-0,935600
20,917000	0,5	-0,922750
20,925333	0,5	-0,921500
20,933667	0,5	-0,915250
20,942000	0,5	-0,910950
20,950333	0,5	-0,914750
20,958667	0,5	-0,907000
20,967000	0,5	-0,898200
20,975333	0,5	-0,888450
20,983667	0,5	-0,888100
20,992000	0,5	-0,868050
21,000333	0,5	-0,850000
21,008667	0,5	-0,847100
21,017000	0,5	-0,849300
21,025333	0,5	-0,841900
21,033667	0,5	-0,842450
21,042000	0,5	-0,846100
21,050333	0,5	-0,864600
21,058667	0,5	-0,866850
21,067000	0,5	-0,858650
21,075333	0,5	-0,850700
21,083667	0,5	-0,845200
21,092000	0,5	-0,837200
21,100333	0,5	-0,829750
21,108667	0,5	-0,824850
21,117000	0,5	-0,818500
21,125333	0,5	-0,814200
21,133667	0,5	-0,808450
21,142000	0,5	-0,786250
21,150333	0,5	-0,775150
21,158667	0,5	-0,778400
21,167000	0,5	-0,770850
21,175333	0,5	-0,768750
21,183667	0,5	-0,767650
21,192000	0,5	-0,784700
21,200333	0,5	-0,780450
21,208667	0,5	-0,768800
21,217000	0,5	-0,755850
21,225333	0,5	-0,740050
21,233667	0,5	-0,728000
21,242000	0,5	-0,716750
21,250333	0,5	-0,714200
21,258667	0,5	-0,708050
21,267000	0,5	-0,705650
21,275333	0,5	-0,700250
21,283667	0,5	-0,693700
21,292000	0,5	-0,667800
21,300333	0,5	-0,660700
21,308667	0,5	-0,653900
21,317000	0,5	-0,646600
21,325333	0,5	-0,639150
21,333667	0,5	-0,637050
21,342000	0,5	-0,629900
21,350333	0,5	-0,623600
21,358667	0,5	-0,595750
21,367000	0,5	-0,572850
21,375333	0,5	-0,532050
21,383667	0,5	-0,490450
21,392000	0,5	-0,430350
21,400333	0,5	-0,369100
21,408667	0,5	-0,322250
21,417000	0,5	-0,305400
21,425333	0,5	-0,316450
21,433667	0,5	-0,322850
21,442000	0,5	-0,344650
21,450333	0,5	-0,381500
21,458667	0,5	-0,399000
21,467000	0,5	-0,398650
21,475333	0,5	-0,406200
21,483667	0,5	-0,409500
21,492000	0,5	-0,416800
21,500333	0,5	-0,407300
21,508667	0,5	-0,407050
21,517000	0,5	-0,408350
21,525333	0,5	-0,405150
21,533667	0,5	-0,400750
21,542000	0,5	-0,406000
21,550333	0,5	-0,405400
21,558667	0,5	-0,399850
21,567000	0,5	-0,393250
21,575333	0,5	-0,374500
21,583667	0,5	-0,346100
21,592000	0,5	-0,329750
21,600333	0,5	-0,322200
21,608667	0,5	-0,307250
21,617000	0,5	-0,297350
21,625333	0,5	-0,288100
21,633667	0,5	-0,296950
21,642000	0,5	-0,284000
21,650333	0,5	-0,271750
21,658667	0,5	-0,259350
21,667000	0,5	-0,252350
21,675333	0,5	-0,235000
21,683667	0,5	-0,221800
21,692000	0,5	-0,204750
21,700333	0,5	-0,191500
21,708667	0,5	-0,180050
21,717000	0,5	-0,160850
21,725333	0,5	-0,135550
21,733667	0,5	-0,114450
21,742000	0,5	-0,115350
21,750333	0,5	-0,097800
21,758667	0,5	-0,091700
21,767000	0,5	-0,083300
21,775333	0,5	-0,081700
21,783667	0,5	-0,076300
21,792000	0,5	-0,058550
21,800333	0,5	-0,039050
21,808667	0,5	-0,026350
21,817000	0,5	-0,002600
21,825333	0,5	0,012050
21,833667	0,5	0,032650
21,842000	0,5	0,048200
21,850333	0,5	0,067350
21,858667	0,5	0,091650
21,867000	0,5	0,107850
21,875333	0,5	0,152900
21,883667	0,5	0,170400
21,892000	0,5	0,197350
21,900333	0,5	0,222750
21,908667	0,5	0,245950
21,917000	0,5	0,261050
21,925333	0,5	0,283450
21,933667	0,5	0,303100
21,942000	0,5	0,329400
21,950333	0,5	0,364850
21,958667	0,5	0,399500
21,967000	0,5	0,424300
21,975333	0,5	0,451650
21,983667	0,5	0,479000
21,992000	0,5	0,495700
22,000333	0,5	0,517600
22,008667	0,5	0,530750
22,017000	0,5	0,556700
22,025333	0,5	0,569650
22,033667	0,5	0,578800
22,042000	0,5	0,606150
22,050333	0,5	0,632950
22,058667	0,5	0,654250
22,067000	0,5	0,671500
22,075333	0,5	0,689450
22,083667	0,5	0,717400
22,092000	0,5	0,744300
22,100333	0,5	0,774850
22,108667	0,5	0,800700
22,117000	0,5	0,834800
22,125333	0,5	0,863250
22,133667	0,5	0,893000
22,142000	0,5	0,929000
22,150333	0,5	0,962050
22,158667	0,5	0,998550
22,167000	0,5	1,031200
22,175333	0,5	1,070650
22,183667	0,5	1,110850
22,192000	0,5	1,154400
22,200333	0,5	1,182400
22,208667	0,5	1,214000
22,217000	0,5	1,240800
22,225333	0,5	1,277400
22,233667	0,5	1,326500
22,242000	0,5	1,380250
22,250333	0,5	1,425250
22,258667	0,5	1,473500
22,267000	0,5	1,516250
22,275333	0,5	1,557450
22,283667	0,5	1,601250
22,292000	0,5	1,642450
22,300333	0,5	1,684550
22,308667	0,5	1,714650
22,317000	0,5	1,758950
22,325333	0,5	1,798500
22,333667	0,5	1,859200
22,342000	0,5	1,909950
22,350333	0,5	1,956600
22,358667	0,5	1,994200
22,367000	0,5	2,032450
22,375333	0,5	2,086400
22,383667	0,5	2,141150
22,392000	0,5	2,200800
22,400333	0,5	2,253300
22,408667	0,5	2,315850
22,417000	0,5	2,374950
22,425333	0,5	2,429750
22,433667	0,5	2,482450
22,442000	0,5	2,537500
22,450333	0,5	2,583200
22,458667	0,5	2,626500
22,467000	0,5	2,662800
22,475333	0,5	2,734600
22,483667	0,5	2,791300
22,492000	0,5	2,846100
22,500333	0,5	2,887150
22,508667	0,5	2,922250
22,517000	0,5	2,973650
22,525333	0,5	3,026800
22,533667	0,5	3,087250
22,542000	0,5	3,141850
22,550333	0,5	3,198550
22,558667	0,5	3,259000
22,567000	0,5	3,314100
22,575333	0,5	3,370000
22,583667	0,5	3,424000
22,592000	0,5	3,472650
22,600333	0,5	3,490900
22,608667	0,5	3,526700
22,617000	0,5	3,553750
22,625333	0,5	3,590800
22,633667	0,5	3,611000
22,642000	0,5	3,614650
22,650333	0,5	3,619850
22,658667	0,5	3,599750
22,667000	0,5	3,605300
22,675333	0,5	3,598800
22,683667	0,5	3,585800
22,692000	0,5	3,565000
22,700333	0,5	3,544600
22,708667	0,5	3,517050
22,717000	0,5	3,479150
22,725333	0,5	3,447050
22,733667	0,5	3,401750
22,742000	0,5	3,345300
22,750333	0,5	3,239200
22,758667	0,5	3,205350
22,767000	0,5	3,145250
22,775333	0,5	3,088650
22,783667	0,5	3,002650
22,792000	0,5	2,908550
22,800333	0,5	2,804050
22,808667	0,5	2,690200
22,817000	0,5	2,588500
22,825333	0,5	2,479900
22,833667	0,5	2,370350
22,842000	0,5	2,262850
22,850333	0,5	2,146400
22,858667	0,5	2,031900
22,867000	0,5	1,913100
22,875333	0,5	1,793600
22,883667	0,5	1,662500
22,892000	0,5	1,530600
22,900333	0,5	1,377850
22,908667	0,5	1,247450
22,917000	0,5	1,124800
22,925333	0,5	0,981300
22,933667	0,5	0,835600
22,942000	0,5	0,708400
22,950333	0,5	0,573850
22,958667	0,5	0,442850
22,967000	0,5	0,313200
22,975333	0,5	0,193400
22,983667	0,5	0,079400
22,992000	0,5	-0,029100
23,000333	0,5	-0,135250
23,008667	0,5	-0,237500
23,017000	0,5	-0,341200
23,025333	0,5	-0,439900
23,033667	0,5	-0,530350
23,042000	0,5	-0,607250
23,050333	0,5	-0,704500
23,058667	0,5	-0,809850
23,067000	0,5	-0,924200
23,075333	0,5	-1,013650
23,083667	0,5	-1,092100
23,092000	0,5	-1,159100
23,100333	0,5	-1,220400
23,108667	0,5	-1,293350
23,117000	0,5	-1,354900
23,125333	0,5	-1,410500
23,133667	0,5	-1,458700
23,142000	0,5	-1,507750
23,150333	0,5	-1,542900
23,158667	0,5	-1,585750
23,167000	0,5	-1,623600
23,175333	0,5	-1,656950
23,183667	0,5	-1,680900
23,192000	0,5	-1,720800
23,200333	0,5	-1,747000
23,208667	0,5	-1,790400
23,217000	0,5	-1,860750
23,225333	0,5	-1,886250
23,233667	0,5	-1,912050
23,242000	0,5	-1,921950
23,250333	0,5	-1,946650
23,258667	0,5	-1,959650
23,267000	0,5	-1,976250
23,275333	0,5	-1,977550
23,283667	0,5	-1,982250
23,292000	0,5	-1,977300
23,300333	0,5	-1,981650
23,308667	0,5	-1,977050
23,317000	0,5	-1,974000
23,325333	0,5	-1,974100
23,333667	0,5	-1,965350
23,342000	0,5	-1,972150
23,350333	0,5	-1,953850
23,358667	0,5	-1,963950
23,367000	0,5	-1,989800
23,375333	0,5	-1,998800
23,383667	0,5	-1,995300
23,392000	0,5	-1,986900
23,400333	0,5	-1,985650
23,408667	0,5	-1,988350
23,417000	0,5	-1,972900
23,425333	0,5	-1,964950
23,433667	0,5	-1,946400
23,442000	0,5	-1,935350
23,450333	0,5	-1,919950
23,458667	0,5	-1,906900
23,467000	0,5	-1,885250
23,475333	0,5	-1,863200
23,483667	0,5	-1,903150
23,492000	0,5	-1,865700
23,500333	0,5	-1,825050
23,508667	0,5	-1,806500
23,517000	0,5	-1,815150
23,525333	0,5	-1,809050
23,533667	0,5	-1,799950
23,542000	0,5	-1,786400
23,550333	0,5	-1,783600
23,558667	0,5	-1,772550
23,567000	0,5	-1,765050
23,575333	0,5	-1,752100
23,583667	0,5	-1,741750
23,592000	0,5	-1,724100
23,600333	0,5	-1,712200
23,608667	0,5	-1,693300
23,617000	0,5	-1,680350
23,625333	0,5	-1,697450
23,633667	0,5	-1,730350
23,642000	0,5	-1,692750
23,650333	0,5	-1,630300
23,658667	0,5	-1,607850
23,667000	0,5	-1,601300
23,675333	0,5	-1,587000
23,683667	0,5	-1,574700
23,692000	0,5	-1,560450
23,700333	0,5	-1,548000
23,708667	0,5	-1,535850
23,717000	0,5	-1,520150
23,725333	0,5	-1,502550
23,733667	0,5	-1,490150
23,742000	0,5	-1,473900
23,750333	0,5	-1,458600
23,758667	0,5	-1,445800
23,767000	0,5	-1,430500
23,775333	0,5	-1,533700
23,783667	0,5	-1,510050
23,792000	0,5	-1,466150
23,800333	0,5	-1,408000
23,808667	0,5	-1,381300
23,817000	0,5	-1,370850
23,825333	0,5	-1,354350
23,833667	0,5	-1,349450
23,842000	0,5	-1,337250
23,850333	0,5	-1,316650
23,858667	0,5	-1,296850
23,867000	0,5	-1,276450
23,875333	0,5	-1,263050
23,883667	0,5	-1,240450
23,892000	0,5	-1,224800
23,900333	0,5	-1,201100
23,908667	0,5	-1,187200
23,917000	0,5	-1,181850
23,925333	0,5	-1,294450
23,933667	0,5	-1,235200
23,942000	0,5	-1,195300
23,950333	0,5	-1,135600
23,958667	0,5	-1,115750
23,967000	0,5	-1,099000
23,975333	0,5	-1,100300
23,983667	0,5	-1,095400
23,992000	0,5	-1,082700
24,000333	0,5	-1,057650
24,008667	0,5	-1,044700
24,017000	0,5	-1,023450
24,025333	0,5	-1,007000
24,033667	0,5	-0,987800
24,042000	0,5	-0,971950
24,050333	0,5	-0,956050
24,058667	0,5	-0,936600
24,067000	0,5	-0,985050
24,075333	0,5	-1,021250
24,083667	0,5	-0,987450
24,092000	0,5	-0,927750
24,100333	0,5	-0,883450
24,108667	0,5	-0,860650
24,117000	0,5	-0,844250
24,125333	0,5	-0,835900
24,133667	0,5	-0,830350
24,142000	0,5	-0,811050
24,150333	0,5	-0,795250
24,158667	0,5	-0,775000
24,167000	0,5	-0,766800
24,175333	0,5	-0,750300
24,183667	0,5	-0,734600
24,192000	0,5	-0,716600
24,200333	0,5	-0,702150
24,208667	0,5	-0,694200
24,217000	0,5	-0,771250
24,225333	0,5	-0,758600
24,233667	0,5	-0,729700
24,242000	0,5	-0,682250
24,250333	0,5	-0,644050
24,258667	0,5	-0,629150
24,267000	0,5	-0,620400
24,275333	0,5	-0,626150
24,283667	0,5	-0,604850
24,292000	0,5	-0,588500
24,300333	0,5	-0,563500
24,308667	0,5	-0,553900
24,317000	0,5	-0,533600
24,325333	0,5	-0,522200
24,333667	0,5	-0,502250
24,342000	0,5	-0,491000
24,350333	0,5	-0,476550
24,358667	0,5	-0,476650
24,367000	0,5	-0,550800
24,375333	0,5	-0,516700
24,383667	0,5	-0,490600
24,392000	0,5	-0,455050
24,400333	0,5	-0,432650
24,408667	0,5	-0,423850
24,417000	0,5	-0,420200
24,425333	0,5	-0,417450
24,433667	0,5	-0,406200
24,442000	0,5	-0,389700
24,450333	0,5	-0,382350
24,458667	0,5	-0,372600
24,467000	0,5	-0,368100
24,475333	0,5	-0,350300
24,483667	0,5	-0,337600
24,492000	0,5	-0,318900
24,500333	0,5	-0,308800
24,508667	0,5	-0,345250
24,517000	0,5	-0,348500
24,525333	0,5	-0,333850
24,533667	0,5	-0,304900
24,542000	0,5	-0,277400
24,550333	0,5	-0,263400
24,558667	0,5	-0,260900
24,567000	0,5	-0,265100
24,575333	0,5	-0,261950
24,583667	0,5	-0,243500
24,592000	0,5	-0,238800
24,600333	0,5	-0,232450
24,608667	0,5	-0,226050
24,617000	0,5	-0,214050
24,625333	0,5	-0,206750
24,633667	0,5	-0,200700
24,642000	0,5	-0,193900
24,650333	0,5	-0,190200
24,658667	0,5	-0,234900
24,667000	0,5	-0,209050
24,675333	0,5	-0,204050
24,683667	0,5	-0,177500
24,692000	0,5	-0,162000
24,700333	0,5	-0,150450
24,708667	0,5	-0,147550
24,717000	0,5	-0,152900
24,725333	0,5	-0,140600
24,733667	0,5	-0,133250
24,742000	0,5	-0,124350
24,750333	0,5	-0,122300
24,758667	0,5	-0,114900
24,767000	0,5	-0,110150
24,775333	0,5	-0,100500
24,783667	0,5	-0,093900
24,792000	0,5	-0,090000
24,800333	0,5	-0,092950
24,808667	0,5	-0,120750
24,817000	0,5	-0,103450
24,825333	0,5	-0,091200
24,833667	0,5	-0,075750
24,842000	0,5	-0,066150
24,850333	0,5	-0,063200
24,858667	0,5	-0,064050
24,867000	0,5	-0,064350
24,875333	0,5	-0,062200
24,883667	0,5	-0,053450
24,892000	0,5	-0,047500
24,900333	0,5	-0,041450
24,908667	0,5	-0,035150
24,917000	0,5	-0,028050
24,925333	0,5	-0,026150
24,933667	0,5	-0,017350
24,942000	0,5	-0,013700
24,950333	0,5	-0,026500
24,958667	0,5	-0,027500
24,967000	0,5	-0,018500
24,975333	0,5	-0,010400
24,983667	0,5	-0,000200
24,992000	0,5	0,001250
25,000333	0,5	0,006700
25,008667	0,5	0,001450
25,017000	0,5	-0,001050
25,025333	0,5	0,003600
25,033667	0,5	0,008700
25,042000	0,5	0,008000
25,050333	0,5	0,013300
25,058667	0,5	0,019000
25,067000	0,5	0,022050
25,075333	0,5	0,024300
25,083667	0,5	0,028750
25,092000	0,5	0,034850
25,100333	0,5	0,023650
25,108667	0,5	0,032100
25,117000	0,5	0,034950
25,125333	0,5	0,041500
25,133667	0,5	0,047650
25,142000	0,5	0,049750
25,150333	0,5	0,046900
25,158667	0,5	0,046150
25,167000	0,5	0,047700
25,175333	0,5	0,050650
25,183667	0,5	0,051450
25,192000	0,5	0,053200
25,200333	0,5	0,051000
25,208667	0,5	0,053600
25,217000	0,5	0,055050
25,225333	0,5	0,059200
25,233667	0,5	0,062350
25,242000	0,5	0,061300
25,250333	0,5	0,058300
25,258667	0,5	0,061950
25,267000	0,5	0,066650
25,275333	0,5	0,070700
25,283667	0,5	0,073200
25,292000	0,5	0,075150
25,300333	0,5	0,076200
25,308667	0,5	0,072400
25,317000	0,5	0,077150
25,325333	0,5	0,078450
25,333667	0,5	0,076950
25,342000	0,5	0,079200
25,350333	0,5	0,079250
25,358667	0,5	0,079300
25,367000	0,5	0,081050
25,375333	0,5	0,082100
25,383667	0,5	0,080000
25,392000	0,5	0,081900
25,400333	0,5	0,081050
25,408667	0,5	0,082400
25,417000	0,5	0,082850
25,425333	0,5	0,084700
25,433667	0,5	0,087650
25,442000	0,5	0,084150
25,450333	0,5	0,086500
25,458667	0,5	0,088200
25,467000	0,5	0,089050
25,475333	0,5	0,092500
25,483667	0,5	0,090350
25,492000	0,5	0,092350
25,500333	0,5	0,091800
25,508667	0,5	0,096300
25,517000	0,5	0,093500
25,525333	0,5	0,094400
25,533667	0,5	0,095450
25,542000	0,5	0,096900
25,550333	0,5	0,096500
25,558667	0,5	0,096500
25,567000	0,5	0,092700
25,575333	0,5	0,093800
25,583667	0,5	0,091650
25,592000	0,5	0,095300
25,600333	0,5	0,093450
25,608667	0,5	0,095850
25,617000	0,5	0,096450
25,625333	0,5	0,096250
25,633667	0,5	0,098900
25,642000	0,5	0,098900
25,650333	0,5	0,096900
25,658667	0,5	0,100250
25,667000	0,5	0,100350
25,675333	0,5	0,101650
25,683667	0,5	0,102600
25,692000	0,5	0,107850
25,700333	0,5	0,103100
25,708667	0,5	0,108600
25,717000	0,5	0,102450
25,725333	0,5	0,104250
25,733667	0,5	0,101000
25,742000	0,5	0,103550
25,750333	0,5	0,105750
25,758667	0,5	0,103600
25,767000	0,5	0,108550
25,775333	0,5	0,105200
25,783667	0,5	0,104600
25,792000	0,5	0,104150
25,800333	0,5	0,106450
25,808667	0,5	0,107000
25,817000	0,5	0,109400
25,825333	0,5	0,109600
25,833667	0,5	0,111500
25,842000	0,5	0,113100
25,850333	0,5	0,116000
25,858667	0,5	0,113650
25,867000	0,5	0,108150
25,875333	0,5	0,109050
25,883667	0,5	0,110650
25,892000	0,5	0,112250
25,900333	0,5	0,116500
25,908667	0,5	0,115700
25,917000	0,5	0,117900
25,925333	0,5	0,118750
25,933667	0,5	0,116000
25,942000	0,5	0,117900
25,950333	0,5	0,114600
25,958667	0,5	0,115800
25,967000	0,5	0,117000
25,975333	0,5	0,118300
25,983667	0,5	0,120600
25,992000	0,5	0,124950
26,000333	0,5	0,128000
