File Path	chrom://chromeleon01/ikbm_chromeleon/2022/ICS-5000/ED1/Esteban/20220612_Cell_7_4_eg.seq/618.smp/ED_1.channel/ED_1.chm
Channel	ED_1

Injection Information:
Data Vault	ikbm_chromeleon
Injection	C-NE_00h-EGS_
Injection Number	135
Position	BE2
Comment	
Processing Method	Stop sequence after Cell Death
Instrument Method	ICS5000_PA200_FullNative_Ox_26min_ED1
Type	Unknown
Status	Finished
Injection Date	15.06.2022
Injection Time	08:00:49
Injection Volume (µl)	5,0
Dilution Factor	1,0000
Weight	1,0000

Chromatogram Data Information:
Time Min. (min)	0,000333
Time Max. (min)	26,000333
Data Points	3121
Detector	EDet1
Generating Data System	Chromeleon 7.2.9.11323
Exporting Data System	Chromeleon 7.2.9.0
Operator	Instrument Controller
Signal Quantity	
Signal Unit	nC
Signal Min.	-2,418700
Signal Max.	125,756552
Channel	ED_1
Driver Name	DC-5000
Channel Type	Evaluation
Min. Step (s)	0,5
Max. Step (s)	0,5
Average Step (s)	0,5

Signal Parameter Information:
Signal Info	

Chromatogram Data:
Time (min)	Step (s)	Value (nC)
0,000333	n.a.	-0,011700
0,008667	0,5	-0,041000
0,017000	0,5	-0,033700
0,025333	0,5	-0,023800
0,033667	0,5	0,004800
0,042000	0,5	0,010500
0,050333	0,5	0,014800
0,058667	0,5	0,008800
0,067000	0,5	0,009700
0,075333	0,5	0,003050
0,083667	0,5	0,015800
0,092000	0,5	0,017700
0,100333	0,5	0,010800
0,108667	0,5	0,013800
0,117000	0,5	0,023000
0,125333	0,5	-0,015300
0,133667	0,5	-0,008700
0,142000	0,5	-0,001600
0,150333	0,5	0,031050
0,158667	0,5	0,044300
0,167000	0,5	0,033200
0,175333	0,5	0,022700
0,183667	0,5	0,020550
0,192000	0,5	0,020650
0,200333	0,5	0,018650
0,208667	0,5	0,017750
0,217000	0,5	0,008850
0,225333	0,5	0,011750
0,233667	0,5	0,004500
0,242000	0,5	0,007250
0,250333	0,5	-0,012500
0,258667	0,5	0,011950
0,267000	0,5	-0,009100
0,275333	0,5	-0,016800
0,283667	0,5	-0,022850
0,292000	0,5	0,028100
0,300333	0,5	0,090150
0,308667	0,5	0,095400
0,317000	0,5	0,046850
0,325333	0,5	0,011950
0,333667	0,5	-0,015400
0,342000	0,5	-0,015450
0,350333	0,5	-0,014350
0,358667	0,5	-0,010950
0,367000	0,5	-0,010000
0,375333	0,5	-0,015150
0,383667	0,5	-0,014900
0,392000	0,5	-0,032000
0,400333	0,5	-0,026650
0,408667	0,5	-0,007050
0,417000	0,5	-0,030200
0,425333	0,5	-0,037700
0,433667	0,5	-0,031250
0,442000	0,5	-0,008650
0,450333	0,5	0,022150
0,458667	0,5	0,017950
0,467000	0,5	0,020700
0,475333	0,5	0,004550
0,483667	0,5	0,010200
0,492000	0,5	-0,001800
0,500333	0,5	0,001000
0,508667	0,5	-0,008600
0,517000	0,5	-0,006300
0,525333	0,5	-0,001400
0,533667	0,5	-0,003100
0,542000	0,5	-0,014400
0,550333	0,5	0,005900
0,558667	0,5	0,004600
0,567000	0,5	-0,011100
0,575333	0,5	-0,011150
0,583667	0,5	-0,003300
0,592000	0,5	0,029300
0,600333	0,5	0,037950
0,608667	0,5	0,046650
0,617000	0,5	0,034200
0,625333	0,5	0,040500
0,633667	0,5	0,037650
0,642000	0,5	0,045250
0,650333	0,5	0,039700
0,658667	0,5	0,041150
0,667000	0,5	0,031200
0,675333	0,5	0,039700
0,683667	0,5	0,040900
0,692000	0,5	0,039000
0,700333	0,5	0,062050
0,708667	0,5	0,051500
0,717000	0,5	0,037550
0,725333	0,5	0,047400
0,733667	0,5	0,052000
0,742000	0,5	0,089350
0,750333	0,5	0,092300
0,758667	0,5	0,088700
0,767000	0,5	0,094100
0,775333	0,5	0,093500
0,783667	0,5	0,095600
0,792000	0,5	0,087150
0,800333	0,5	0,092200
0,808667	0,5	0,085000
0,817000	0,5	0,100350
0,825333	0,5	0,099350
0,833667	0,5	0,099950
0,842000	0,5	0,089300
0,850333	0,5	0,129000
0,858667	0,5	0,100050
0,867000	0,5	0,097150
0,875333	0,5	0,105350
0,883667	0,5	0,120750
0,892000	0,5	0,152250
0,900333	0,5	0,140250
0,908667	0,5	0,134000
0,917000	0,5	0,147500
0,925333	0,5	0,149050
0,933667	0,5	0,153950
0,942000	0,5	0,155300
0,950333	0,5	0,146300
0,958667	0,5	0,154250
0,967000	0,5	0,154000
0,975333	0,5	0,159050
0,983667	0,5	0,137300
0,992000	0,5	0,142500
1,000333	0,5	0,173550
1,008667	0,5	0,150250
1,017000	0,5	0,152000
1,025333	0,5	0,162300
1,033667	0,5	0,174150
1,042000	0,5	0,210550
1,050333	0,5	0,190900
1,058667	0,5	0,201800
1,067000	0,5	0,198850
1,075333	0,5	0,209650
1,083667	0,5	0,198250
1,092000	0,5	0,203900
1,100333	0,5	0,197450
1,108667	0,5	0,198400
1,117000	0,5	0,206200
1,125333	0,5	0,205400
1,133667	0,5	0,201700
1,142000	0,5	0,214550
1,150333	0,5	0,218700
1,158667	0,5	0,195050
1,167000	0,5	0,201400
1,175333	0,5	0,206400
1,183667	0,5	0,229300
1,192000	0,5	0,247950
1,200333	0,5	0,254150
1,208667	0,5	0,241350
1,217000	0,5	0,251500
1,225333	0,5	0,238550
1,233667	0,5	0,245450
1,242000	0,5	0,242900
1,250333	0,5	0,243550
1,258667	0,5	0,244300
1,267000	0,5	0,243350
1,275333	0,5	0,254100
1,283667	0,5	0,251650
1,292000	0,5	0,258700
1,300333	0,5	0,253050
1,308667	0,5	0,237300
1,317000	0,5	0,237650
1,325333	0,5	0,252400
1,333667	0,5	0,274350
1,342000	0,5	0,294000
1,350333	0,5	0,281200
1,358667	0,5	0,290100
1,367000	0,5	0,280900
1,375333	0,5	0,288950
1,383667	0,5	0,280600
1,392000	0,5	0,283450
1,400333	0,5	0,275900
1,408667	0,5	0,283050
1,417000	0,5	0,282500
1,425333	0,5	0,275700
1,433667	0,5	0,273350
1,442000	0,5	0,298800
1,450333	0,5	0,278100
1,458667	0,5	0,270500
1,467000	0,5	0,272950
1,475333	0,5	0,293850
1,483667	0,5	0,321350
1,492000	0,5	0,328100
1,500333	0,5	0,327950
1,508667	0,5	0,320200
1,517000	0,5	0,316750
1,525333	0,5	0,312450
1,533667	0,5	0,317300
1,542000	0,5	0,313500
1,550333	0,5	0,339750
1,558667	0,5	0,411950
1,567000	0,5	0,641200
1,575333	0,5	0,953200
1,583667	0,5	1,149600
1,592000	0,5	1,590050
1,600333	0,5	4,069750
1,608667	0,5	12,078250
1,617000	0,5	31,622400
1,625333	0,5	65,724751
1,633667	0,5	103,104652
1,642000	0,5	125,727602
1,650333	0,5	125,756552
1,658667	0,5	108,524702
1,667000	0,5	84,886101
1,675333	0,5	63,080101
1,683667	0,5	46,436951
1,692000	0,5	34,930051
1,700333	0,5	27,281650
1,708667	0,5	22,202500
1,717000	0,5	18,708600
1,725333	0,5	16,190800
1,733667	0,5	14,320850
1,742000	0,5	12,869950
1,750333	0,5	11,749400
1,758667	0,5	10,881500
1,767000	0,5	10,173800
1,775333	0,5	9,640600
1,783667	0,5	9,254650
1,792000	0,5	9,100700
1,800333	0,5	9,218050
1,808667	0,5	9,647000
1,817000	0,5	10,247300
1,825333	0,5	10,757800
1,833667	0,5	10,909100
1,842000	0,5	10,672150
1,850333	0,5	10,200150
1,858667	0,5	9,676700
1,867000	0,5	9,303900
1,875333	0,5	9,156050
1,883667	0,5	9,255750
1,892000	0,5	9,310100
1,900333	0,5	9,381500
1,908667	0,5	9,609900
1,917000	0,5	9,930250
1,925333	0,5	10,039500
1,933667	0,5	9,754800
1,942000	0,5	9,198200
1,950333	0,5	8,622000
1,958667	0,5	8,171400
1,967000	0,5	8,010500
1,975333	0,5	8,151450
1,983667	0,5	8,551500
1,992000	0,5	9,004300
2,000333	0,5	9,313800
2,008667	0,5	9,496900
2,017000	0,5	9,694100
2,025333	0,5	10,066200
2,033667	0,5	10,728000
2,042000	0,5	11,694350
2,050333	0,5	13,094150
2,058667	0,5	14,822900
2,067000	0,5	16,774400
2,075333	0,5	18,987800
2,083667	0,5	21,561250
2,092000	0,5	24,830950
2,100333	0,5	28,968800
2,108667	0,5	34,127001
2,117000	0,5	40,224001
2,125333	0,5	47,024151
2,133667	0,5	53,408401
2,142000	0,5	57,059901
2,150333	0,5	55,846051
2,158667	0,5	50,525651
2,167000	0,5	44,040301
2,175333	0,5	38,824701
2,183667	0,5	35,744501
2,192000	0,5	35,415501
2,200333	0,5	39,248701
2,208667	0,5	47,534451
2,217000	0,5	56,053401
2,225333	0,5	58,475701
2,233667	0,5	54,350001
2,242000	0,5	48,660951
2,250333	0,5	44,036351
2,258667	0,5	39,185701
2,267000	0,5	33,431350
2,275333	0,5	27,934550
2,283667	0,5	23,781550
2,292000	0,5	21,012950
2,300333	0,5	19,230100
2,308667	0,5	18,055900
2,317000	0,5	17,333100
2,325333	0,5	16,969800
2,333667	0,5	16,907000
2,342000	0,5	17,053950
2,350333	0,5	17,358900
2,358667	0,5	17,714650
2,367000	0,5	18,098200
2,375333	0,5	18,383350
2,383667	0,5	18,430550
2,392000	0,5	18,195350
2,400333	0,5	17,731950
2,408667	0,5	17,160450
2,417000	0,5	16,560750
2,425333	0,5	15,979050
2,433667	0,5	15,439150
2,442000	0,5	14,972700
2,450333	0,5	14,568900
2,458667	0,5	14,231600
2,467000	0,5	13,956250
2,475333	0,5	13,762000
2,483667	0,5	13,582850
2,492000	0,5	13,491550
2,500333	0,5	13,471300
2,508667	0,5	13,491250
2,517000	0,5	13,642800
2,525333	0,5	14,382550
2,533667	0,5	16,722250
2,542000	0,5	19,204300
2,550333	0,5	19,035450
2,558667	0,5	17,257750
2,567000	0,5	15,719900
2,575333	0,5	14,604100
2,583667	0,5	13,781000
2,592000	0,5	13,206100
2,600333	0,5	12,825350
2,608667	0,5	12,558200
2,617000	0,5	12,400550
2,625333	0,5	12,278250
2,633667	0,5	12,164450
2,642000	0,5	12,072000
2,650333	0,5	11,995500
2,658667	0,5	11,923400
2,667000	0,5	11,841500
2,675333	0,5	11,733150
2,683667	0,5	11,635350
2,692000	0,5	11,541350
2,700333	0,5	11,473500
2,708667	0,5	11,406050
2,717000	0,5	11,369250
2,725333	0,5	11,355600
2,733667	0,5	11,412000
2,742000	0,5	11,556100
2,750333	0,5	11,834300
2,758667	0,5	12,248000
2,767000	0,5	12,835200
2,775333	0,5	13,471000
2,783667	0,5	14,151850
2,792000	0,5	14,846850
2,800333	0,5	15,513200
2,808667	0,5	16,104750
2,817000	0,5	16,571000
2,825333	0,5	17,017350
2,833667	0,5	17,579000
2,842000	0,5	18,361350
2,850333	0,5	19,223250
2,858667	0,5	19,904650
2,867000	0,5	20,080600
2,875333	0,5	19,711450
2,883667	0,5	19,004000
2,892000	0,5	18,342700
2,900333	0,5	18,066750
2,908667	0,5	18,313700
2,917000	0,5	19,165450
2,925333	0,5	20,466800
2,933667	0,5	22,092500
2,942000	0,5	23,779850
2,950333	0,5	25,193250
2,958667	0,5	25,989900
2,967000	0,5	25,865500
2,975333	0,5	24,788800
2,983667	0,5	23,016450
2,992000	0,5	20,912350
3,000333	0,5	18,909700
3,008667	0,5	17,320750
3,017000	0,5	16,399600
3,025333	0,5	16,252350
3,033667	0,5	16,857450
3,042000	0,5	17,916700
3,050333	0,5	18,980900
3,058667	0,5	19,543750
3,067000	0,5	19,402750
3,075333	0,5	18,480250
3,083667	0,5	17,060900
3,092000	0,5	15,365500
3,100333	0,5	13,661950
3,108667	0,5	12,101600
3,117000	0,5	10,748100
3,125333	0,5	9,671250
3,133667	0,5	8,855500
3,142000	0,5	8,242650
3,150333	0,5	7,785550
3,158667	0,5	7,441950
3,167000	0,5	7,176650
3,175333	0,5	6,987300
3,183667	0,5	6,859400
3,192000	0,5	6,825600
3,200333	0,5	6,892950
3,208667	0,5	7,103200
3,217000	0,5	7,409150
3,225333	0,5	7,728050
3,233667	0,5	8,006150
3,242000	0,5	8,131850
3,250333	0,5	8,050550
3,258667	0,5	7,776900
3,267000	0,5	7,339400
3,275333	0,5	6,858700
3,283667	0,5	6,407950
3,292000	0,5	6,047950
3,300333	0,5	5,774700
3,308667	0,5	5,582150
3,317000	0,5	5,440400
3,325333	0,5	5,330950
3,333667	0,5	5,248550
3,342000	0,5	5,161550
3,350333	0,5	5,102850
3,358667	0,5	5,068000
3,367000	0,5	5,024500
3,375333	0,5	4,980450
3,383667	0,5	4,968400
3,392000	0,5	4,963450
3,400333	0,5	4,998450
3,408667	0,5	5,020600
3,417000	0,5	5,067850
3,425333	0,5	5,139600
3,433667	0,5	5,296800
3,442000	0,5	5,568050
3,450333	0,5	6,031850
3,458667	0,5	6,707300
3,467000	0,5	7,575150
3,475333	0,5	8,510050
3,483667	0,5	9,293100
3,492000	0,5	9,713500
3,500333	0,5	9,668950
3,508667	0,5	9,181750
3,517000	0,5	8,349300
3,525333	0,5	7,405950
3,533667	0,5	6,529350
3,542000	0,5	5,814300
3,550333	0,5	5,282600
3,558667	0,5	4,892550
3,567000	0,5	4,597000
3,575333	0,5	4,399500
3,583667	0,5	4,237150
3,592000	0,5	4,125250
3,600333	0,5	4,029550
3,608667	0,5	3,966500
3,617000	0,5	3,924800
3,625333	0,5	3,912050
3,633667	0,5	3,909900
3,642000	0,5	3,901100
3,650333	0,5	3,899300
3,658667	0,5	3,887450
3,667000	0,5	3,846150
3,675333	0,5	3,813200
3,683667	0,5	3,790900
3,692000	0,5	3,778250
3,700333	0,5	3,767850
3,708667	0,5	3,732350
3,717000	0,5	3,718000
3,725333	0,5	3,699150
3,733667	0,5	3,698550
3,742000	0,5	3,691600
3,750333	0,5	3,697600
3,758667	0,5	3,692950
3,767000	0,5	3,694400
3,775333	0,5	3,684650
3,783667	0,5	3,677350
3,792000	0,5	3,633400
3,800333	0,5	3,627400
3,808667	0,5	3,577500
3,817000	0,5	3,522600
3,825333	0,5	3,476950
3,833667	0,5	3,443100
3,842000	0,5	3,419450
3,850333	0,5	3,388600
3,858667	0,5	3,348950
3,867000	0,5	3,326650
3,875333	0,5	3,307450
3,883667	0,5	3,297850
3,892000	0,5	3,292600
3,900333	0,5	3,296200
3,908667	0,5	3,314500
3,917000	0,5	3,340850
3,925333	0,5	3,386800
3,933667	0,5	3,412250
3,942000	0,5	3,442350
3,950333	0,5	3,531000
3,958667	0,5	3,677950
3,967000	0,5	3,915000
3,975333	0,5	4,212250
3,983667	0,5	4,515950
3,992000	0,5	4,787850
4,000333	0,5	4,955850
4,008667	0,5	5,044550
4,017000	0,5	5,067600
4,025333	0,5	5,068150
4,033667	0,5	5,026600
4,042000	0,5	4,969700
4,050333	0,5	4,900600
4,058667	0,5	4,823000
4,067000	0,5	4,754450
4,075333	0,5	4,680400
4,083667	0,5	4,609900
4,092000	0,5	4,539000
4,100333	0,5	4,490650
4,108667	0,5	4,409700
4,117000	0,5	4,350950
4,125333	0,5	4,289300
4,133667	0,5	4,250550
4,142000	0,5	4,208500
4,150333	0,5	4,159150
4,158667	0,5	4,088700
4,167000	0,5	4,047200
4,175333	0,5	3,989900
4,183667	0,5	3,948000
4,192000	0,5	3,897950
4,200333	0,5	3,849150
4,208667	0,5	3,806900
4,217000	0,5	3,767450
4,225333	0,5	3,727300
4,233667	0,5	3,678750
4,242000	0,5	3,649750
4,250333	0,5	3,628450
4,258667	0,5	3,578950
4,267000	0,5	3,551550
4,275333	0,5	3,530300
4,283667	0,5	3,521050
4,292000	0,5	3,518800
4,300333	0,5	3,488750
4,308667	0,5	3,475000
4,317000	0,5	3,449650
4,325333	0,5	3,434600
4,333667	0,5	3,406250
4,342000	0,5	3,391500
4,350333	0,5	3,368400
4,358667	0,5	3,353800
4,367000	0,5	3,338500
4,375333	0,5	3,309250
4,383667	0,5	3,283250
4,392000	0,5	3,290850
4,400333	0,5	3,268000
4,408667	0,5	3,247600
4,417000	0,5	3,243600
4,425333	0,5	3,238450
4,433667	0,5	3,262050
4,442000	0,5	3,260700
4,450333	0,5	3,260050
4,458667	0,5	3,251000
4,467000	0,5	3,253900
4,475333	0,5	3,248550
4,483667	0,5	3,248850
4,492000	0,5	3,241850
4,500333	0,5	3,238350
4,508667	0,5	3,232100
4,517000	0,5	3,229400
4,525333	0,5	3,211050
4,533667	0,5	3,210250
4,542000	0,5	3,230000
4,550333	0,5	3,222900
4,558667	0,5	3,218600
4,567000	0,5	3,238800
4,575333	0,5	3,267150
4,583667	0,5	3,322450
4,592000	0,5	3,379050
4,600333	0,5	3,441050
4,608667	0,5	3,529500
4,617000	0,5	3,634650
4,625333	0,5	3,754500
4,633667	0,5	3,884250
4,642000	0,5	4,016300
4,650333	0,5	4,133200
4,658667	0,5	4,245450
4,667000	0,5	4,315750
4,675333	0,5	4,349950
4,683667	0,5	4,345600
4,692000	0,5	4,328450
4,700333	0,5	4,238100
4,708667	0,5	4,142600
4,717000	0,5	4,041150
4,725333	0,5	3,943850
4,733667	0,5	3,843350
4,742000	0,5	3,727400
4,750333	0,5	3,624500
4,758667	0,5	3,541850
4,767000	0,5	3,463600
4,775333	0,5	3,398450
4,783667	0,5	3,344600
4,792000	0,5	3,297750
4,800333	0,5	3,261200
4,808667	0,5	3,223400
4,817000	0,5	3,202650
4,825333	0,5	3,165400
4,833667	0,5	3,160800
4,842000	0,5	3,154450
4,850333	0,5	3,130100
4,858667	0,5	3,116050
4,867000	0,5	3,119450
4,875333	0,5	3,122200
4,883667	0,5	3,129950
4,892000	0,5	3,111000
4,900333	0,5	3,109200
4,908667	0,5	3,092450
4,917000	0,5	3,094600
4,925333	0,5	3,079550
4,933667	0,5	3,074900
4,942000	0,5	3,057100
4,950333	0,5	3,046100
4,958667	0,5	3,041600
4,967000	0,5	3,022200
4,975333	0,5	3,008550
4,983667	0,5	3,019950
4,992000	0,5	3,012050
5,000333	0,5	2,996450
5,008667	0,5	2,989800
5,017000	0,5	2,998900
5,025333	0,5	3,020300
5,033667	0,5	3,025100
5,042000	0,5	3,021950
5,050333	0,5	3,011350
5,058667	0,5	3,010500
5,067000	0,5	2,997700
5,075333	0,5	2,998750
5,083667	0,5	2,988300
5,092000	0,5	2,980050
5,100333	0,5	2,974950
5,108667	0,5	2,966000
5,117000	0,5	2,953100
5,125333	0,5	2,944450
5,133667	0,5	2,950750
5,142000	0,5	2,934300
5,150333	0,5	2,921300
5,158667	0,5	2,922200
5,167000	0,5	2,936200
5,175333	0,5	2,950550
5,183667	0,5	2,953750
5,192000	0,5	2,933100
5,200333	0,5	2,937600
5,208667	0,5	2,928250
5,217000	0,5	2,923000
5,225333	0,5	2,910350
5,233667	0,5	2,901850
5,242000	0,5	2,886200
5,250333	0,5	2,874300
5,258667	0,5	2,856250
5,267000	0,5	2,840750
5,275333	0,5	2,829750
5,283667	0,5	2,826700
5,292000	0,5	2,795600
5,300333	0,5	2,777850
5,308667	0,5	2,763300
5,317000	0,5	2,774700
5,325333	0,5	2,774150
5,333667	0,5	2,765150
5,342000	0,5	2,753650
5,350333	0,5	2,742350
5,358667	0,5	2,739200
5,367000	0,5	2,730650
5,375333	0,5	2,726700
5,383667	0,5	2,714400
5,392000	0,5	2,711500
5,400333	0,5	2,706450
5,408667	0,5	2,699500
5,417000	0,5	2,684700
5,425333	0,5	2,703550
5,433667	0,5	2,687800
5,442000	0,5	2,681600
5,450333	0,5	2,679000
5,458667	0,5	2,684700
5,467000	0,5	2,705500
5,475333	0,5	2,707300
5,483667	0,5	2,705000
5,492000	0,5	2,704500
5,500333	0,5	2,699600
5,508667	0,5	2,702950
5,517000	0,5	2,699450
5,525333	0,5	2,696650
5,533667	0,5	2,697750
5,542000	0,5	2,693350
5,550333	0,5	2,694250
5,558667	0,5	2,680600
5,567000	0,5	2,680300
5,575333	0,5	2,699450
5,583667	0,5	2,695150
5,592000	0,5	2,692150
5,600333	0,5	2,705650
5,608667	0,5	2,716900
5,617000	0,5	2,753150
5,625333	0,5	2,749850
5,633667	0,5	2,758900
5,642000	0,5	2,763650
5,650333	0,5	2,775350
5,658667	0,5	2,773400
5,667000	0,5	2,770400
5,675333	0,5	2,763250
5,683667	0,5	2,757750
5,692000	0,5	2,752500
5,700333	0,5	2,745000
5,708667	0,5	2,729400
5,717000	0,5	2,718000
5,725333	0,5	2,726250
5,733667	0,5	2,699650
5,742000	0,5	2,688450
5,750333	0,5	2,684350
5,758667	0,5	2,690700
5,767000	0,5	2,705000
5,775333	0,5	2,699050
5,783667	0,5	2,688450
5,792000	0,5	2,698450
5,800333	0,5	2,698250
5,808667	0,5	2,703600
5,817000	0,5	2,706250
5,825333	0,5	2,706250
5,833667	0,5	2,706900
5,842000	0,5	2,710050
5,850333	0,5	2,715750
5,858667	0,5	2,715500
5,867000	0,5	2,717650
5,875333	0,5	2,729300
5,883667	0,5	2,719200
5,892000	0,5	2,723000
5,900333	0,5	2,730150
5,908667	0,5	2,742600
5,917000	0,5	2,755100
5,925333	0,5	2,746600
5,933667	0,5	2,751300
5,942000	0,5	2,750950
5,950333	0,5	2,754100
5,958667	0,5	2,748200
5,967000	0,5	2,756050
5,975333	0,5	2,754100
5,983667	0,5	2,765100
5,992000	0,5	2,770100
6,000333	0,5	2,780850
6,008667	0,5	2,785150
6,017000	0,5	2,809600
6,025333	0,5	2,816050
6,033667	0,5	2,815900
6,042000	0,5	2,820600
6,050333	0,5	2,829600
6,058667	0,5	2,844950
6,067000	0,5	2,850050
6,075333	0,5	2,840300
6,083667	0,5	2,828850
6,092000	0,5	2,814400
6,100333	0,5	2,800000
6,108667	0,5	2,788300
6,117000	0,5	2,774300
6,125333	0,5	2,769400
6,133667	0,5	2,762450
6,142000	0,5	2,761500
6,150333	0,5	2,743100
6,158667	0,5	2,744850
6,167000	0,5	2,755900
6,175333	0,5	2,757600
6,183667	0,5	2,754150
6,192000	0,5	2,763050
6,200333	0,5	2,779450
6,208667	0,5	2,805150
6,217000	0,5	2,819350
6,225333	0,5	2,828500
6,233667	0,5	2,836400
6,242000	0,5	2,854150
6,250333	0,5	2,870150
6,258667	0,5	2,889150
6,267000	0,5	2,909800
6,275333	0,5	2,933550
6,283667	0,5	2,963200
6,292000	0,5	2,990800
6,300333	0,5	3,026700
6,308667	0,5	3,077950
6,317000	0,5	3,141250
6,325333	0,5	3,212600
6,333667	0,5	3,307550
6,342000	0,5	3,439450
6,350333	0,5	3,613750
6,358667	0,5	3,811600
6,367000	0,5	4,031300
6,375333	0,5	4,235700
6,383667	0,5	4,436700
6,392000	0,5	4,586150
6,400333	0,5	4,675500
6,408667	0,5	4,689300
6,417000	0,5	4,627950
6,425333	0,5	4,502150
6,433667	0,5	4,326950
6,442000	0,5	4,133500
6,450333	0,5	3,917800
6,458667	0,5	3,739300
6,467000	0,5	3,558450
6,475333	0,5	3,400200
6,483667	0,5	3,275500
6,492000	0,5	3,185300
6,500333	0,5	3,123900
6,508667	0,5	3,076550
6,517000	0,5	3,022800
6,525333	0,5	2,995750
6,533667	0,5	2,973750
6,542000	0,5	2,962250
6,550333	0,5	2,955900
6,558667	0,5	2,966500
6,567000	0,5	2,983350
6,575333	0,5	3,021650
6,583667	0,5	3,073850
6,592000	0,5	3,134050
6,600333	0,5	3,197950
6,608667	0,5	3,294250
6,617000	0,5	3,344900
6,625333	0,5	3,373550
6,633667	0,5	3,376850
6,642000	0,5	3,350850
6,650333	0,5	3,319150
6,658667	0,5	3,251000
6,667000	0,5	3,191850
6,675333	0,5	3,128300
6,683667	0,5	3,088350
6,692000	0,5	3,050850
6,700333	0,5	3,023050
6,708667	0,5	2,996100
6,717000	0,5	2,971750
6,725333	0,5	2,949500
6,733667	0,5	2,930600
6,742000	0,5	2,906850
6,750333	0,5	2,884100
6,758667	0,5	2,877200
6,767000	0,5	2,845600
6,775333	0,5	2,827800
6,783667	0,5	2,813900
6,792000	0,5	2,806250
6,800333	0,5	2,807950
6,808667	0,5	2,796400
6,817000	0,5	2,781000
6,825333	0,5	2,773200
6,833667	0,5	2,762800
6,842000	0,5	2,757250
6,850333	0,5	2,753450
6,858667	0,5	2,750000
6,867000	0,5	2,745400
6,875333	0,5	2,743700
6,883667	0,5	2,747000
6,892000	0,5	2,748350
6,900333	0,5	2,741650
6,908667	0,5	2,743900
6,917000	0,5	2,729300
6,925333	0,5	2,723550
6,933667	0,5	2,717050
6,942000	0,5	2,725400
6,950333	0,5	2,729500
6,958667	0,5	2,723050
6,967000	0,5	2,711150
6,975333	0,5	2,707300
6,983667	0,5	2,701150
6,992000	0,5	2,692650
7,000333	0,5	2,684300
7,008667	0,5	2,672750
7,017000	0,5	2,663900
7,025333	0,5	2,656050
7,033667	0,5	2,649950
7,042000	0,5	2,636950
7,050333	0,5	2,640900
7,058667	0,5	2,633200
7,067000	0,5	2,622150
7,075333	0,5	2,614950
7,083667	0,5	2,614050
7,092000	0,5	2,619650
7,100333	0,5	2,626850
7,108667	0,5	2,618650
7,117000	0,5	2,614000
7,125333	0,5	2,603700
7,133667	0,5	2,599050
7,142000	0,5	2,590150
7,150333	0,5	2,584950
7,158667	0,5	2,582400
7,167000	0,5	2,578900
7,175333	0,5	2,583050
7,183667	0,5	2,575450
7,192000	0,5	2,577600
7,200333	0,5	2,581150
7,208667	0,5	2,571900
7,217000	0,5	2,559950
7,225333	0,5	2,548950
7,233667	0,5	2,543850
7,242000	0,5	2,541600
7,250333	0,5	2,530550
7,258667	0,5	2,518100
7,267000	0,5	2,505500
7,275333	0,5	2,498900
7,283667	0,5	2,492650
7,292000	0,5	2,489800
7,300333	0,5	2,483900
7,308667	0,5	2,480550
7,317000	0,5	2,478350
7,325333	0,5	2,474850
7,333667	0,5	2,471300
7,342000	0,5	2,477800
7,350333	0,5	2,484800
7,358667	0,5	2,487750
7,367000	0,5	2,510950
7,375333	0,5	2,577600
7,383667	0,5	2,685450
7,392000	0,5	2,805800
7,400333	0,5	2,895800
7,408667	0,5	2,912800
7,417000	0,5	2,872550
7,425333	0,5	2,795700
7,433667	0,5	2,719900
7,442000	0,5	2,651500
7,450333	0,5	2,600050
7,458667	0,5	2,552900
7,467000	0,5	2,510200
7,475333	0,5	2,473150
7,483667	0,5	2,433600
7,492000	0,5	2,409100
7,500333	0,5	2,391100
7,508667	0,5	2,371050
7,517000	0,5	2,357500
7,525333	0,5	2,349350
7,533667	0,5	2,356450
7,542000	0,5	2,362400
7,550333	0,5	2,360000
7,558667	0,5	2,360100
7,567000	0,5	2,357450
7,575333	0,5	2,356150
7,583667	0,5	2,352150
7,592000	0,5	2,347450
7,600333	0,5	2,340800
7,608667	0,5	2,338800
7,617000	0,5	2,336550
7,625333	0,5	2,333450
7,633667	0,5	2,327000
7,642000	0,5	2,342700
7,650333	0,5	2,354600
7,658667	0,5	2,379750
7,667000	0,5	2,414350
7,675333	0,5	2,455950
7,683667	0,5	2,508700
7,692000	0,5	2,550850
7,700333	0,5	2,591500
7,708667	0,5	2,638650
7,717000	0,5	2,683550
7,725333	0,5	2,726250
7,733667	0,5	2,754400
7,742000	0,5	2,766400
7,750333	0,5	2,761900
7,758667	0,5	2,752300
7,767000	0,5	2,760700
7,775333	0,5	2,801100
7,783667	0,5	2,871100
7,792000	0,5	2,947700
7,800333	0,5	2,965850
7,808667	0,5	2,946400
7,817000	0,5	2,921750
7,825333	0,5	2,928750
7,833667	0,5	2,957600
7,842000	0,5	2,953100
7,850333	0,5	2,918150
7,858667	0,5	2,858350
7,867000	0,5	2,813600
7,875333	0,5	2,805750
7,883667	0,5	2,832650
7,892000	0,5	2,863850
7,900333	0,5	2,862000
7,908667	0,5	2,816750
7,917000	0,5	2,723300
7,925333	0,5	2,610650
7,933667	0,5	2,507750
7,942000	0,5	2,423600
7,950333	0,5	2,354450
7,958667	0,5	2,313100
7,967000	0,5	2,290200
7,975333	0,5	2,286650
7,983667	0,5	2,282600
7,992000	0,5	2,278150
8,000333	0,5	2,262900
8,008667	0,5	2,248050
8,017000	0,5	2,231050
8,025333	0,5	2,221600
8,033667	0,5	2,243250
8,042000	0,5	2,300750
8,050333	0,5	2,397500
8,058667	0,5	2,490250
8,067000	0,5	2,537350
8,075333	0,5	2,508500
8,083667	0,5	2,432700
8,092000	0,5	2,349000
8,100333	0,5	2,277450
8,108667	0,5	2,239750
8,117000	0,5	2,228050
8,125333	0,5	2,245450
8,133667	0,5	2,280450
8,142000	0,5	2,314800
8,150333	0,5	2,343750
8,158667	0,5	2,349800
8,167000	0,5	2,346450
8,175333	0,5	2,332400
8,183667	0,5	2,331850
8,192000	0,5	2,332300
8,200333	0,5	2,345100
8,208667	0,5	2,353350
8,217000	0,5	2,356500
8,225333	0,5	2,347650
8,233667	0,5	2,333900
8,242000	0,5	2,305800
8,250333	0,5	2,282150
8,258667	0,5	2,271950
8,267000	0,5	2,298400
8,275333	0,5	2,364000
8,283667	0,5	2,445100
8,292000	0,5	2,500650
8,300333	0,5	2,493700
8,308667	0,5	2,431700
8,317000	0,5	2,343900
8,325333	0,5	2,270250
8,333667	0,5	2,218900
8,342000	0,5	2,190450
8,350333	0,5	2,183700
8,358667	0,5	2,196800
8,367000	0,5	2,223800
8,375333	0,5	2,261250
8,383667	0,5	2,309900
8,392000	0,5	2,355950
8,400333	0,5	2,394950
8,408667	0,5	2,424900
8,417000	0,5	2,430050
8,425333	0,5	2,408700
8,433667	0,5	2,360550
8,442000	0,5	2,299300
8,450333	0,5	2,237500
8,458667	0,5	2,187700
8,467000	0,5	2,156700
8,475333	0,5	2,160750
8,483667	0,5	2,192050
8,492000	0,5	2,266550
8,500333	0,5	2,377500
8,508667	0,5	2,484700
8,517000	0,5	2,541150
8,525333	0,5	2,528200
8,533667	0,5	2,474200
8,542000	0,5	2,402550
8,550333	0,5	2,343150
8,558667	0,5	2,305200
8,567000	0,5	2,286600
8,575333	0,5	2,271300
8,583667	0,5	2,252400
8,592000	0,5	2,236700
8,600333	0,5	2,234050
8,608667	0,5	2,245200
8,617000	0,5	2,271450
8,625333	0,5	2,282400
8,633667	0,5	2,273500
8,642000	0,5	2,244050
8,650333	0,5	2,203700
8,658667	0,5	2,167400
8,667000	0,5	2,158500
8,675333	0,5	2,185700
8,683667	0,5	2,254100
8,692000	0,5	2,346100
8,700333	0,5	2,427400
8,708667	0,5	2,469050
8,717000	0,5	2,457650
8,725333	0,5	2,409300
8,733667	0,5	2,347800
8,742000	0,5	2,292650
8,750333	0,5	2,255450
8,758667	0,5	2,230650
8,767000	0,5	2,214950
8,775333	0,5	2,207800
8,783667	0,5	2,214200
8,792000	0,5	2,240550
8,800333	0,5	2,293100
8,808667	0,5	2,359600
8,817000	0,5	2,438450
8,825333	0,5	2,509500
8,833667	0,5	2,578000
8,842000	0,5	2,646450
8,850333	0,5	2,718100
8,858667	0,5	2,750550
8,867000	0,5	2,716400
8,875333	0,5	2,611450
8,883667	0,5	2,494250
8,892000	0,5	2,406100
8,900333	0,5	2,390150
8,908667	0,5	2,442200
8,917000	0,5	2,591050
8,925333	0,5	2,748750
8,933667	0,5	2,804200
8,942000	0,5	2,713900
8,950333	0,5	2,554950
8,958667	0,5	2,424450
8,967000	0,5	2,355050
8,975333	0,5	2,347550
8,983667	0,5	2,387700
8,992000	0,5	2,468050
9,000333	0,5	2,588400
9,008667	0,5	2,745050
9,017000	0,5	2,935850
9,025333	0,5	3,156150
9,033667	0,5	3,399000
9,042000	0,5	3,659100
9,050333	0,5	3,941300
9,058667	0,5	4,232350
9,067000	0,5	4,537250
9,075333	0,5	4,833500
9,083667	0,5	5,099300
9,092000	0,5	5,294600
9,100333	0,5	5,396400
9,108667	0,5	5,389750
9,117000	0,5	5,282400
9,125333	0,5	5,083950
9,133667	0,5	4,817750
9,142000	0,5	4,521000
9,150333	0,5	4,221850
9,158667	0,5	3,947000
9,167000	0,5	3,705450
9,175333	0,5	3,499800
9,183667	0,5	3,332800
9,192000	0,5	3,198100
9,200333	0,5	3,097150
9,208667	0,5	3,023150
9,217000	0,5	2,968150
9,225333	0,5	2,922850
9,233667	0,5	2,876750
9,242000	0,5	2,830700
9,250333	0,5	2,783200
9,258667	0,5	2,730800
9,267000	0,5	2,679450
9,275333	0,5	2,632000
9,283667	0,5	2,587950
9,292000	0,5	2,556950
9,300333	0,5	2,537250
9,308667	0,5	2,525400
9,317000	0,5	2,524950
9,325333	0,5	2,530900
9,333667	0,5	2,545250
9,342000	0,5	2,574650
9,350333	0,5	2,625200
9,358667	0,5	2,693500
9,367000	0,5	2,765550
9,375333	0,5	2,829550
9,383667	0,5	2,866550
9,392000	0,5	2,871100
9,400333	0,5	2,844450
9,408667	0,5	2,797300
9,417000	0,5	2,750250
9,425333	0,5	2,698400
9,433667	0,5	2,646500
9,442000	0,5	2,600500
9,450333	0,5	2,565200
9,458667	0,5	2,537800
9,467000	0,5	2,516850
9,475333	0,5	2,499800
9,483667	0,5	2,486900
9,492000	0,5	2,478100
9,500333	0,5	2,472050
9,508667	0,5	2,474950
9,517000	0,5	2,484500
9,525333	0,5	2,501300
9,533667	0,5	2,525050
9,542000	0,5	2,553350
9,550333	0,5	2,585250
9,558667	0,5	2,617450
9,567000	0,5	2,659800
9,575333	0,5	2,696950
9,583667	0,5	2,721650
9,592000	0,5	2,738800
9,600333	0,5	2,740850
9,608667	0,5	2,736050
9,617000	0,5	2,714300
9,625333	0,5	2,693900
9,633667	0,5	2,684000
9,642000	0,5	2,683950
9,650333	0,5	2,710250
9,658667	0,5	2,759200
9,667000	0,5	2,836900
9,675333	0,5	2,936050
9,683667	0,5	3,051400
9,692000	0,5	3,171200
9,700333	0,5	3,273350
9,708667	0,5	3,341250
9,717000	0,5	3,381050
9,725333	0,5	3,387550
9,733667	0,5	3,375750
9,742000	0,5	3,356250
9,750333	0,5	3,332400
9,758667	0,5	3,305550
9,767000	0,5	3,270800
9,775333	0,5	3,215150
9,783667	0,5	3,151750
9,792000	0,5	3,076700
9,800333	0,5	2,999200
9,808667	0,5	2,923650
9,817000	0,5	2,850750
9,825333	0,5	2,795850
9,833667	0,5	2,745250
9,842000	0,5	2,710350
9,850333	0,5	2,688250
9,858667	0,5	2,678000
9,867000	0,5	2,680050
9,875333	0,5	2,687550
9,883667	0,5	2,699050
9,892000	0,5	2,714600
9,900333	0,5	2,736250
9,908667	0,5	2,759100
9,917000	0,5	2,784600
9,925333	0,5	2,805800
9,933667	0,5	2,819250
9,942000	0,5	2,827400
9,950333	0,5	2,825900
9,958667	0,5	2,829750
9,967000	0,5	2,844600
9,975333	0,5	2,874850
9,983667	0,5	2,919700
9,992000	0,5	2,977800
10,000333	0,5	3,032250
10,008667	0,5	3,082450
10,017000	0,5	3,108300
10,025333	0,5	3,109550
10,033667	0,5	3,098100
10,042000	0,5	3,070300
10,050333	0,5	3,042850
10,058667	0,5	3,018300
10,067000	0,5	2,993450
10,075333	0,5	2,969500
10,083667	0,5	2,941900
10,092000	0,5	2,908900
10,100333	0,5	2,870800
10,108667	0,5	2,833150
10,117000	0,5	2,794800
10,125333	0,5	2,758300
10,133667	0,5	2,737350
10,142000	0,5	2,720500
10,150333	0,5	2,711200
10,158667	0,5	2,714350
10,167000	0,5	2,725750
10,175333	0,5	2,738500
10,183667	0,5	2,757000
10,192000	0,5	2,774350
10,200333	0,5	2,802400
10,208667	0,5	2,829700
10,217000	0,5	2,864850
10,225333	0,5	2,903200
10,233667	0,5	2,942800
10,242000	0,5	2,989200
10,250333	0,5	3,035050
10,258667	0,5	3,085000
10,267000	0,5	3,132250
10,275333	0,5	3,172850
10,283667	0,5	3,186150
10,292000	0,5	3,176950
10,300333	0,5	3,137550
10,308667	0,5	3,085850
10,317000	0,5	3,019750
10,325333	0,5	2,948800
10,333667	0,5	2,881300
10,342000	0,5	2,822750
10,350333	0,5	2,774800
10,358667	0,5	2,735850
10,367000	0,5	2,697550
10,375333	0,5	2,670550
10,383667	0,5	2,649500
10,392000	0,5	2,643250
10,400333	0,5	2,648700
10,408667	0,5	2,660600
10,417000	0,5	2,677950
10,425333	0,5	2,700000
10,433667	0,5	2,722450
10,442000	0,5	2,739750
10,450333	0,5	2,768350
10,458667	0,5	2,800350
10,467000	0,5	2,849750
10,475333	0,5	2,901300
10,483667	0,5	2,960100
10,492000	0,5	3,015550
10,500333	0,5	3,055750
10,508667	0,5	3,061600
10,517000	0,5	3,041150
10,525333	0,5	2,986200
10,533667	0,5	2,917050
10,542000	0,5	2,842000
10,550333	0,5	2,775550
10,558667	0,5	2,718200
10,567000	0,5	2,672750
10,575333	0,5	2,637150
10,583667	0,5	2,607600
10,592000	0,5	2,578850
10,600333	0,5	2,564200
10,608667	0,5	2,556250
10,617000	0,5	2,557950
10,625333	0,5	2,565800
10,633667	0,5	2,582050
10,642000	0,5	2,603500
10,650333	0,5	2,630700
10,658667	0,5	2,670750
10,667000	0,5	2,717000
10,675333	0,5	2,784200
10,683667	0,5	2,852650
10,692000	0,5	2,909550
10,700333	0,5	2,933100
10,708667	0,5	2,919000
10,717000	0,5	2,864500
10,725333	0,5	2,787150
10,733667	0,5	2,695650
10,742000	0,5	2,604300
10,750333	0,5	2,524550
10,758667	0,5	2,463500
10,767000	0,5	2,400850
10,775333	0,5	2,350050
10,783667	0,5	2,310200
10,792000	0,5	2,284700
10,800333	0,5	2,275500
10,808667	0,5	2,280900
10,817000	0,5	2,299050
10,825333	0,5	2,339500
10,833667	0,5	2,407850
10,842000	0,5	2,492950
10,850333	0,5	2,604200
10,858667	0,5	2,710550
10,867000	0,5	2,800350
10,875333	0,5	2,856050
10,883667	0,5	2,849400
10,892000	0,5	2,788100
10,900333	0,5	2,700800
10,908667	0,5	2,600800
10,917000	0,5	2,503750
10,925333	0,5	2,423150
10,933667	0,5	2,357150
10,942000	0,5	2,311950
10,950333	0,5	2,278450
10,958667	0,5	2,253250
10,967000	0,5	2,243600
10,975333	0,5	2,251350
10,983667	0,5	2,274900
10,992000	0,5	2,321300
11,000333	0,5	2,389000
11,008667	0,5	2,478100
11,017000	0,5	2,566400
11,025333	0,5	2,629750
11,033667	0,5	2,634700
11,042000	0,5	2,589900
11,050333	0,5	2,487200
11,058667	0,5	2,339500
11,067000	0,5	2,179850
11,075333	0,5	2,024400
11,083667	0,5	1,887950
11,092000	0,5	1,773600
11,100333	0,5	1,680100
11,108667	0,5	1,619650
11,117000	0,5	1,583750
11,125333	0,5	1,588350
11,133667	0,5	1,626750
11,142000	0,5	1,708750
11,150333	0,5	1,817250
11,158667	0,5	1,939700
11,167000	0,5	2,057100
11,175333	0,5	2,144450
11,183667	0,5	2,189700
11,192000	0,5	2,200500
11,200333	0,5	2,175300
11,208667	0,5	2,126350
11,217000	0,5	2,075150
11,225333	0,5	2,026400
11,233667	0,5	1,991650
11,242000	0,5	1,964700
11,250333	0,5	1,953050
11,258667	0,5	1,945150
11,267000	0,5	1,954850
11,275333	0,5	1,975200
11,283667	0,5	2,006800
11,292000	0,5	2,042450
11,300333	0,5	2,067400
11,308667	0,5	2,085150
11,317000	0,5	2,084350
11,325333	0,5	2,066400
11,333667	0,5	2,034000
11,342000	0,5	2,014000
11,350333	0,5	1,988800
11,358667	0,5	1,964750
11,367000	0,5	1,944750
11,375333	0,5	1,927950
11,383667	0,5	1,924350
11,392000	0,5	1,923800
11,400333	0,5	1,923950
11,408667	0,5	1,939400
11,417000	0,5	1,947850
11,425333	0,5	1,963350
11,433667	0,5	1,969750
11,442000	0,5	1,973900
11,450333	0,5	1,972200
11,458667	0,5	1,966500
11,467000	0,5	1,962950
11,475333	0,5	1,961000
11,483667	0,5	1,964350
11,492000	0,5	1,976500
11,500333	0,5	1,985850
11,508667	0,5	1,995950
11,517000	0,5	2,010150
11,525333	0,5	2,026150
11,533667	0,5	2,039400
11,542000	0,5	2,045750
11,550333	0,5	2,043850
11,558667	0,5	2,039400
11,567000	0,5	2,037050
11,575333	0,5	2,030400
11,583667	0,5	2,034400
11,592000	0,5	2,040850
11,600333	0,5	2,054500
11,608667	0,5	2,065700
11,617000	0,5	2,096600
11,625333	0,5	2,116100
11,633667	0,5	2,148600
11,642000	0,5	2,185700
11,650333	0,5	2,223250
11,658667	0,5	2,261450
11,667000	0,5	2,305150
11,675333	0,5	2,364650
11,683667	0,5	2,444500
11,692000	0,5	2,562450
11,700333	0,5	2,736200
11,708667	0,5	2,978950
11,717000	0,5	3,295850
11,725333	0,5	3,660950
11,733667	0,5	4,035600
11,742000	0,5	4,357550
11,750333	0,5	4,576800
11,758667	0,5	4,669350
11,767000	0,5	4,628100
11,775333	0,5	4,466850
11,783667	0,5	4,231750
11,792000	0,5	3,950000
11,800333	0,5	3,651950
11,808667	0,5	3,360200
11,817000	0,5	3,095450
11,825333	0,5	2,880450
11,833667	0,5	2,710000
11,842000	0,5	2,580700
11,850333	0,5	2,490900
11,858667	0,5	2,444450
11,867000	0,5	2,423900
11,875333	0,5	2,439050
11,883667	0,5	2,477350
11,892000	0,5	2,534950
11,900333	0,5	2,602050
11,908667	0,5	2,662500
11,917000	0,5	2,708500
11,925333	0,5	2,735950
11,933667	0,5	2,748700
11,942000	0,5	2,729600
11,950333	0,5	2,700350
11,958667	0,5	2,650350
11,967000	0,5	2,606350
11,975333	0,5	2,560750
11,983667	0,5	2,529100
11,992000	0,5	2,493600
12,000333	0,5	2,472450
12,008667	0,5	2,448350
12,017000	0,5	2,435650
12,025333	0,5	2,419250
12,033667	0,5	2,404850
12,042000	0,5	2,391100
12,050333	0,5	2,379850
12,058667	0,5	2,378300
12,067000	0,5	2,373900
12,075333	0,5	2,380900
12,083667	0,5	2,388200
12,092000	0,5	2,389200
12,100333	0,5	2,387200
12,108667	0,5	2,378750
12,117000	0,5	2,378500
12,125333	0,5	2,376800
12,133667	0,5	2,373450
12,142000	0,5	2,373450
12,150333	0,5	2,366050
12,158667	0,5	2,363200
12,167000	0,5	2,360800
12,175333	0,5	2,357800
12,183667	0,5	2,353900
12,192000	0,5	2,345050
12,200333	0,5	2,342300
12,208667	0,5	2,334800
12,217000	0,5	2,319000
12,225333	0,5	2,316400
12,233667	0,5	2,307600
12,242000	0,5	2,298950
12,250333	0,5	2,284750
12,258667	0,5	2,269000
12,267000	0,5	2,263600
12,275333	0,5	2,257350
12,283667	0,5	2,255650
12,292000	0,5	2,247900
12,300333	0,5	2,245450
12,308667	0,5	2,243850
12,317000	0,5	2,252600
12,325333	0,5	2,251950
12,333667	0,5	2,254850
12,342000	0,5	2,255750
12,350333	0,5	2,260700
12,358667	0,5	2,259600
12,367000	0,5	2,254350
12,375333	0,5	2,264200
12,383667	0,5	2,271150
12,392000	0,5	2,277550
12,400333	0,5	2,293650
12,408667	0,5	2,308050
12,417000	0,5	2,331900
12,425333	0,5	2,358600
12,433667	0,5	2,382450
12,442000	0,5	2,409550
12,450333	0,5	2,453050
12,458667	0,5	2,497750
12,467000	0,5	2,544600
12,475333	0,5	2,592450
12,483667	0,5	2,632700
12,492000	0,5	2,676400
12,500333	0,5	2,715400
12,508667	0,5	2,750900
12,517000	0,5	2,781350
12,525333	0,5	2,819600
12,533667	0,5	2,861250
12,542000	0,5	2,910050
12,550333	0,5	2,954750
12,558667	0,5	3,003200
12,567000	0,5	3,061350
12,575333	0,5	3,123750
12,583667	0,5	3,181850
12,592000	0,5	3,241600
12,600333	0,5	3,284800
12,608667	0,5	3,324800
12,617000	0,5	3,360600
12,625333	0,5	3,383300
12,633667	0,5	3,389200
12,642000	0,5	3,368700
12,650333	0,5	3,332100
12,658667	0,5	3,281100
12,667000	0,5	3,249350
12,675333	0,5	3,211600
12,683667	0,5	3,170400
12,692000	0,5	3,115100
12,700333	0,5	3,053050
12,708667	0,5	2,971850
12,717000	0,5	2,888050
12,725333	0,5	2,802050
12,733667	0,5	2,733300
12,742000	0,5	2,689600
12,750333	0,5	2,684650
12,758667	0,5	2,712800
12,767000	0,5	2,781900
12,775333	0,5	2,866650
12,783667	0,5	2,929050
12,792000	0,5	2,961000
12,800333	0,5	2,954650
12,808667	0,5	2,957800
12,817000	0,5	3,098350
12,825333	0,5	3,424750
12,833667	0,5	3,682400
12,842000	0,5	3,913100
12,850333	0,5	4,122850
12,858667	0,5	3,988200
12,867000	0,5	3,548050
12,875333	0,5	2,980350
12,883667	0,5	2,249350
12,892000	0,5	1,647250
12,900333	0,5	1,202500
12,908667	0,5	0,880950
12,917000	0,5	0,642850
12,925333	0,5	0,477000
12,933667	0,5	0,356800
12,942000	0,5	0,265850
12,950333	0,5	0,183750
12,958667	0,5	0,127800
12,967000	0,5	0,084400
12,975333	0,5	0,043450
12,983667	0,5	0,008900
12,992000	0,5	-0,021100
13,000333	0,5	-0,035450
13,008667	0,5	-0,046250
13,017000	0,5	-0,039850
13,025333	0,5	-0,037700
13,033667	0,5	-0,023800
13,042000	0,5	-0,007350
13,050333	0,5	0,009300
13,058667	0,5	0,014050
13,067000	0,5	0,021350
13,075333	0,5	0,017750
13,083667	0,5	0,008850
13,092000	0,5	-0,010500
13,100333	0,5	-0,041650
13,108667	0,5	-0,070750
13,117000	0,5	-0,100250
13,125333	0,5	-0,137850
13,133667	0,5	-0,176100
13,142000	0,5	-0,218100
13,150333	0,5	-0,243250
13,158667	0,5	-0,268450
13,167000	0,5	-0,287600
13,175333	0,5	-0,307100
13,183667	0,5	-0,322250
13,192000	0,5	-0,330250
13,200333	0,5	-0,340300
13,208667	0,5	-0,342450
13,217000	0,5	-0,352850
13,225333	0,5	-0,360900
13,233667	0,5	-0,370600
13,242000	0,5	-0,380200
13,250333	0,5	-0,406500
13,258667	0,5	-0,407600
13,267000	0,5	-0,419050
13,275333	0,5	-0,430850
13,283667	0,5	-0,443400
13,292000	0,5	-0,456300
13,300333	0,5	-0,456900
13,308667	0,5	-0,463100
13,317000	0,5	-0,470150
13,325333	0,5	-0,474250
13,333667	0,5	-0,480750
13,342000	0,5	-0,485500
13,350333	0,5	-0,481500
13,358667	0,5	-0,484650
13,367000	0,5	-0,486350
13,375333	0,5	-0,487700
13,383667	0,5	-0,478350
13,392000	0,5	-0,482300
13,400333	0,5	-0,485600
13,408667	0,5	-0,473050
13,417000	0,5	-0,469500
13,425333	0,5	-0,469300
13,433667	0,5	-0,470350
13,442000	0,5	-0,474050
13,450333	0,5	-0,468800
13,458667	0,5	-0,466550
13,467000	0,5	-0,466000
13,475333	0,5	-0,465950
13,483667	0,5	-0,466950
13,492000	0,5	-0,467250
13,500333	0,5	-0,474250
13,508667	0,5	-0,479050
13,517000	0,5	-0,485950
13,525333	0,5	-0,489600
13,533667	0,5	-0,495050
13,542000	0,5	-0,504300
13,550333	0,5	-0,506400
13,558667	0,5	-0,504150
13,567000	0,5	-0,510350
13,575333	0,5	-0,516300
13,583667	0,5	-0,526450
13,592000	0,5	-0,530600
13,600333	0,5	-0,529050
13,608667	0,5	-0,521950
13,617000	0,5	-0,530150
13,625333	0,5	-0,526600
13,633667	0,5	-0,530050
13,642000	0,5	-0,530150
13,650333	0,5	-0,529850
13,658667	0,5	-0,530550
13,667000	0,5	-0,535400
13,675333	0,5	-0,539900
13,683667	0,5	-0,535550
13,692000	0,5	-0,543000
13,700333	0,5	-0,532100
13,708667	0,5	-0,533150
13,717000	0,5	-0,530500
13,725333	0,5	-0,536550
13,733667	0,5	-0,543600
13,742000	0,5	-0,543450
13,750333	0,5	-0,537850
13,758667	0,5	-0,538750
13,767000	0,5	-0,532900
13,775333	0,5	-0,529950
13,783667	0,5	-0,521000
13,792000	0,5	-0,517400
13,800333	0,5	-0,508300
13,808667	0,5	-0,502500
13,817000	0,5	-0,495500
13,825333	0,5	-0,486750
13,833667	0,5	-0,482950
13,842000	0,5	-0,476950
13,850333	0,5	-0,462450
13,858667	0,5	-0,460300
13,867000	0,5	-0,460950
13,875333	0,5	-0,464550
13,883667	0,5	-0,464250
13,892000	0,5	-0,453100
13,900333	0,5	-0,438900
13,908667	0,5	-0,422650
13,917000	0,5	-0,415600
13,925333	0,5	-0,401900
13,933667	0,5	-0,395050
13,942000	0,5	-0,383950
13,950333	0,5	-0,381500
13,958667	0,5	-0,375800
13,967000	0,5	-0,372950
13,975333	0,5	-0,367200
13,983667	0,5	-0,377000
13,992000	0,5	-0,367200
14,000333	0,5	-0,358650
14,008667	0,5	-0,354300
14,017000	0,5	-0,351650
14,025333	0,5	-0,360150
14,033667	0,5	-0,358000
14,042000	0,5	-0,358050
14,050333	0,5	-0,355650
14,058667	0,5	-0,358450
14,067000	0,5	-0,358100
14,075333	0,5	-0,354650
14,083667	0,5	-0,350650
14,092000	0,5	-0,346900
14,100333	0,5	-0,341500
14,108667	0,5	-0,338850
14,117000	0,5	-0,329400
14,125333	0,5	-0,325000
14,133667	0,5	-0,328850
14,142000	0,5	-0,311850
14,150333	0,5	-0,301850
14,158667	0,5	-0,297650
14,167000	0,5	-0,293350
14,175333	0,5	-0,297450
14,183667	0,5	-0,283850
14,192000	0,5	-0,276550
14,200333	0,5	-0,266350
14,208667	0,5	-0,260200
14,217000	0,5	-0,253250
14,225333	0,5	-0,244150
14,233667	0,5	-0,237700
14,242000	0,5	-0,222100
14,250333	0,5	-0,220300
14,258667	0,5	-0,211750
14,267000	0,5	-0,203250
14,275333	0,5	-0,192900
14,283667	0,5	-0,194150
14,292000	0,5	-0,171550
14,300333	0,5	-0,165850
14,308667	0,5	-0,157100
14,317000	0,5	-0,159550
14,325333	0,5	-0,157300
14,333667	0,5	-0,139600
14,342000	0,5	-0,124100
14,350333	0,5	-0,117800
14,358667	0,5	-0,104550
14,367000	0,5	-0,094700
14,375333	0,5	-0,079000
14,383667	0,5	-0,070150
14,392000	0,5	-0,051050
14,400333	0,5	-0,035750
14,408667	0,5	-0,023450
14,417000	0,5	0,004200
14,425333	0,5	0,015750
14,433667	0,5	0,038750
14,442000	0,5	0,076250
14,450333	0,5	0,107200
14,458667	0,5	0,135400
14,467000	0,5	0,170400
14,475333	0,5	0,200700
14,483667	0,5	0,249450
14,492000	0,5	0,273650
14,500333	0,5	0,299900
14,508667	0,5	0,316000
14,517000	0,5	0,328000
14,525333	0,5	0,334950
14,533667	0,5	0,344800
14,542000	0,5	0,354100
14,550333	0,5	0,364550
14,558667	0,5	0,387050
14,567000	0,5	0,418350
14,575333	0,5	0,440500
14,583667	0,5	0,486150
14,592000	0,5	0,528300
14,600333	0,5	0,564650
14,608667	0,5	0,600600
14,617000	0,5	0,640850
14,625333	0,5	0,701300
14,633667	0,5	0,765650
14,642000	0,5	0,831200
14,650333	0,5	0,883700
14,658667	0,5	0,930850
14,667000	0,5	0,947800
14,675333	0,5	0,968800
14,683667	0,5	0,981100
14,692000	0,5	1,009700
14,700333	0,5	1,054250
14,708667	0,5	1,118400
14,717000	0,5	1,187300
14,725333	0,5	1,257650
14,733667	0,5	1,323150
14,742000	0,5	1,354900
14,750333	0,5	1,350900
14,758667	0,5	1,307450
14,767000	0,5	1,248000
14,775333	0,5	1,175800
14,783667	0,5	1,120500
14,792000	0,5	1,068650
14,800333	0,5	1,032000
14,808667	0,5	1,009900
14,817000	0,5	1,001300
14,825333	0,5	1,002800
14,833667	0,5	1,012150
14,842000	0,5	1,014350
14,850333	0,5	1,012250
14,858667	0,5	0,991750
14,867000	0,5	0,956600
14,875333	0,5	0,916700
14,883667	0,5	0,894050
14,892000	0,5	0,862400
14,900333	0,5	0,840100
14,908667	0,5	0,813700
14,917000	0,5	0,803500
14,925333	0,5	0,805900
14,933667	0,5	0,807350
14,942000	0,5	0,811050
14,950333	0,5	0,810000
14,958667	0,5	0,809950
14,967000	0,5	0,809400
14,975333	0,5	0,808500
14,983667	0,5	0,799100
14,992000	0,5	0,797950
15,000333	0,5	0,797200
15,008667	0,5	0,796750
15,017000	0,5	0,772000
15,025333	0,5	0,782150
15,033667	0,5	0,780050
15,042000	0,5	0,770250
15,050333	0,5	0,760250
15,058667	0,5	0,740350
15,067000	0,5	0,738700
15,075333	0,5	0,732150
15,083667	0,5	0,725000
15,092000	0,5	0,718000
15,100333	0,5	0,714200
15,108667	0,5	0,705400
15,117000	0,5	0,695900
15,125333	0,5	0,688350
15,133667	0,5	0,680800
15,142000	0,5	0,672200
15,150333	0,5	0,673750
15,158667	0,5	0,661900
15,167000	0,5	0,644650
15,175333	0,5	0,644900
15,183667	0,5	0,654650
15,192000	0,5	0,646950
15,200333	0,5	0,639150
15,208667	0,5	0,622050
15,217000	0,5	0,628600
15,225333	0,5	0,628950
15,233667	0,5	0,628450
15,242000	0,5	0,624050
15,250333	0,5	0,626250
15,258667	0,5	0,621350
15,267000	0,5	0,622800
15,275333	0,5	0,624400
15,283667	0,5	0,621400
15,292000	0,5	0,623700
15,300333	0,5	0,625050
15,308667	0,5	0,625850
15,317000	0,5	0,624950
15,325333	0,5	0,644050
15,333667	0,5	0,645900
15,342000	0,5	0,645900
15,350333	0,5	0,636350
15,358667	0,5	0,628850
15,367000	0,5	0,630550
15,375333	0,5	0,632750
15,383667	0,5	0,623500
15,392000	0,5	0,628500
15,400333	0,5	0,623800
15,408667	0,5	0,622900
15,417000	0,5	0,621100
15,425333	0,5	0,611100
15,433667	0,5	0,593750
15,442000	0,5	0,579150
15,450333	0,5	0,571100
15,458667	0,5	0,549800
15,467000	0,5	0,547450
15,475333	0,5	0,546200
15,483667	0,5	0,541000
15,492000	0,5	0,529900
15,500333	0,5	0,520750
15,508667	0,5	0,521250
15,517000	0,5	0,536750
15,525333	0,5	0,540900
15,533667	0,5	0,551850
15,542000	0,5	0,547100
15,550333	0,5	0,540150
15,558667	0,5	0,525200
15,567000	0,5	0,514500
15,575333	0,5	0,503700
15,583667	0,5	0,491300
15,592000	0,5	0,495050
15,600333	0,5	0,489900
15,608667	0,5	0,472900
15,617000	0,5	0,481750
15,625333	0,5	0,477750
15,633667	0,5	0,470050
15,642000	0,5	0,455150
15,650333	0,5	0,441250
15,658667	0,5	0,445550
15,667000	0,5	0,446600
15,675333	0,5	0,453300
15,683667	0,5	0,447900
15,692000	0,5	0,452700
15,700333	0,5	0,447650
15,708667	0,5	0,454100
15,717000	0,5	0,451100
15,725333	0,5	0,453200
15,733667	0,5	0,448400
15,742000	0,5	0,455150
15,750333	0,5	0,448050
15,758667	0,5	0,446700
15,767000	0,5	0,450000
15,775333	0,5	0,443700
15,783667	0,5	0,438100
15,792000	0,5	0,425700
15,800333	0,5	0,413950
15,808667	0,5	0,408200
15,817000	0,5	0,418250
15,825333	0,5	0,419700
15,833667	0,5	0,424550
15,842000	0,5	0,423350
15,850333	0,5	0,423350
15,858667	0,5	0,418250
15,867000	0,5	0,412100
15,875333	0,5	0,400900
15,883667	0,5	0,398800
15,892000	0,5	0,393000
15,900333	0,5	0,378300
15,908667	0,5	0,381450
15,917000	0,5	0,393800
15,925333	0,5	0,383850
15,933667	0,5	0,385400
15,942000	0,5	0,364100
15,950333	0,5	0,365050
15,958667	0,5	0,370700
15,967000	0,5	0,369300
15,975333	0,5	0,364000
15,983667	0,5	0,359850
15,992000	0,5	0,359250
16,000333	0,5	0,352100
16,008667	0,5	0,346300
16,017000	0,5	0,338100
16,025333	0,5	0,336900
16,033667	0,5	0,334400
16,042000	0,5	0,337600
16,050333	0,5	0,316450
16,058667	0,5	0,326900
16,067000	0,5	0,320950
16,075333	0,5	0,313450
16,083667	0,5	0,301650
16,092000	0,5	0,285500
16,100333	0,5	0,284450
16,108667	0,5	0,283200
16,117000	0,5	0,274800
16,125333	0,5	0,271850
16,133667	0,5	0,265200
16,142000	0,5	0,262950
16,150333	0,5	0,261550
16,158667	0,5	0,255050
16,167000	0,5	0,246200
16,175333	0,5	0,235200
16,183667	0,5	0,238900
16,192000	0,5	0,222550
16,200333	0,5	0,211700
16,208667	0,5	0,217450
16,217000	0,5	0,215600
16,225333	0,5	0,203350
16,233667	0,5	0,191100
16,242000	0,5	0,177400
16,250333	0,5	0,182450
16,258667	0,5	0,180650
16,267000	0,5	0,186600
16,275333	0,5	0,183800
16,283667	0,5	0,186250
16,292000	0,5	0,182450
16,300333	0,5	0,189200
16,308667	0,5	0,188050
16,317000	0,5	0,186000
16,325333	0,5	0,193050
16,333667	0,5	0,205050
16,342000	0,5	0,196700
16,350333	0,5	0,198100
16,358667	0,5	0,205250
16,367000	0,5	0,196800
16,375333	0,5	0,188950
16,383667	0,5	0,164550
16,392000	0,5	0,162000
16,400333	0,5	0,154350
16,408667	0,5	0,152500
16,417000	0,5	0,140000
16,425333	0,5	0,134700
16,433667	0,5	0,122750
16,442000	0,5	0,120550
16,450333	0,5	0,111000
16,458667	0,5	0,106000
16,467000	0,5	0,099050
16,475333	0,5	0,097950
16,483667	0,5	0,096350
16,492000	0,5	0,084300
16,500333	0,5	0,090900
16,508667	0,5	0,090300
16,517000	0,5	0,090300
16,525333	0,5	0,076250
16,533667	0,5	0,061150
16,542000	0,5	0,052850
16,550333	0,5	0,058450
16,558667	0,5	0,053750
16,567000	0,5	0,057100
16,575333	0,5	0,050350
16,583667	0,5	0,056250
16,592000	0,5	0,050000
16,600333	0,5	0,047900
16,608667	0,5	0,041900
16,617000	0,5	0,036450
16,625333	0,5	0,037750
16,633667	0,5	0,034400
16,642000	0,5	0,023450
16,650333	0,5	0,033600
16,658667	0,5	0,030250
16,667000	0,5	0,024300
16,675333	0,5	0,010250
16,683667	0,5	-0,005150
16,692000	0,5	-0,003700
16,700333	0,5	-0,001650
16,708667	0,5	-0,002200
16,717000	0,5	-0,006750
16,725333	0,5	-0,007100
16,733667	0,5	-0,011300
16,742000	0,5	-0,010050
16,750333	0,5	-0,016600
16,758667	0,5	-0,017350
16,767000	0,5	-0,017250
16,775333	0,5	-0,013650
16,783667	0,5	-0,033800
16,792000	0,5	-0,026300
16,800333	0,5	-0,019400
16,808667	0,5	-0,027500
16,817000	0,5	-0,029600
16,825333	0,5	-0,041800
16,833667	0,5	-0,041150
16,842000	0,5	-0,040600
16,850333	0,5	-0,032800
16,858667	0,5	-0,033950
16,867000	0,5	-0,026200
16,875333	0,5	-0,025600
16,883667	0,5	-0,019900
16,892000	0,5	-0,019550
16,900333	0,5	-0,018000
16,908667	0,5	-0,021600
16,917000	0,5	-0,014800
16,925333	0,5	-0,020900
16,933667	0,5	-0,033100
16,942000	0,5	-0,026850
16,950333	0,5	-0,023700
16,958667	0,5	-0,028250
16,967000	0,5	-0,041450
16,975333	0,5	-0,062450
16,983667	0,5	-0,062450
16,992000	0,5	-0,066450
17,000333	0,5	-0,068350
17,008667	0,5	-0,075550
17,017000	0,5	-0,083100
17,025333	0,5	-0,089750
17,033667	0,5	-0,094050
17,042000	0,5	-0,091850
17,050333	0,5	-0,098050
17,058667	0,5	-0,094650
17,067000	0,5	-0,096500
17,075333	0,5	-0,098100
17,083667	0,5	-0,104200
17,092000	0,5	-0,086350
17,100333	0,5	-0,088150
17,108667	0,5	-0,086000
17,117000	0,5	-0,099550
17,125333	0,5	-0,106500
17,133667	0,5	-0,100450
17,142000	0,5	-0,094850
17,150333	0,5	-0,096500
17,158667	0,5	-0,087100
17,167000	0,5	-0,083200
17,175333	0,5	-0,067300
17,183667	0,5	-0,043000
17,192000	0,5	-0,007550
17,200333	0,5	0,049950
17,208667	0,5	0,112200
17,217000	0,5	0,192200
17,225333	0,5	0,242450
17,233667	0,5	0,297450
17,242000	0,5	0,319350
17,250333	0,5	0,304250
17,258667	0,5	0,252100
17,267000	0,5	0,175700
17,275333	0,5	0,108350
17,283667	0,5	0,055250
17,292000	0,5	-0,000300
17,300333	0,5	-0,029800
17,308667	0,5	-0,061600
17,317000	0,5	-0,069950
17,325333	0,5	-0,081000
17,333667	0,5	-0,079700
17,342000	0,5	-0,083700
17,350333	0,5	-0,079300
17,358667	0,5	-0,070700
17,367000	0,5	-0,059300
17,375333	0,5	-0,069150
17,383667	0,5	-0,050150
17,392000	0,5	-0,037050
17,400333	0,5	-0,031200
17,408667	0,5	-0,023600
17,417000	0,5	-0,027550
17,425333	0,5	-0,004750
17,433667	0,5	0,017500
17,442000	0,5	0,048100
17,450333	0,5	0,071400
17,458667	0,5	0,110450
17,467000	0,5	0,152400
17,475333	0,5	0,214600
17,483667	0,5	0,273950
17,492000	0,5	0,342750
17,500333	0,5	0,408900
17,508667	0,5	0,478400
17,517000	0,5	0,525450
17,525333	0,5	0,560600
17,533667	0,5	0,596200
17,542000	0,5	0,601100
17,550333	0,5	0,588400
17,558667	0,5	0,550750
17,567000	0,5	0,505450
17,575333	0,5	0,464950
17,583667	0,5	0,425450
17,592000	0,5	0,382250
17,600333	0,5	0,346350
17,608667	0,5	0,308400
17,617000	0,5	0,282300
17,625333	0,5	0,254350
17,633667	0,5	0,230250
17,642000	0,5	0,209350
17,650333	0,5	0,203450
17,658667	0,5	0,190300
17,667000	0,5	0,174950
17,675333	0,5	0,173250
17,683667	0,5	0,178900
17,692000	0,5	0,166400
17,700333	0,5	0,150050
17,708667	0,5	0,129050
17,717000	0,5	0,115650
17,725333	0,5	0,113000
17,733667	0,5	0,106150
17,742000	0,5	0,105600
17,750333	0,5	0,098850
17,758667	0,5	0,098750
17,767000	0,5	0,096050
17,775333	0,5	0,097700
17,783667	0,5	0,096350
17,792000	0,5	0,104350
17,800333	0,5	0,116700
17,808667	0,5	0,132200
17,817000	0,5	0,138600
17,825333	0,5	0,190800
17,833667	0,5	0,242300
17,842000	0,5	0,307100
17,850333	0,5	0,373500
17,858667	0,5	0,438500
17,867000	0,5	0,502350
17,875333	0,5	0,529200
17,883667	0,5	0,523250
17,892000	0,5	0,476000
17,900333	0,5	0,405200
17,908667	0,5	0,316950
17,917000	0,5	0,232200
17,925333	0,5	0,155300
17,933667	0,5	0,088800
17,942000	0,5	0,038900
17,950333	0,5	0,013550
17,958667	0,5	-0,029850
17,967000	0,5	-0,046800
17,975333	0,5	-0,060700
17,983667	0,5	-0,065050
17,992000	0,5	-0,084550
18,000333	0,5	-0,106800
18,008667	0,5	-0,127300
18,017000	0,5	-0,124950
18,025333	0,5	-0,136550
18,033667	0,5	-0,141050
18,042000	0,5	-0,149650
18,050333	0,5	-0,155100
18,058667	0,5	-0,158950
18,067000	0,5	-0,159450
18,075333	0,5	-0,166500
18,083667	0,5	-0,171750
18,092000	0,5	-0,175850
18,100333	0,5	-0,174800
18,108667	0,5	-0,189950
18,117000	0,5	-0,187350
18,125333	0,5	-0,189100
18,133667	0,5	-0,198200
18,142000	0,5	-0,213650
18,150333	0,5	-0,236350
18,158667	0,5	-0,243800
18,167000	0,5	-0,247900
18,175333	0,5	-0,256650
18,183667	0,5	-0,271000
18,192000	0,5	-0,274350
18,200333	0,5	-0,287900
18,208667	0,5	-0,286200
18,217000	0,5	-0,291100
18,225333	0,5	-0,300100
18,233667	0,5	-0,301500
18,242000	0,5	-0,302950
18,250333	0,5	-0,299450
18,258667	0,5	-0,321550
18,267000	0,5	-0,311350
18,275333	0,5	-0,320850
18,283667	0,5	-0,322700
18,292000	0,5	-0,344450
18,300333	0,5	-0,368850
18,308667	0,5	-0,375200
18,317000	0,5	-0,378150
18,325333	0,5	-0,390150
18,333667	0,5	-0,395600
18,342000	0,5	-0,406400
18,350333	0,5	-0,412200
18,358667	0,5	-0,423150
18,367000	0,5	-0,431200
18,375333	0,5	-0,440800
18,383667	0,5	-0,449150
18,392000	0,5	-0,447250
18,400333	0,5	-0,458800
18,408667	0,5	-0,477000
18,417000	0,5	-0,474700
18,425333	0,5	-0,486950
18,433667	0,5	-0,503150
18,442000	0,5	-0,515950
18,450333	0,5	-0,540700
18,458667	0,5	-0,539150
18,467000	0,5	-0,546900
18,475333	0,5	-0,548300
18,483667	0,5	-0,559600
18,492000	0,5	-0,558700
18,500333	0,5	-0,567850
18,508667	0,5	-0,566700
18,517000	0,5	-0,568200
18,525333	0,5	-0,573900
18,533667	0,5	-0,570450
18,542000	0,5	-0,575700
18,550333	0,5	-0,596650
18,558667	0,5	-0,600850
18,567000	0,5	-0,596650
18,575333	0,5	-0,607050
18,583667	0,5	-0,617350
18,592000	0,5	-0,641450
18,600333	0,5	-0,651000
18,608667	0,5	-0,659350
18,617000	0,5	-0,655850
18,625333	0,5	-0,661000
18,633667	0,5	-0,659200
18,642000	0,5	-0,659850
18,650333	0,5	-0,661300
18,658667	0,5	-0,666600
18,667000	0,5	-0,665950
18,675333	0,5	-0,672450
18,683667	0,5	-0,661800
18,692000	0,5	-0,673000
18,700333	0,5	-0,682750
18,708667	0,5	-0,673900
18,717000	0,5	-0,670500
18,725333	0,5	-0,676450
18,733667	0,5	-0,684750
18,742000	0,5	-0,697500
18,750333	0,5	-0,698200
18,758667	0,5	-0,687050
18,767000	0,5	-0,680350
18,775333	0,5	-0,673100
18,783667	0,5	-0,668850
18,792000	0,5	-0,661700
18,800333	0,5	-0,651100
18,808667	0,5	-0,639250
18,817000	0,5	-0,632050
18,825333	0,5	-0,614050
18,833667	0,5	-0,591500
18,842000	0,5	-0,580400
18,850333	0,5	-0,563650
18,858667	0,5	-0,531000
18,867000	0,5	-0,512650
18,875333	0,5	-0,495250
18,883667	0,5	-0,491850
18,892000	0,5	-0,473700
18,900333	0,5	-0,450250
18,908667	0,5	-0,433750
18,917000	0,5	-0,418200
18,925333	0,5	-0,404700
18,933667	0,5	-0,387850
18,942000	0,5	-0,386000
18,950333	0,5	-0,370650
18,958667	0,5	-0,372350
18,967000	0,5	-0,372450
18,975333	0,5	-0,374950
18,983667	0,5	-0,369350
18,992000	0,5	-0,403100
19,000333	0,5	-0,401000
19,008667	0,5	-0,412450
19,017000	0,5	-0,425350
19,025333	0,5	-0,452350
19,033667	0,5	-0,485000
19,042000	0,5	-0,498150
19,050333	0,5	-0,507150
19,058667	0,5	-0,524300
19,067000	0,5	-0,540000
19,075333	0,5	-0,556000
19,083667	0,5	-0,575750
19,092000	0,5	-0,587000
19,100333	0,5	-0,607100
19,108667	0,5	-0,617950
19,117000	0,5	-0,633600
19,125333	0,5	-0,632700
19,133667	0,5	-0,642550
19,142000	0,5	-0,672350
19,150333	0,5	-0,676750
19,158667	0,5	-0,691250
19,167000	0,5	-0,706500
19,175333	0,5	-0,727650
19,183667	0,5	-0,759000
19,192000	0,5	-0,756000
19,200333	0,5	-0,764600
19,208667	0,5	-0,768500
19,217000	0,5	-0,776350
19,225333	0,5	-0,778150
19,233667	0,5	-0,778000
19,242000	0,5	-0,773550
19,250333	0,5	-0,762900
19,258667	0,5	-0,760450
19,267000	0,5	-0,743500
19,275333	0,5	-0,719400
19,283667	0,5	-0,698550
19,292000	0,5	-0,672100
19,300333	0,5	-0,610750
19,308667	0,5	-0,559700
19,317000	0,5	-0,490500
19,325333	0,5	-0,435350
19,333667	0,5	-0,369100
19,342000	0,5	-0,304350
19,350333	0,5	-0,260250
19,358667	0,5	-0,251500
19,367000	0,5	-0,259800
19,375333	0,5	-0,303300
19,383667	0,5	-0,354100
19,392000	0,5	-0,424250
19,400333	0,5	-0,498350
19,408667	0,5	-0,571300
19,417000	0,5	-0,630800
19,425333	0,5	-0,682450
19,433667	0,5	-0,739800
19,442000	0,5	-0,772500
19,450333	0,5	-0,796450
19,458667	0,5	-0,822950
19,467000	0,5	-0,852200
19,475333	0,5	-0,879050
19,483667	0,5	-0,897250
19,492000	0,5	-0,898700
19,500333	0,5	-0,913550
19,508667	0,5	-0,918400
19,517000	0,5	-0,934550
19,525333	0,5	-0,940350
19,533667	0,5	-0,955850
19,542000	0,5	-0,965350
19,550333	0,5	-0,978950
19,558667	0,5	-0,984250
19,567000	0,5	-0,977500
19,575333	0,5	-0,984150
19,583667	0,5	-0,996400
19,592000	0,5	-0,992650
19,600333	0,5	-0,992050
19,608667	0,5	-0,993200
19,617000	0,5	-1,007450
19,625333	0,5	-1,022300
19,633667	0,5	-1,021900
19,642000	0,5	-1,033600
19,650333	0,5	-1,030550
19,658667	0,5	-1,038450
19,667000	0,5	-1,039500
19,675333	0,5	-1,051600
19,683667	0,5	-1,055150
19,692000	0,5	-1,067300
19,700333	0,5	-1,076450
19,708667	0,5	-1,076750
19,717000	0,5	-1,072250
19,725333	0,5	-1,086100
19,733667	0,5	-1,081450
19,742000	0,5	-1,075500
19,750333	0,5	-1,073200
19,758667	0,5	-1,075600
19,767000	0,5	-1,102100
19,775333	0,5	-1,103700
19,783667	0,5	-1,119300
19,792000	0,5	-1,130900
19,800333	0,5	-1,150800
19,808667	0,5	-1,157950
19,817000	0,5	-1,171950
19,825333	0,5	-1,173600
19,833667	0,5	-1,186800
19,842000	0,5	-1,190000
19,850333	0,5	-1,199500
19,858667	0,5	-1,187650
19,867000	0,5	-1,191700
19,875333	0,5	-1,211450
19,883667	0,5	-1,204600
19,892000	0,5	-1,207400
19,900333	0,5	-1,216350
19,908667	0,5	-1,231550
19,917000	0,5	-1,253350
19,925333	0,5	-1,252750
19,933667	0,5	-1,255200
19,942000	0,5	-1,265500
19,950333	0,5	-1,268400
19,958667	0,5	-1,277850
19,967000	0,5	-1,274500
19,975333	0,5	-1,280600
19,983667	0,5	-1,281600
19,992000	0,5	-1,289750
20,000333	0,5	-1,287600
20,008667	0,5	-1,281850
20,017000	0,5	-1,288200
20,025333	0,5	-1,309550
20,033667	0,5	-1,301600
20,042000	0,5	-1,306900
20,050333	0,5	-1,313150
20,058667	0,5	-1,328100
20,067000	0,5	-1,348050
20,075333	0,5	-1,343250
20,083667	0,5	-1,346800
20,092000	0,5	-1,351350
20,100333	0,5	-1,362250
20,108667	0,5	-1,361100
20,117000	0,5	-1,371600
20,125333	0,5	-1,371950
20,133667	0,5	-1,376100
20,142000	0,5	-1,380300
20,150333	0,5	-1,373250
20,158667	0,5	-1,363650
20,167000	0,5	-1,379700
20,175333	0,5	-1,376300
20,183667	0,5	-1,372450
20,192000	0,5	-1,373600
20,200333	0,5	-1,387150
20,208667	0,5	-1,402850
20,217000	0,5	-1,404250
20,225333	0,5	-1,400650
20,233667	0,5	-1,401050
20,242000	0,5	-1,398700
20,250333	0,5	-1,393100
20,258667	0,5	-1,393800
20,267000	0,5	-1,394050
20,275333	0,5	-1,390700
20,283667	0,5	-1,380500
20,292000	0,5	-1,382500
20,300333	0,5	-1,361300
20,308667	0,5	-1,359300
20,317000	0,5	-1,365950
20,325333	0,5	-1,362000
20,333667	0,5	-1,367050
20,342000	0,5	-1,373950
20,350333	0,5	-1,390000
20,358667	0,5	-1,405500
20,367000	0,5	-1,412300
20,375333	0,5	-1,409950
20,383667	0,5	-1,408650
20,392000	0,5	-1,410850
20,400333	0,5	-1,404100
20,408667	0,5	-1,403000
20,417000	0,5	-1,402950
20,425333	0,5	-1,397600
20,433667	0,5	-1,398250
20,442000	0,5	-1,383400
20,450333	0,5	-1,368150
20,458667	0,5	-1,361950
20,467000	0,5	-1,369050
20,475333	0,5	-1,360200
20,483667	0,5	-1,366600
20,492000	0,5	-1,366600
20,500333	0,5	-1,390750
20,508667	0,5	-1,396250
20,517000	0,5	-1,391500
20,525333	0,5	-1,379750
20,533667	0,5	-1,373600
20,542000	0,5	-1,361450
20,550333	0,5	-1,354100
20,558667	0,5	-1,344750
20,567000	0,5	-1,335750
20,575333	0,5	-1,334050
20,583667	0,5	-1,332650
20,592000	0,5	-1,319750
20,600333	0,5	-1,310500
20,608667	0,5	-1,326000
20,617000	0,5	-1,326900
20,625333	0,5	-1,331800
20,633667	0,5	-1,336450
20,642000	0,5	-1,353500
20,650333	0,5	-1,369600
20,658667	0,5	-1,366550
20,667000	0,5	-1,365800
20,675333	0,5	-1,371150
20,683667	0,5	-1,366450
20,692000	0,5	-1,364250
20,700333	0,5	-1,361150
20,708667	0,5	-1,357350
20,717000	0,5	-1,356900
20,725333	0,5	-1,353800
20,733667	0,5	-1,345350
20,742000	0,5	-1,313600
20,750333	0,5	-1,297150
20,758667	0,5	-1,302300
20,767000	0,5	-1,308350
20,775333	0,5	-1,314800
20,783667	0,5	-1,343150
20,792000	0,5	-1,370750
20,800333	0,5	-1,388350
20,808667	0,5	-1,390800
20,817000	0,5	-1,396550
20,825333	0,5	-1,394650
20,833667	0,5	-1,399000
20,842000	0,5	-1,395150
20,850333	0,5	-1,396250
20,858667	0,5	-1,390700
20,867000	0,5	-1,388150
20,875333	0,5	-1,389850
20,883667	0,5	-1,366000
20,892000	0,5	-1,347250
20,900333	0,5	-1,347500
20,908667	0,5	-1,353350
20,917000	0,5	-1,353400
20,925333	0,5	-1,360100
20,933667	0,5	-1,366250
20,942000	0,5	-1,384600
20,950333	0,5	-1,375950
20,958667	0,5	-1,370450
20,967000	0,5	-1,364700
20,975333	0,5	-1,365450
20,983667	0,5	-1,353250
20,992000	0,5	-1,344500
21,000333	0,5	-1,339100
21,008667	0,5	-1,325850
21,017000	0,5	-1,320800
21,025333	0,5	-1,314100
21,033667	0,5	-1,287350
21,042000	0,5	-1,272500
21,050333	0,5	-1,283300
21,058667	0,5	-1,279600
21,067000	0,5	-1,287550
21,075333	0,5	-1,287850
21,083667	0,5	-1,298150
21,092000	0,5	-1,306700
21,100333	0,5	-1,294450
21,108667	0,5	-1,289600
21,117000	0,5	-1,297850
21,125333	0,5	-1,292450
21,133667	0,5	-1,291300
21,142000	0,5	-1,285800
21,150333	0,5	-1,282450
21,158667	0,5	-1,281600
21,167000	0,5	-1,282200
21,175333	0,5	-1,265700
21,183667	0,5	-1,246850
21,192000	0,5	-1,235100
21,200333	0,5	-1,238300
21,208667	0,5	-1,239500
21,217000	0,5	-1,245200
21,225333	0,5	-1,249500
21,233667	0,5	-1,253050
21,242000	0,5	-1,259500
21,250333	0,5	-1,240850
21,258667	0,5	-1,236350
21,267000	0,5	-1,226750
21,275333	0,5	-1,228450
21,283667	0,5	-1,214100
21,292000	0,5	-1,208100
21,300333	0,5	-1,195200
21,308667	0,5	-1,188300
21,317000	0,5	-1,180000
21,325333	0,5	-1,143950
21,333667	0,5	-1,116500
21,342000	0,5	-1,107500
21,350333	0,5	-1,102400
21,358667	0,5	-1,100250
21,367000	0,5	-1,105350
21,375333	0,5	-1,108900
21,383667	0,5	-1,117800
21,392000	0,5	-1,113300
21,400333	0,5	-1,105350
21,408667	0,5	-1,087050
21,417000	0,5	-1,080600
21,425333	0,5	-1,054850
21,433667	0,5	-1,039700
21,442000	0,5	-1,005050
21,450333	0,5	-0,957700
21,458667	0,5	-0,885050
21,467000	0,5	-0,803000
21,475333	0,5	-0,711250
21,483667	0,5	-0,671700
21,492000	0,5	-0,689200
21,500333	0,5	-0,730700
21,508667	0,5	-0,787850
21,517000	0,5	-0,828200
21,525333	0,5	-0,863400
21,533667	0,5	-0,864850
21,542000	0,5	-0,866800
21,550333	0,5	-0,845450
21,558667	0,5	-0,829150
21,567000	0,5	-0,803700
21,575333	0,5	-0,777700
21,583667	0,5	-0,739700
21,592000	0,5	-0,689900
21,600333	0,5	-0,614050
21,608667	0,5	-0,518700
21,617000	0,5	-0,395100
21,625333	0,5	-0,306800
21,633667	0,5	-0,287800
21,642000	0,5	-0,324900
21,650333	0,5	-0,385900
21,658667	0,5	-0,452150
21,667000	0,5	-0,505250
21,675333	0,5	-0,542100
21,683667	0,5	-0,544500
21,692000	0,5	-0,526050
21,700333	0,5	-0,516250
21,708667	0,5	-0,506850
21,717000	0,5	-0,510400
21,725333	0,5	-0,516250
21,733667	0,5	-0,523350
21,742000	0,5	-0,517450
21,750333	0,5	-0,516800
21,758667	0,5	-0,501300
21,767000	0,5	-0,456850
21,775333	0,5	-0,429900
21,783667	0,5	-0,408100
21,792000	0,5	-0,379450
21,800333	0,5	-0,350950
21,808667	0,5	-0,332650
21,817000	0,5	-0,319650
21,825333	0,5	-0,305950
21,833667	0,5	-0,270300
21,842000	0,5	-0,256050
21,850333	0,5	-0,230900
21,858667	0,5	-0,213050
21,867000	0,5	-0,180800
21,875333	0,5	-0,160400
21,883667	0,5	-0,129800
21,892000	0,5	-0,114150
21,900333	0,5	-0,093450
21,908667	0,5	-0,061300
21,917000	0,5	-0,028050
21,925333	0,5	-0,026450
21,933667	0,5	0,005900
21,942000	0,5	0,026800
21,950333	0,5	0,045600
21,958667	0,5	0,065300
21,967000	0,5	0,065600
21,975333	0,5	0,104250
21,983667	0,5	0,124000
21,992000	0,5	0,156150
22,000333	0,5	0,180050
22,008667	0,5	0,219200
22,017000	0,5	0,250000
22,025333	0,5	0,291500
22,033667	0,5	0,328800
22,042000	0,5	0,370600
22,050333	0,5	0,412000
22,058667	0,5	0,458550
22,067000	0,5	0,489550
22,075333	0,5	0,507100
22,083667	0,5	0,552400
22,092000	0,5	0,580200
22,100333	0,5	0,612600
22,108667	0,5	0,644050
22,117000	0,5	0,682200
22,125333	0,5	0,746400
22,133667	0,5	0,821550
22,142000	0,5	0,877750
22,150333	0,5	0,930450
22,158667	0,5	0,974050
22,167000	0,5	1,025400
22,175333	0,5	1,069700
22,183667	0,5	1,130900
22,192000	0,5	1,185700
22,200333	0,5	1,239950
22,208667	0,5	1,297900
22,217000	0,5	1,352600
22,225333	0,5	1,408950
22,233667	0,5	1,468800
22,242000	0,5	1,509500
22,250333	0,5	1,552900
22,258667	0,5	1,600200
22,267000	0,5	1,641250
22,275333	0,5	1,714750
22,283667	0,5	1,769600
22,292000	0,5	1,840300
22,300333	0,5	1,901500
22,308667	0,5	1,959200
22,317000	0,5	2,007900
22,325333	0,5	2,057100
22,333667	0,5	2,092550
22,342000	0,5	2,144100
22,350333	0,5	2,187400
22,358667	0,5	2,244500
22,367000	0,5	2,310450
22,375333	0,5	2,394850
22,383667	0,5	2,460700
22,392000	0,5	2,529350
22,400333	0,5	2,579700
22,408667	0,5	2,644050
22,417000	0,5	2,716500
22,425333	0,5	2,785400
22,433667	0,5	2,857500
22,442000	0,5	2,920800
22,450333	0,5	3,000850
22,458667	0,5	3,071950
22,467000	0,5	3,156050
22,475333	0,5	3,225350
22,483667	0,5	3,298450
22,492000	0,5	3,353700
22,500333	0,5	3,419550
22,508667	0,5	3,474200
22,517000	0,5	3,563250
22,525333	0,5	3,630650
22,533667	0,5	3,688200
22,542000	0,5	3,738800
22,550333	0,5	3,772950
22,558667	0,5	3,822900
22,567000	0,5	3,865150
22,575333	0,5	3,905600
22,583667	0,5	3,927950
22,592000	0,5	3,950950
22,600333	0,5	3,960750
22,608667	0,5	3,977350
22,617000	0,5	3,979600
22,625333	0,5	3,982600
22,633667	0,5	3,966350
22,642000	0,5	3,920000
22,650333	0,5	3,894300
22,658667	0,5	3,868050
22,667000	0,5	3,848050
22,675333	0,5	3,805700
22,683667	0,5	3,743850
22,692000	0,5	3,666650
22,700333	0,5	3,561850
22,708667	0,5	3,464500
22,717000	0,5	3,364100
22,725333	0,5	3,251800
22,733667	0,5	3,141050
22,742000	0,5	3,028650
22,750333	0,5	2,918950
22,758667	0,5	2,800650
22,767000	0,5	2,677250
22,775333	0,5	2,540650
22,783667	0,5	2,398850
22,792000	0,5	2,202300
22,800333	0,5	2,059900
22,808667	0,5	1,907900
22,817000	0,5	1,741250
22,825333	0,5	1,563750
22,833667	0,5	1,390800
22,842000	0,5	1,215000
22,850333	0,5	1,042800
22,858667	0,5	0,868950
22,867000	0,5	0,706150
22,875333	0,5	0,540300
22,883667	0,5	0,387300
22,892000	0,5	0,232550
22,900333	0,5	0,082350
22,908667	0,5	-0,072300
22,917000	0,5	-0,217200
22,925333	0,5	-0,367250
22,933667	0,5	-0,490250
22,942000	0,5	-0,630400
22,950333	0,5	-0,775050
22,958667	0,5	-0,935750
22,967000	0,5	-1,057900
22,975333	0,5	-1,179750
22,983667	0,5	-1,277000
22,992000	0,5	-1,374250
23,000333	0,5	-1,475500
23,008667	0,5	-1,563950
23,017000	0,5	-1,645900
23,025333	0,5	-1,714150
23,033667	0,5	-1,788650
23,042000	0,5	-1,851450
23,050333	0,5	-1,919600
23,058667	0,5	-1,978100
23,067000	0,5	-2,041450
23,075333	0,5	-2,088950
23,083667	0,5	-2,128600
23,092000	0,5	-2,175300
23,100333	0,5	-2,235950
23,108667	0,5	-2,299300
23,117000	0,5	-2,339650
23,125333	0,5	-2,367050
23,133667	0,5	-2,385050
23,142000	0,5	-2,392850
23,150333	0,5	-2,411150
23,158667	0,5	-2,415150
23,167000	0,5	-2,418700
23,175333	0,5	-2,415800
23,183667	0,5	-2,411700
23,192000	0,5	-2,404700
23,200333	0,5	-2,401550
23,208667	0,5	-2,395200
23,217000	0,5	-2,386600
23,225333	0,5	-2,372800
23,233667	0,5	-2,394700
23,242000	0,5	-2,354750
23,250333	0,5	-2,361200
23,258667	0,5	-2,384300
23,267000	0,5	-2,372350
23,275333	0,5	-2,361900
23,283667	0,5	-2,335300
23,292000	0,5	-2,314700
23,300333	0,5	-2,294150
23,308667	0,5	-2,272800
23,317000	0,5	-2,244550
23,325333	0,5	-2,215850
23,333667	0,5	-2,179600
23,342000	0,5	-2,153450
23,350333	0,5	-2,117900
23,358667	0,5	-2,091000
23,367000	0,5	-2,063400
23,375333	0,5	-2,058550
23,383667	0,5	-2,038700
23,392000	0,5	-1,996300
23,400333	0,5	-1,967750
23,408667	0,5	-1,968300
23,417000	0,5	-1,955450
23,425333	0,5	-1,936200
23,433667	0,5	-1,916200
23,442000	0,5	-1,902700
23,450333	0,5	-1,885700
23,458667	0,5	-1,866000
23,467000	0,5	-1,849100
23,475333	0,5	-1,826850
23,483667	0,5	-1,807650
23,492000	0,5	-1,788600
23,500333	0,5	-1,769400
23,508667	0,5	-1,747600
23,517000	0,5	-1,733000
23,525333	0,5	-1,798800
23,533667	0,5	-1,760000
23,542000	0,5	-1,714050
23,550333	0,5	-1,671750
23,558667	0,5	-1,667650
23,567000	0,5	-1,661600
23,575333	0,5	-1,656000
23,583667	0,5	-1,648600
23,592000	0,5	-1,637000
23,600333	0,5	-1,630750
23,608667	0,5	-1,621150
23,617000	0,5	-1,612850
23,625333	0,5	-1,606900
23,633667	0,5	-1,600100
23,642000	0,5	-1,592250
23,650333	0,5	-1,589100
23,658667	0,5	-1,586150
23,667000	0,5	-1,627500
23,675333	0,5	-1,688550
23,683667	0,5	-1,676600
23,692000	0,5	-1,615400
23,700333	0,5	-1,595400
23,708667	0,5	-1,590750
23,717000	0,5	-1,591800
23,725333	0,5	-1,597350
23,733667	0,5	-1,598750
23,742000	0,5	-1,588050
23,750333	0,5	-1,581900
23,758667	0,5	-1,575400
23,767000	0,5	-1,560500
23,775333	0,5	-1,552750
23,783667	0,5	-1,543050
23,792000	0,5	-1,536000
23,800333	0,5	-1,526700
23,808667	0,5	-1,524250
23,817000	0,5	-1,641300
23,825333	0,5	-1,630050
23,833667	0,5	-1,605050
23,842000	0,5	-1,559600
23,850333	0,5	-1,530850
23,858667	0,5	-1,527700
23,867000	0,5	-1,527050
23,875333	0,5	-1,541650
23,883667	0,5	-1,538650
23,892000	0,5	-1,525900
23,900333	0,5	-1,518100
23,908667	0,5	-1,514100
23,917000	0,5	-1,505200
23,925333	0,5	-1,499400
23,933667	0,5	-1,490550
23,942000	0,5	-1,475800
23,950333	0,5	-1,470950
23,958667	0,5	-1,467050
23,967000	0,5	-1,584650
23,975333	0,5	-1,525900
23,983667	0,5	-1,505900
23,992000	0,5	-1,441500
24,000333	0,5	-1,426150
24,008667	0,5	-1,408350
24,017000	0,5	-1,411950
24,025333	0,5	-1,417900
24,033667	0,5	-1,400800
24,042000	0,5	-1,378200
24,050333	0,5	-1,366950
24,058667	0,5	-1,352300
24,067000	0,5	-1,336700
24,075333	0,5	-1,324400
24,083667	0,5	-1,308200
24,092000	0,5	-1,294600
24,100333	0,5	-1,280600
24,108667	0,5	-1,323150
24,117000	0,5	-1,375400
24,125333	0,5	-1,342400
24,133667	0,5	-1,306600
24,142000	0,5	-1,264450
24,150333	0,5	-1,247700
24,158667	0,5	-1,236750
24,167000	0,5	-1,236000
24,175333	0,5	-1,243550
24,183667	0,5	-1,222350
24,192000	0,5	-1,210600
24,200333	0,5	-1,182900
24,208667	0,5	-1,171400
24,217000	0,5	-1,145800
24,225333	0,5	-1,128200
24,233667	0,5	-1,105350
24,242000	0,5	-1,085050
24,250333	0,5	-1,072100
24,258667	0,5	-1,122700
24,267000	0,5	-1,116200
24,275333	0,5	-1,088750
24,283667	0,5	-1,043450
24,292000	0,5	-1,008400
24,300333	0,5	-0,999800
24,308667	0,5	-0,986950
24,317000	0,5	-0,997150
24,325333	0,5	-0,990400
24,333667	0,5	-0,981900
24,342000	0,5	-0,954100
24,350333	0,5	-0,945600
24,358667	0,5	-0,930300
24,367000	0,5	-0,920700
24,375333	0,5	-0,900750
24,383667	0,5	-0,890850
24,392000	0,5	-0,876550
24,400333	0,5	-0,867950
24,408667	0,5	-0,907550
24,417000	0,5	-0,892450
24,425333	0,5	-0,871500
24,433667	0,5	-0,834050
24,442000	0,5	-0,809300
24,450333	0,5	-0,797200
24,458667	0,5	-0,791950
24,467000	0,5	-0,788050
24,475333	0,5	-0,774250
24,483667	0,5	-0,751750
24,492000	0,5	-0,744150
24,500333	0,5	-0,725050
24,508667	0,5	-0,711250
24,517000	0,5	-0,694150
24,525333	0,5	-0,680850
24,533667	0,5	-0,663650
24,542000	0,5	-0,659750
24,550333	0,5	-0,668000
24,558667	0,5	-0,684550
24,567000	0,5	-0,668050
24,575333	0,5	-0,651000
24,583667	0,5	-0,624400
24,592000	0,5	-0,611350
24,600333	0,5	-0,606150
24,608667	0,5	-0,607350
24,617000	0,5	-0,605150
24,625333	0,5	-0,589000
24,633667	0,5	-0,579000
24,642000	0,5	-0,567000
24,650333	0,5	-0,557350
24,658667	0,5	-0,543200
24,667000	0,5	-0,533600
24,675333	0,5	-0,514450
24,683667	0,5	-0,505950
24,692000	0,5	-0,496800
24,700333	0,5	-0,513350
24,708667	0,5	-0,495150
24,717000	0,5	-0,490350
24,725333	0,5	-0,466450
24,733667	0,5	-0,450300
24,742000	0,5	-0,439150
24,750333	0,5	-0,438350
24,758667	0,5	-0,438600
24,767000	0,5	-0,432850
24,775333	0,5	-0,417600
24,783667	0,5	-0,414200
24,792000	0,5	-0,405250
24,800333	0,5	-0,399800
24,808667	0,5	-0,390850
24,817000	0,5	-0,381700
24,825333	0,5	-0,372550
24,833667	0,5	-0,363300
24,842000	0,5	-0,360950
24,850333	0,5	-0,373250
24,858667	0,5	-0,361100
24,867000	0,5	-0,353000
24,875333	0,5	-0,338000
24,883667	0,5	-0,327700
24,892000	0,5	-0,320100
24,900333	0,5	-0,313850
24,908667	0,5	-0,314700
24,917000	0,5	-0,307600
24,925333	0,5	-0,297150
24,933667	0,5	-0,287300
24,942000	0,5	-0,282700
24,950333	0,5	-0,270100
24,958667	0,5	-0,264200
24,967000	0,5	-0,256650
24,975333	0,5	-0,251150
24,983667	0,5	-0,244450
24,992000	0,5	-0,242150
25,000333	0,5	-0,246000
25,008667	0,5	-0,238150
25,017000	0,5	-0,233750
25,025333	0,5	-0,223950
25,033667	0,5	-0,219350
25,042000	0,5	-0,215500
25,050333	0,5	-0,217350
25,058667	0,5	-0,217850
25,067000	0,5	-0,214300
25,075333	0,5	-0,207850
25,083667	0,5	-0,202050
25,092000	0,5	-0,197300
25,100333	0,5	-0,192600
25,108667	0,5	-0,184550
25,117000	0,5	-0,173750
25,125333	0,5	-0,170350
25,133667	0,5	-0,162700
25,142000	0,5	-0,161600
25,150333	0,5	-0,157000
25,158667	0,5	-0,151600
25,167000	0,5	-0,148100
25,175333	0,5	-0,142850
25,183667	0,5	-0,136750
25,192000	0,5	-0,134000
25,200333	0,5	-0,132200
25,208667	0,5	-0,135900
25,217000	0,5	-0,130900
25,225333	0,5	-0,128700
25,233667	0,5	-0,128700
25,242000	0,5	-0,125700
25,250333	0,5	-0,123750
25,258667	0,5	-0,120750
25,267000	0,5	-0,118900
25,275333	0,5	-0,116950
25,283667	0,5	-0,114100
25,292000	0,5	-0,110850
25,300333	0,5	-0,107050
25,308667	0,5	-0,102950
25,317000	0,5	-0,101300
25,325333	0,5	-0,095800
25,333667	0,5	-0,093200
25,342000	0,5	-0,092300
25,350333	0,5	-0,089300
25,358667	0,5	-0,086900
25,367000	0,5	-0,083200
25,375333	0,5	-0,080200
25,383667	0,5	-0,080650
25,392000	0,5	-0,077400
25,400333	0,5	-0,075000
25,408667	0,5	-0,073100
25,417000	0,5	-0,072300
25,425333	0,5	-0,068150
25,433667	0,5	-0,069100
25,442000	0,5	-0,068400
25,450333	0,5	-0,066200
25,458667	0,5	-0,063600
25,467000	0,5	-0,066750
25,475333	0,5	-0,066300
25,483667	0,5	-0,065300
25,492000	0,5	-0,065000
25,500333	0,5	-0,060700
25,508667	0,5	-0,057400
25,517000	0,5	-0,055650
25,525333	0,5	-0,057550
25,533667	0,5	-0,053750
25,542000	0,5	-0,048350
25,550333	0,5	-0,050600
25,558667	0,5	-0,045700
25,567000	0,5	-0,044250
25,575333	0,5	-0,043400
25,583667	0,5	-0,037150
25,592000	0,5	-0,036950
25,600333	0,5	-0,034550
25,608667	0,5	-0,031900
25,617000	0,5	-0,035750
25,625333	0,5	-0,033350
25,633667	0,5	-0,030700
25,642000	0,5	-0,024150
25,650333	0,5	-0,021500
25,658667	0,5	-0,020050
25,667000	0,5	-0,021650
25,675333	0,5	-0,018350
25,683667	0,5	-0,016450
25,692000	0,5	-0,012500
25,700333	0,5	-0,011600
25,708667	0,5	-0,012450
25,717000	0,5	-0,006950
25,725333	0,5	-0,003400
25,733667	0,5	0,003200
25,742000	0,5	-0,002150
25,750333	0,5	0,007400
25,758667	0,5	0,006400
25,767000	0,5	0,004650
25,775333	0,5	0,006450
25,783667	0,5	0,012100
25,792000	0,5	0,018050
25,800333	0,5	0,021300
25,808667	0,5	0,014850
25,817000	0,5	0,022000
25,825333	0,5	0,019600
25,833667	0,5	0,024100
25,842000	0,5	0,023300
25,850333	0,5	0,022700
25,858667	0,5	0,023300
25,867000	0,5	0,022950
25,875333	0,5	0,022500
25,883667	0,5	0,023350
25,892000	0,5	0,023950
25,900333	0,5	0,033900
25,908667	0,5	0,026950
25,917000	0,5	0,025000
25,925333	0,5	0,029200
25,933667	0,5	0,035900
25,942000	0,5	0,049050
25,950333	0,5	0,048250
25,958667	0,5	0,051300
25,967000	0,5	0,048800
25,975333	0,5	0,051400
25,983667	0,5	0,051100
25,992000	0,5	0,051950
26,000333	0,5	0,049450
