File Path	chrom://chromeleon01/ikbm_chromeleon/2022/ICS-5000/ED1/Esteban/20220612_Cell_7_4_eg.seq/380.smp/ED_1.channel/ED_1.chm
Channel	ED_1

Injection Information:
Data Vault	ikbm_chromeleon
Injection	C-NE_24h-EGS_
Injection Number	36
Position	RD6
Comment	
Processing Method	Stop sequence after Cell Death
Instrument Method	ICS5000_PA200_FullNative_Ox_26min_ED1
Type	Unknown
Status	Finished
Injection Date	13.06.2022
Injection Time	08:43:51
Injection Volume (µl)	5,0
Dilution Factor	1,0000
Weight	1,0000

Chromatogram Data Information:
Time Min. (min)	0,000333
Time Max. (min)	26,000333
Data Points	3121
Detector	EDet1
Generating Data System	Chromeleon 7.2.9.11323
Exporting Data System	Chromeleon 7.2.9.0
Operator	Instrument Controller
Signal Quantity	
Signal Unit	nC
Signal Min.	-1,852050
Signal Max.	149,289352
Channel	ED_1
Driver Name	DC-5000
Channel Type	Evaluation
Min. Step (s)	0,5
Max. Step (s)	0,5
Average Step (s)	0,5

Signal Parameter Information:
Signal Info	

Chromatogram Data:
Time (min)	Step (s)	Value (nC)
0,000333	n.a.	-0,049800
0,008667	0,5	-0,049300
0,017000	0,5	-0,044100
0,025333	0,5	-0,038650
0,033667	0,5	-0,022500
0,042000	0,5	-0,039750
0,050333	0,5	-0,037050
0,058667	0,5	-0,031300
0,067000	0,5	-0,010900
0,075333	0,5	-0,000250
0,083667	0,5	0,001200
0,092000	0,5	0,005800
0,100333	0,5	0,001750
0,108667	0,5	-0,001150
0,117000	0,5	-0,001000
0,125333	0,5	0,002200
0,133667	0,5	-0,008350
0,142000	0,5	-0,003650
0,150333	0,5	-0,005900
0,158667	0,5	-0,006600
0,167000	0,5	-0,024800
0,175333	0,5	-0,004400
0,183667	0,5	-0,007200
0,192000	0,5	-0,017350
0,200333	0,5	-0,021000
0,208667	0,5	-0,015100
0,217000	0,5	0,002000
0,225333	0,5	0,012100
0,233667	0,5	0,003650
0,242000	0,5	0,004450
0,250333	0,5	0,012000
0,258667	0,5	0,008800
0,267000	0,5	0,003400
0,275333	0,5	-0,001450
0,283667	0,5	-0,000100
0,292000	0,5	0,014100
0,300333	0,5	0,038700
0,308667	0,5	0,012550
0,317000	0,5	-0,010300
0,325333	0,5	-0,010800
0,333667	0,5	-0,024050
0,342000	0,5	-0,028800
0,350333	0,5	-0,025550
0,358667	0,5	-0,026700
0,367000	0,5	-0,004100
0,375333	0,5	-0,008000
0,383667	0,5	-0,002900
0,392000	0,5	-0,007800
0,400333	0,5	-0,001850
0,408667	0,5	-0,009100
0,417000	0,5	-0,008450
0,425333	0,5	-0,010150
0,433667	0,5	-0,013350
0,442000	0,5	-0,008300
0,450333	0,5	-0,012100
0,458667	0,5	-0,017300
0,467000	0,5	-0,022150
0,475333	0,5	-0,005500
0,483667	0,5	-0,025100
0,492000	0,5	-0,029050
0,500333	0,5	-0,028450
0,508667	0,5	-0,021300
0,517000	0,5	-0,004250
0,525333	0,5	-0,006650
0,533667	0,5	-0,014750
0,542000	0,5	-0,003500
0,550333	0,5	-0,007950
0,558667	0,5	-0,007000
0,567000	0,5	-0,011000
0,575333	0,5	-0,010750
0,583667	0,5	-0,016150
0,592000	0,5	-0,016200
0,600333	0,5	-0,011900
0,608667	0,5	-0,024250
0,617000	0,5	-0,024600
0,625333	0,5	-0,006900
0,633667	0,5	-0,020400
0,642000	0,5	-0,026500
0,650333	0,5	-0,020400
0,658667	0,5	-0,014700
0,667000	0,5	0,008600
0,675333	0,5	-0,008250
0,683667	0,5	-0,000850
0,692000	0,5	-0,002800
0,700333	0,5	0,001950
0,708667	0,5	-0,007800
0,717000	0,5	-0,002950
0,725333	0,5	-0,005300
0,733667	0,5	-0,000450
0,742000	0,5	-0,004450
0,750333	0,5	-0,010450
0,758667	0,5	-0,021800
0,767000	0,5	-0,005800
0,775333	0,5	-0,011450
0,783667	0,5	-0,020100
0,792000	0,5	-0,017800
0,800333	0,5	-0,009450
0,808667	0,5	0,005400
0,817000	0,5	0,019000
0,825333	0,5	0,020500
0,833667	0,5	0,014950
0,842000	0,5	0,018400
0,850333	0,5	0,012900
0,858667	0,5	0,016600
0,867000	0,5	0,009750
0,875333	0,5	0,012050
0,883667	0,5	0,007450
0,892000	0,5	0,010750
0,900333	0,5	0,004300
0,908667	0,5	0,004450
0,917000	0,5	0,017800
0,925333	0,5	0,013000
0,933667	0,5	-0,000600
0,942000	0,5	0,006250
0,950333	0,5	0,013100
0,958667	0,5	0,029300
0,967000	0,5	0,040350
0,975333	0,5	0,037400
0,983667	0,5	0,034550
0,992000	0,5	0,032550
1,000333	0,5	0,032400
1,008667	0,5	0,035750
1,017000	0,5	0,037600
1,025333	0,5	0,029200
1,033667	0,5	0,031000
1,042000	0,5	0,029000
1,050333	0,5	0,029200
1,058667	0,5	0,030750
1,067000	0,5	0,043150
1,075333	0,5	0,024650
1,083667	0,5	0,024700
1,092000	0,5	0,021550
1,100333	0,5	0,041200
1,108667	0,5	0,056050
1,117000	0,5	0,058500
1,125333	0,5	0,052350
1,133667	0,5	0,058000
1,142000	0,5	0,053000
1,150333	0,5	0,052850
1,158667	0,5	0,053300
1,167000	0,5	0,052100
1,175333	0,5	0,051300
1,183667	0,5	0,049300
1,192000	0,5	0,049050
1,200333	0,5	0,037200
1,208667	0,5	0,054450
1,217000	0,5	0,050000
1,225333	0,5	0,042950
1,233667	0,5	0,041250
1,242000	0,5	0,044200
1,250333	0,5	0,059450
1,258667	0,5	0,068450
1,267000	0,5	0,063300
1,275333	0,5	0,067350
1,283667	0,5	0,063450
1,292000	0,5	0,071450
1,300333	0,5	0,067150
1,308667	0,5	0,063750
1,317000	0,5	0,057500
1,325333	0,5	0,059600
1,333667	0,5	0,056650
1,342000	0,5	0,044450
1,350333	0,5	0,035950
1,358667	0,5	0,055650
1,367000	0,5	0,042650
1,375333	0,5	0,038600
1,383667	0,5	0,038750
1,392000	0,5	0,041700
1,400333	0,5	0,061450
1,408667	0,5	0,051150
1,417000	0,5	0,055450
1,425333	0,5	0,043850
1,433667	0,5	0,051950
1,442000	0,5	0,040300
1,450333	0,5	0,043900
1,458667	0,5	0,038550
1,467000	0,5	0,036550
1,475333	0,5	0,035850
1,483667	0,5	0,037950
1,492000	0,5	0,026900
1,500333	0,5	0,020800
1,508667	0,5	0,031950
1,517000	0,5	0,012300
1,525333	0,5	0,007100
1,533667	0,5	0,004600
1,542000	0,5	0,009750
1,550333	0,5	0,038150
1,558667	0,5	0,052150
1,567000	0,5	0,059850
1,575333	0,5	-0,047700
1,583667	0,5	-0,148200
1,592000	0,5	0,888900
1,600333	0,5	5,532050
1,608667	0,5	19,370300
1,617000	0,5	50,545701
1,625333	0,5	96,315201
1,633667	0,5	135,530602
1,642000	0,5	149,289352
1,650333	0,5	136,724452
1,658667	0,5	110,136552
1,667000	0,5	82,313051
1,675333	0,5	59,987051
1,683667	0,5	44,227351
1,692000	0,5	33,652951
1,700333	0,5	26,574350
1,708667	0,5	21,699850
1,717000	0,5	18,297950
1,725333	0,5	15,899900
1,733667	0,5	14,217700
1,742000	0,5	13,078150
1,750333	0,5	12,489850
1,758667	0,5	12,526100
1,767000	0,5	13,123300
1,775333	0,5	13,866100
1,783667	0,5	14,338600
1,792000	0,5	14,306650
1,800333	0,5	13,873500
1,808667	0,5	13,203300
1,817000	0,5	12,445750
1,825333	0,5	11,694000
1,833667	0,5	11,087450
1,842000	0,5	10,812600
1,850333	0,5	11,011300
1,858667	0,5	11,501800
1,867000	0,5	11,829800
1,875333	0,5	11,798650
1,883667	0,5	11,885100
1,892000	0,5	12,833700
1,900333	0,5	15,381450
1,908667	0,5	20,353050
1,917000	0,5	28,722350
1,925333	0,5	41,165601
1,933667	0,5	55,582551
1,942000	0,5	65,815251
1,950333	0,5	66,782601
1,958667	0,5	60,071301
1,967000	0,5	50,980201
1,975333	0,5	43,315351
1,983667	0,5	38,398801
1,992000	0,5	36,638801
2,000333	0,5	39,100401
2,008667	0,5	47,401401
2,017000	0,5	58,926451
2,025333	0,5	65,605001
2,033667	0,5	63,862201
2,042000	0,5	57,603701
2,050333	0,5	49,743101
2,058667	0,5	40,989551
2,067000	0,5	32,864800
2,075333	0,5	26,784700
2,083667	0,5	22,868800
2,092000	0,5	20,466250
2,100333	0,5	18,873550
2,108667	0,5	17,662250
2,117000	0,5	16,689850
2,125333	0,5	15,876300
2,133667	0,5	15,190650
2,142000	0,5	14,608100
2,150333	0,5	14,124600
2,158667	0,5	13,719450
2,167000	0,5	13,403100
2,175333	0,5	13,154700
2,183667	0,5	12,984400
2,192000	0,5	12,907700
2,200333	0,5	12,934000
2,208667	0,5	13,143550
2,217000	0,5	13,799650
2,225333	0,5	15,180750
2,233667	0,5	15,702600
2,242000	0,5	14,628100
2,250333	0,5	13,464600
2,258667	0,5	12,930600
2,267000	0,5	12,707700
2,275333	0,5	12,572350
2,283667	0,5	12,509900
2,292000	0,5	12,553500
2,300333	0,5	12,731650
2,308667	0,5	13,117000
2,317000	0,5	13,808050
2,325333	0,5	15,058350
2,333667	0,5	17,012250
2,342000	0,5	19,471800
2,350333	0,5	21,773100
2,358667	0,5	23,276550
2,367000	0,5	23,743750
2,375333	0,5	23,502450
2,383667	0,5	23,130600
2,392000	0,5	23,154150
2,400333	0,5	23,771750
2,408667	0,5	25,241950
2,417000	0,5	27,949750
2,425333	0,5	32,452000
2,433667	0,5	39,117051
2,442000	0,5	47,187401
2,450333	0,5	54,223751
2,458667	0,5	57,054701
2,467000	0,5	54,418701
2,475333	0,5	47,964051
2,483667	0,5	40,710951
2,492000	0,5	35,052001
2,500333	0,5	32,240250
2,508667	0,5	32,452050
2,517000	0,5	34,601101
2,525333	0,5	36,552751
2,533667	0,5	36,583151
2,542000	0,5	34,371801
2,550333	0,5	30,690850
2,558667	0,5	26,617550
2,567000	0,5	22,906950
2,575333	0,5	19,916600
2,583667	0,5	17,718900
2,592000	0,5	16,158850
2,600333	0,5	15,076500
2,608667	0,5	14,320900
2,617000	0,5	13,783600
2,625333	0,5	13,405650
2,633667	0,5	13,189700
2,642000	0,5	13,202850
2,650333	0,5	13,485150
2,658667	0,5	13,998650
2,667000	0,5	14,509400
2,675333	0,5	14,712450
2,683667	0,5	14,436900
2,692000	0,5	13,784550
2,700333	0,5	12,967800
2,708667	0,5	12,270000
2,717000	0,5	11,799950
2,725333	0,5	11,582700
2,733667	0,5	11,609700
2,742000	0,5	11,911450
2,750333	0,5	12,680850
2,758667	0,5	14,220050
2,767000	0,5	16,613250
2,775333	0,5	19,361450
2,783667	0,5	21,392350
2,792000	0,5	21,778550
2,800333	0,5	20,417050
2,808667	0,5	17,972250
2,817000	0,5	15,361650
2,825333	0,5	13,189550
2,833667	0,5	11,646500
2,842000	0,5	10,583950
2,850333	0,5	9,852450
2,858667	0,5	9,323350
2,867000	0,5	8,930600
2,875333	0,5	8,621800
2,883667	0,5	8,380300
2,892000	0,5	8,160950
2,900333	0,5	7,990350
2,908667	0,5	7,831200
2,917000	0,5	7,686050
2,925333	0,5	7,535050
2,933667	0,5	7,392350
2,942000	0,5	7,248750
2,950333	0,5	7,118300
2,958667	0,5	6,996200
2,967000	0,5	6,872600
2,975333	0,5	6,757000
2,983667	0,5	6,651950
2,992000	0,5	6,529550
3,000333	0,5	6,405850
3,008667	0,5	6,290550
3,017000	0,5	6,176300
3,025333	0,5	6,085300
3,033667	0,5	5,989900
3,042000	0,5	5,887950
3,050333	0,5	5,780300
3,058667	0,5	5,672550
3,067000	0,5	5,562200
3,075333	0,5	5,458250
3,083667	0,5	5,354900
3,092000	0,5	5,265800
3,100333	0,5	5,185650
3,108667	0,5	5,103200
3,117000	0,5	5,019050
3,125333	0,5	4,935700
3,133667	0,5	4,845750
3,142000	0,5	4,740300
3,150333	0,5	4,643950
3,158667	0,5	4,553050
3,167000	0,5	4,483900
3,175333	0,5	4,413750
3,183667	0,5	4,349950
3,192000	0,5	4,282350
3,200333	0,5	4,218450
3,208667	0,5	4,144150
3,217000	0,5	4,072600
3,225333	0,5	4,001650
3,233667	0,5	3,931700
3,242000	0,5	3,860800
3,250333	0,5	3,799600
3,258667	0,5	3,738950
3,267000	0,5	3,682050
3,275333	0,5	3,638100
3,283667	0,5	3,588800
3,292000	0,5	3,531550
3,300333	0,5	3,483050
3,308667	0,5	3,435650
3,317000	0,5	3,412000
3,325333	0,5	3,375700
3,333667	0,5	3,338850
3,342000	0,5	3,317900
3,350333	0,5	3,302800
3,358667	0,5	3,301050
3,367000	0,5	3,304050
3,375333	0,5	3,322200
3,383667	0,5	3,339750
3,392000	0,5	3,369950
3,400333	0,5	3,386750
3,408667	0,5	3,399750
3,417000	0,5	3,398100
3,425333	0,5	3,427500
3,433667	0,5	3,434900
3,442000	0,5	3,482750
3,450333	0,5	3,570250
3,458667	0,5	3,724400
3,467000	0,5	3,942600
3,475333	0,5	4,188550
3,483667	0,5	4,439450
3,492000	0,5	4,649900
3,500333	0,5	4,755700
3,508667	0,5	4,734000
3,517000	0,5	4,591750
3,525333	0,5	4,348050
3,533667	0,5	4,057650
3,542000	0,5	3,760550
3,550333	0,5	3,507200
3,558667	0,5	3,281200
3,567000	0,5	3,117250
3,575333	0,5	3,005700
3,583667	0,5	2,904600
3,592000	0,5	2,831750
3,600333	0,5	2,779450
3,608667	0,5	2,746500
3,617000	0,5	2,738450
3,625333	0,5	2,727700
3,633667	0,5	2,736350
3,642000	0,5	2,755150
3,650333	0,5	2,787450
3,658667	0,5	2,809500
3,667000	0,5	2,833650
3,675333	0,5	2,849350
3,683667	0,5	2,846800
3,692000	0,5	2,835600
3,700333	0,5	2,819250
3,708667	0,5	2,796950
3,717000	0,5	2,771800
3,725333	0,5	2,747250
3,733667	0,5	2,709800
3,742000	0,5	2,688900
3,750333	0,5	2,674500
3,758667	0,5	2,671350
3,767000	0,5	2,674950
3,775333	0,5	2,672800
3,783667	0,5	2,656750
3,792000	0,5	2,648400
3,800333	0,5	2,628300
3,808667	0,5	2,600850
3,817000	0,5	2,565600
3,825333	0,5	2,530950
3,833667	0,5	2,503500
3,842000	0,5	2,477450
3,850333	0,5	2,459950
3,858667	0,5	2,442000
3,867000	0,5	2,438850
3,875333	0,5	2,435750
3,883667	0,5	2,418850
3,892000	0,5	2,417900
3,900333	0,5	2,418150
3,908667	0,5	2,415450
3,917000	0,5	2,412250
3,925333	0,5	2,386950
3,933667	0,5	2,368800
3,942000	0,5	2,338450
3,950333	0,5	2,318900
3,958667	0,5	2,296200
3,967000	0,5	2,276900
3,975333	0,5	2,256350
3,983667	0,5	2,239600
3,992000	0,5	2,221800
4,000333	0,5	2,221650
4,008667	0,5	2,185950
4,017000	0,5	2,183150
4,025333	0,5	2,165500
4,033667	0,5	2,155650
4,042000	0,5	2,145400
4,050333	0,5	2,144400
4,058667	0,5	2,148150
4,067000	0,5	2,146550
4,075333	0,5	2,142850
4,083667	0,5	2,135050
4,092000	0,5	2,129650
4,100333	0,5	2,123150
4,108667	0,5	2,118650
4,117000	0,5	2,105150
4,125333	0,5	2,094750
4,133667	0,5	2,085450
4,142000	0,5	2,073300
4,150333	0,5	2,055750
4,158667	0,5	2,053250
4,167000	0,5	2,043200
4,175333	0,5	2,024350
4,183667	0,5	2,006450
4,192000	0,5	1,998100
4,200333	0,5	1,996050
4,208667	0,5	2,000250
4,217000	0,5	1,996000
4,225333	0,5	1,989100
4,233667	0,5	1,983650
4,242000	0,5	1,971200
4,250333	0,5	1,958950
4,258667	0,5	1,935400
4,267000	0,5	1,911350
4,275333	0,5	1,875750
4,283667	0,5	1,842650
4,292000	0,5	1,803700
4,300333	0,5	1,761850
4,308667	0,5	1,731050
4,317000	0,5	1,693250
4,325333	0,5	1,652250
4,333667	0,5	1,620500
4,342000	0,5	1,596200
4,350333	0,5	1,590400
4,358667	0,5	1,577850
4,367000	0,5	1,560000
4,375333	0,5	1,543150
4,383667	0,5	1,533150
4,392000	0,5	1,523850
4,400333	0,5	1,509300
4,408667	0,5	1,491550
4,417000	0,5	1,472900
4,425333	0,5	1,463000
4,433667	0,5	1,448550
4,442000	0,5	1,445400
4,450333	0,5	1,438000
4,458667	0,5	1,461200
4,467000	0,5	1,457150
4,475333	0,5	1,469700
4,483667	0,5	1,480400
4,492000	0,5	1,498100
4,500333	0,5	1,520000
4,508667	0,5	1,522250
4,517000	0,5	1,514800
4,525333	0,5	1,509550
4,533667	0,5	1,493700
4,542000	0,5	1,476400
4,550333	0,5	1,459750
4,558667	0,5	1,442950
4,567000	0,5	1,433350
4,575333	0,5	1,430600
4,583667	0,5	1,436600
4,592000	0,5	1,441100
4,600333	0,5	1,463350
4,608667	0,5	1,513900
4,617000	0,5	1,561500
4,625333	0,5	1,636100
4,633667	0,5	1,742300
4,642000	0,5	1,876550
4,650333	0,5	2,039100
4,658667	0,5	2,188550
4,667000	0,5	2,340550
4,675333	0,5	2,453800
4,683667	0,5	2,530150
4,692000	0,5	2,540250
4,700333	0,5	2,488900
4,708667	0,5	2,378100
4,717000	0,5	2,238600
4,725333	0,5	2,074250
4,733667	0,5	1,908600
4,742000	0,5	1,755450
4,750333	0,5	1,629550
4,758667	0,5	1,520200
4,767000	0,5	1,425300
4,775333	0,5	1,359950
4,783667	0,5	1,310050
4,792000	0,5	1,278450
4,800333	0,5	1,258400
4,808667	0,5	1,233500
4,817000	0,5	1,211400
4,825333	0,5	1,198400
4,833667	0,5	1,186700
4,842000	0,5	1,188850
4,850333	0,5	1,188400
4,858667	0,5	1,197200
4,867000	0,5	1,212750
4,875333	0,5	1,245600
4,883667	0,5	1,279000
4,892000	0,5	1,318500
4,900333	0,5	1,367450
4,908667	0,5	1,405850
4,917000	0,5	1,430300
4,925333	0,5	1,445200
4,933667	0,5	1,450700
4,942000	0,5	1,444800
4,950333	0,5	1,416800
4,958667	0,5	1,370300
4,967000	0,5	1,325600
4,975333	0,5	1,272300
4,983667	0,5	1,227450
4,992000	0,5	1,182550
5,000333	0,5	1,153450
5,008667	0,5	1,125300
5,017000	0,5	1,111500
5,025333	0,5	1,106150
5,033667	0,5	1,107250
5,042000	0,5	1,116850
5,050333	0,5	1,135100
5,058667	0,5	1,136500
5,067000	0,5	1,145950
5,075333	0,5	1,155900
5,083667	0,5	1,163000
5,092000	0,5	1,166700
5,100333	0,5	1,162050
5,108667	0,5	1,142750
5,117000	0,5	1,119100
5,125333	0,5	1,097350
5,133667	0,5	1,072300
5,142000	0,5	1,050000
5,150333	0,5	1,026200
5,158667	0,5	1,006650
5,167000	0,5	0,988650
5,175333	0,5	0,976300
5,183667	0,5	0,960950
5,192000	0,5	0,958700
5,200333	0,5	0,949300
5,208667	0,5	0,936150
5,217000	0,5	0,922450
5,225333	0,5	0,916050
5,233667	0,5	0,918950
5,242000	0,5	0,923700
5,250333	0,5	0,918850
5,258667	0,5	0,916000
5,267000	0,5	0,913450
5,275333	0,5	0,914900
5,283667	0,5	0,912750
5,292000	0,5	0,917100
5,300333	0,5	0,915350
5,308667	0,5	0,916750
5,317000	0,5	0,919550
5,325333	0,5	0,917700
5,333667	0,5	0,916200
5,342000	0,5	0,922100
5,350333	0,5	0,920600
5,358667	0,5	0,908000
5,367000	0,5	0,904300
5,375333	0,5	0,900850
5,383667	0,5	0,908200
5,392000	0,5	0,900450
5,400333	0,5	0,894600
5,408667	0,5	0,888650
5,417000	0,5	0,888200
5,425333	0,5	0,887550
5,433667	0,5	0,885500
5,442000	0,5	0,881500
5,450333	0,5	0,879250
5,458667	0,5	0,879950
5,467000	0,5	0,878550
5,475333	0,5	0,883250
5,483667	0,5	0,875300
5,492000	0,5	0,881550
5,500333	0,5	0,867950
5,508667	0,5	0,860550
5,517000	0,5	0,851300
5,525333	0,5	0,848900
5,533667	0,5	0,853200
5,542000	0,5	0,845000
5,550333	0,5	0,834800
5,558667	0,5	0,834500
5,567000	0,5	0,825700
5,575333	0,5	0,821600
5,583667	0,5	0,812100
5,592000	0,5	0,806300
5,600333	0,5	0,798650
5,608667	0,5	0,793200
5,617000	0,5	0,788450
5,625333	0,5	0,784600
5,633667	0,5	0,776450
5,642000	0,5	0,779800
5,650333	0,5	0,763700
5,658667	0,5	0,757050
5,667000	0,5	0,749750
5,675333	0,5	0,748000
5,683667	0,5	0,755600
5,692000	0,5	0,748300
5,700333	0,5	0,749400
5,708667	0,5	0,747400
5,717000	0,5	0,751900
5,725333	0,5	0,756350
5,733667	0,5	0,764250
5,742000	0,5	0,763850
5,750333	0,5	0,769800
5,758667	0,5	0,773350
5,767000	0,5	0,779250
5,775333	0,5	0,774600
5,783667	0,5	0,780550
5,792000	0,5	0,785250
5,800333	0,5	0,782350
5,808667	0,5	0,788300
5,817000	0,5	0,798150
5,825333	0,5	0,819650
5,833667	0,5	0,844300
5,842000	0,5	0,867700
5,850333	0,5	0,899400
5,858667	0,5	0,939750
5,867000	0,5	0,984950
5,875333	0,5	1,041950
5,883667	0,5	1,097000
5,892000	0,5	1,154800
5,900333	0,5	1,199650
5,908667	0,5	1,240100
5,917000	0,5	1,257800
5,925333	0,5	1,264650
5,933667	0,5	1,251450
5,942000	0,5	1,223250
5,950333	0,5	1,178500
5,958667	0,5	1,129050
5,967000	0,5	1,081700
5,975333	0,5	1,038500
5,983667	0,5	0,993250
5,992000	0,5	0,949450
6,000333	0,5	0,907000
6,008667	0,5	0,871300
6,017000	0,5	0,840550
6,025333	0,5	0,809950
6,033667	0,5	0,785850
6,042000	0,5	0,761150
6,050333	0,5	0,743800
6,058667	0,5	0,730100
6,067000	0,5	0,716050
6,075333	0,5	0,704350
6,083667	0,5	0,695750
6,092000	0,5	0,677450
6,100333	0,5	0,667650
6,108667	0,5	0,654750
6,117000	0,5	0,654000
6,125333	0,5	0,651450
6,133667	0,5	0,645750
6,142000	0,5	0,639550
6,150333	0,5	0,638650
6,158667	0,5	0,634750
6,167000	0,5	0,634550
6,175333	0,5	0,636250
6,183667	0,5	0,634900
6,192000	0,5	0,634600
6,200333	0,5	0,633200
6,208667	0,5	0,637550
6,217000	0,5	0,632900
6,225333	0,5	0,640400
6,233667	0,5	0,639650
6,242000	0,5	0,636350
6,250333	0,5	0,637850
6,258667	0,5	0,646250
6,267000	0,5	0,660650
6,275333	0,5	0,683150
6,283667	0,5	0,704700
6,292000	0,5	0,733300
6,300333	0,5	0,764700
6,308667	0,5	0,805950
6,317000	0,5	0,833950
6,325333	0,5	0,864550
6,333667	0,5	0,883350
6,342000	0,5	0,889250
6,350333	0,5	0,882450
6,358667	0,5	0,856400
6,367000	0,5	0,823550
6,375333	0,5	0,789950
6,383667	0,5	0,748200
6,392000	0,5	0,707350
6,400333	0,5	0,677200
6,408667	0,5	0,656250
6,417000	0,5	0,651750
6,425333	0,5	0,646000
6,433667	0,5	0,643900
6,442000	0,5	0,641350
6,450333	0,5	0,651150
6,458667	0,5	0,654000
6,467000	0,5	0,660500
6,475333	0,5	0,662250
6,483667	0,5	0,661850
6,492000	0,5	0,655900
6,500333	0,5	0,654050
6,508667	0,5	0,651350
6,517000	0,5	0,644300
6,525333	0,5	0,649000
6,533667	0,5	0,639250
6,542000	0,5	0,636350
6,550333	0,5	0,636600
6,558667	0,5	0,640750
6,567000	0,5	0,657250
6,575333	0,5	0,672250
6,583667	0,5	0,689400
6,592000	0,5	0,718450
6,600333	0,5	0,748300
6,608667	0,5	0,792000
6,617000	0,5	0,833400
6,625333	0,5	0,881800
6,633667	0,5	0,918850
6,642000	0,5	0,952950
6,650333	0,5	0,970650
6,658667	0,5	0,974050
6,667000	0,5	0,953950
6,675333	0,5	0,935750
6,683667	0,5	0,893650
6,692000	0,5	0,849750
6,700333	0,5	0,806300
6,708667	0,5	0,776000
6,717000	0,5	0,750900
6,725333	0,5	0,726050
6,733667	0,5	0,709300
6,742000	0,5	0,695650
6,750333	0,5	0,690900
6,758667	0,5	0,683750
6,767000	0,5	0,679350
6,775333	0,5	0,677150
6,783667	0,5	0,670850
6,792000	0,5	0,674650
6,800333	0,5	0,673200
6,808667	0,5	0,669000
6,817000	0,5	0,675500
6,825333	0,5	0,678100
6,833667	0,5	0,674300
6,842000	0,5	0,681900
6,850333	0,5	0,687250
6,858667	0,5	0,696700
6,867000	0,5	0,709850
6,875333	0,5	0,715550
6,883667	0,5	0,716800
6,892000	0,5	0,719300
6,900333	0,5	0,724550
6,908667	0,5	0,721400
6,917000	0,5	0,717050
6,925333	0,5	0,710050
6,933667	0,5	0,704150
6,942000	0,5	0,698450
6,950333	0,5	0,687750
6,958667	0,5	0,676800
6,967000	0,5	0,672700
6,975333	0,5	0,663900
6,983667	0,5	0,653700
6,992000	0,5	0,652900
7,000333	0,5	0,653600
7,008667	0,5	0,661750
7,017000	0,5	0,663500
7,025333	0,5	0,670250
7,033667	0,5	0,675750
7,042000	0,5	0,683950
7,050333	0,5	0,683150
7,058667	0,5	0,694500
7,067000	0,5	0,698550
7,075333	0,5	0,705050
7,083667	0,5	0,709800
7,092000	0,5	0,718900
7,100333	0,5	0,730500
7,108667	0,5	0,747900
7,117000	0,5	0,766550
7,125333	0,5	0,777450
7,133667	0,5	0,795250
7,142000	0,5	0,813500
7,150333	0,5	0,830250
7,158667	0,5	0,843000
7,167000	0,5	0,848400
7,175333	0,5	0,843000
7,183667	0,5	0,836000
7,192000	0,5	0,821250
7,200333	0,5	0,814650
7,208667	0,5	0,801800
7,217000	0,5	0,796100
7,225333	0,5	0,797800
7,233667	0,5	0,795150
7,242000	0,5	0,800600
7,250333	0,5	0,797550
7,258667	0,5	0,798000
7,267000	0,5	0,792500
7,275333	0,5	0,781600
7,283667	0,5	0,766400
7,292000	0,5	0,760700
7,300333	0,5	0,760550
7,308667	0,5	0,767650
7,317000	0,5	0,776150
7,325333	0,5	0,797200
7,333667	0,5	0,824450
7,342000	0,5	0,862850
7,350333	0,5	0,908750
7,358667	0,5	0,963300
7,367000	0,5	1,006000
7,375333	0,5	1,042350
7,383667	0,5	1,060750
7,392000	0,5	1,055800
7,400333	0,5	1,027700
7,408667	0,5	0,995450
7,417000	0,5	0,951800
7,425333	0,5	0,910950
7,433667	0,5	0,882800
7,442000	0,5	0,863450
7,450333	0,5	0,860200
7,458667	0,5	0,858100
7,467000	0,5	0,854400
7,475333	0,5	0,853700
7,483667	0,5	0,853050
7,492000	0,5	0,857150
7,500333	0,5	0,861200
7,508667	0,5	0,862550
7,517000	0,5	0,864750
7,525333	0,5	0,862750
7,533667	0,5	0,866200
7,542000	0,5	0,861650
7,550333	0,5	0,852600
7,558667	0,5	0,847850
7,567000	0,5	0,842100
7,575333	0,5	0,829500
7,583667	0,5	0,821750
7,592000	0,5	0,816000
7,600333	0,5	0,815250
7,608667	0,5	0,812050
7,617000	0,5	0,810950
7,625333	0,5	0,811100
7,633667	0,5	0,810650
7,642000	0,5	0,812600
7,650333	0,5	0,812850
7,658667	0,5	0,815700
7,667000	0,5	0,818950
7,675333	0,5	0,825200
7,683667	0,5	0,828850
7,692000	0,5	0,836750
7,700333	0,5	0,840150
7,708667	0,5	0,850200
7,717000	0,5	0,855000
7,725333	0,5	0,864500
7,733667	0,5	0,874850
7,742000	0,5	0,888500
7,750333	0,5	0,907700
7,758667	0,5	0,929150
7,767000	0,5	0,949100
7,775333	0,5	0,977400
7,783667	0,5	1,007550
7,792000	0,5	1,049350
7,800333	0,5	1,093200
7,808667	0,5	1,153900
7,817000	0,5	1,229700
7,825333	0,5	1,321650
7,833667	0,5	1,431500
7,842000	0,5	1,551550
7,850333	0,5	1,686900
7,858667	0,5	1,822050
7,867000	0,5	1,949550
7,875333	0,5	2,054900
7,883667	0,5	2,127150
7,892000	0,5	2,164500
7,900333	0,5	2,158400
7,908667	0,5	2,102350
7,917000	0,5	2,009700
7,925333	0,5	1,889800
7,933667	0,5	1,754850
7,942000	0,5	1,624700
7,950333	0,5	1,502650
7,958667	0,5	1,399350
7,967000	0,5	1,329900
7,975333	0,5	1,281950
7,983667	0,5	1,248100
7,992000	0,5	1,227250
8,000333	0,5	1,221250
8,008667	0,5	1,202600
8,017000	0,5	1,179400
8,025333	0,5	1,154100
8,033667	0,5	1,131350
8,042000	0,5	1,110050
8,050333	0,5	1,093200
8,058667	0,5	1,080600
8,067000	0,5	1,077350
8,075333	0,5	1,073350
8,083667	0,5	1,077950
8,092000	0,5	1,092300
8,100333	0,5	1,123400
8,108667	0,5	1,168250
8,117000	0,5	1,227750
8,125333	0,5	1,290900
8,133667	0,5	1,339900
8,142000	0,5	1,363300
8,150333	0,5	1,354950
8,158667	0,5	1,323600
8,167000	0,5	1,269350
8,175333	0,5	1,217350
8,183667	0,5	1,170200
8,192000	0,5	1,141050
8,200333	0,5	1,116950
8,208667	0,5	1,100350
8,217000	0,5	1,087200
8,225333	0,5	1,080800
8,233667	0,5	1,074600
8,242000	0,5	1,068500
8,250333	0,5	1,067400
8,258667	0,5	1,069800
8,267000	0,5	1,070150
8,275333	0,5	1,076150
8,283667	0,5	1,076950
8,292000	0,5	1,082850
8,300333	0,5	1,089700
8,308667	0,5	1,097100
8,317000	0,5	1,110950
8,325333	0,5	1,127800
8,333667	0,5	1,152050
8,342000	0,5	1,186900
8,350333	0,5	1,217850
8,358667	0,5	1,244200
8,367000	0,5	1,261250
8,375333	0,5	1,272350
8,383667	0,5	1,266550
8,392000	0,5	1,261950
8,400333	0,5	1,259400
8,408667	0,5	1,265900
8,417000	0,5	1,294250
8,425333	0,5	1,339650
8,433667	0,5	1,407350
8,442000	0,5	1,482900
8,450333	0,5	1,556450
8,458667	0,5	1,613050
8,467000	0,5	1,652850
8,475333	0,5	1,671200
8,483667	0,5	1,677200
8,492000	0,5	1,686200
8,500333	0,5	1,710550
8,508667	0,5	1,758650
8,517000	0,5	1,828600
8,525333	0,5	1,928550
8,533667	0,5	2,041650
8,542000	0,5	2,152900
8,550333	0,5	2,240800
8,558667	0,5	2,292450
8,567000	0,5	2,294400
8,575333	0,5	2,233850
8,583667	0,5	2,131450
8,592000	0,5	2,001900
8,600333	0,5	1,860550
8,608667	0,5	1,739200
8,617000	0,5	1,648700
8,625333	0,5	1,607800
8,633667	0,5	1,610350
8,642000	0,5	1,634800
8,650333	0,5	1,655150
8,658667	0,5	1,641450
8,667000	0,5	1,598050
8,675333	0,5	1,528650
8,683667	0,5	1,454550
8,692000	0,5	1,385800
8,700333	0,5	1,336100
8,708667	0,5	1,302600
8,717000	0,5	1,282600
8,725333	0,5	1,269350
8,733667	0,5	1,260150
8,742000	0,5	1,254000
8,750333	0,5	1,237500
8,758667	0,5	1,220450
8,767000	0,5	1,198750
8,775333	0,5	1,180100
8,783667	0,5	1,165850
8,792000	0,5	1,148000
8,800333	0,5	1,142350
8,808667	0,5	1,135450
8,817000	0,5	1,128500
8,825333	0,5	1,125050
8,833667	0,5	1,124250
8,842000	0,5	1,128250
8,850333	0,5	1,133500
8,858667	0,5	1,140200
8,867000	0,5	1,149700
8,875333	0,5	1,163450
8,883667	0,5	1,176300
8,892000	0,5	1,195050
8,900333	0,5	1,205900
8,908667	0,5	1,218550
8,917000	0,5	1,228400
8,925333	0,5	1,237850
8,933667	0,5	1,243200
8,942000	0,5	1,240650
8,950333	0,5	1,243050
8,958667	0,5	1,245850
8,967000	0,5	1,257350
8,975333	0,5	1,276900
8,983667	0,5	1,301750
8,992000	0,5	1,327150
9,000333	0,5	1,357550
9,008667	0,5	1,387450
9,017000	0,5	1,421050
9,025333	0,5	1,469250
9,033667	0,5	1,533200
9,042000	0,5	1,603050
9,050333	0,5	1,659700
9,058667	0,5	1,709150
9,067000	0,5	1,747000
9,075333	0,5	1,782900
9,083667	0,5	1,820850
9,092000	0,5	1,849600
9,100333	0,5	1,863900
9,108667	0,5	1,854050
9,117000	0,5	1,826200
9,125333	0,5	1,769350
9,133667	0,5	1,695900
9,142000	0,5	1,620600
9,150333	0,5	1,541600
9,158667	0,5	1,465200
9,167000	0,5	1,399600
9,175333	0,5	1,347400
9,183667	0,5	1,311300
9,192000	0,5	1,284000
9,200333	0,5	1,266800
9,208667	0,5	1,257950
9,217000	0,5	1,261900
9,225333	0,5	1,271400
9,233667	0,5	1,289050
9,242000	0,5	1,306000
9,250333	0,5	1,315500
9,258667	0,5	1,316500
9,267000	0,5	1,306900
9,275333	0,5	1,286650
9,283667	0,5	1,265450
9,292000	0,5	1,241650
9,300333	0,5	1,224450
9,308667	0,5	1,207750
9,317000	0,5	1,194600
9,325333	0,5	1,186200
9,333667	0,5	1,179400
9,342000	0,5	1,183200
9,350333	0,5	1,192200
9,358667	0,5	1,213350
9,367000	0,5	1,250950
9,375333	0,5	1,305700
9,383667	0,5	1,350600
9,392000	0,5	1,379150
9,400333	0,5	1,377300
9,408667	0,5	1,356450
9,417000	0,5	1,319500
9,425333	0,5	1,281350
9,433667	0,5	1,257200
9,442000	0,5	1,254050
9,450333	0,5	1,271300
9,458667	0,5	1,303800
9,467000	0,5	1,343950
9,475333	0,5	1,381650
9,483667	0,5	1,406450
9,492000	0,5	1,407000
9,500333	0,5	1,389050
9,508667	0,5	1,352850
9,517000	0,5	1,306850
9,525333	0,5	1,264450
9,533667	0,5	1,219550
9,542000	0,5	1,182950
9,550333	0,5	1,149250
9,558667	0,5	1,125550
9,567000	0,5	1,109500
9,575333	0,5	1,102250
9,583667	0,5	1,101750
9,592000	0,5	1,103300
9,600333	0,5	1,110850
9,608667	0,5	1,127750
9,617000	0,5	1,142100
9,625333	0,5	1,166700
9,633667	0,5	1,189250
9,642000	0,5	1,206100
9,650333	0,5	1,220300
9,658667	0,5	1,231600
9,667000	0,5	1,247600
9,675333	0,5	1,276550
9,683667	0,5	1,304200
9,692000	0,5	1,327650
9,700333	0,5	1,338900
9,708667	0,5	1,327900
9,717000	0,5	1,290750
9,725333	0,5	1,243850
9,733667	0,5	1,189100
9,742000	0,5	1,139950
9,750333	0,5	1,104500
9,758667	0,5	1,076050
9,767000	0,5	1,062000
9,775333	0,5	1,052000
9,783667	0,5	1,050100
9,792000	0,5	1,045200
9,800333	0,5	1,046300
9,808667	0,5	1,051300
9,817000	0,5	1,063350
9,825333	0,5	1,087600
9,833667	0,5	1,121950
9,842000	0,5	1,168450
9,850333	0,5	1,224650
9,858667	0,5	1,279850
9,867000	0,5	1,325950
9,875333	0,5	1,340800
9,883667	0,5	1,341000
9,892000	0,5	1,319300
9,900333	0,5	1,285000
9,908667	0,5	1,254600
9,917000	0,5	1,221250
9,925333	0,5	1,201850
9,933667	0,5	1,188100
9,942000	0,5	1,182000
9,950333	0,5	1,186250
9,958667	0,5	1,206150
9,967000	0,5	1,237250
9,975333	0,5	1,275100
9,983667	0,5	1,318550
9,992000	0,5	1,384200
10,000333	0,5	1,471200
10,008667	0,5	1,607100
10,017000	0,5	1,797900
10,025333	0,5	2,055250
10,033667	0,5	2,382250
10,042000	0,5	2,733250
10,050333	0,5	3,075550
10,058667	0,5	3,355150
10,067000	0,5	3,530550
10,075333	0,5	3,593300
10,083667	0,5	3,538850
10,092000	0,5	3,394100
10,100333	0,5	3,187000
10,108667	0,5	2,947750
10,117000	0,5	2,693250
10,125333	0,5	2,443550
10,133667	0,5	2,208600
10,142000	0,5	1,998650
10,150333	0,5	1,826500
10,158667	0,5	1,699150
10,167000	0,5	1,625650
10,175333	0,5	1,583700
10,183667	0,5	1,560150
10,192000	0,5	1,536650
10,200333	0,5	1,505750
10,208667	0,5	1,449750
10,217000	0,5	1,393350
10,225333	0,5	1,323100
10,233667	0,5	1,253950
10,242000	0,5	1,189900
10,250333	0,5	1,133750
10,258667	0,5	1,093550
10,267000	0,5	1,061600
10,275333	0,5	1,044850
10,283667	0,5	1,037400
10,292000	0,5	1,039950
10,300333	0,5	1,048900
10,308667	0,5	1,063250
10,317000	0,5	1,078950
10,325333	0,5	1,098950
10,333667	0,5	1,114450
10,342000	0,5	1,129400
10,350333	0,5	1,138200
10,358667	0,5	1,143700
10,367000	0,5	1,137750
10,375333	0,5	1,132500
10,383667	0,5	1,117700
10,392000	0,5	1,113500
10,400333	0,5	1,123600
10,408667	0,5	1,165000
10,417000	0,5	1,224900
10,425333	0,5	1,285250
10,433667	0,5	1,342350
10,442000	0,5	1,372950
10,450333	0,5	1,373450
10,458667	0,5	1,344750
10,467000	0,5	1,296450
10,475333	0,5	1,243500
10,483667	0,5	1,188800
10,492000	0,5	1,148450
10,500333	0,5	1,126600
10,508667	0,5	1,115300
10,517000	0,5	1,125950
10,525333	0,5	1,147550
10,533667	0,5	1,174500
10,542000	0,5	1,201900
10,550333	0,5	1,225550
10,558667	0,5	1,256800
10,567000	0,5	1,286150
10,575333	0,5	1,318150
10,583667	0,5	1,376400
10,592000	0,5	1,462000
10,600333	0,5	1,554600
10,608667	0,5	1,625450
10,617000	0,5	1,648400
10,625333	0,5	1,614450
10,633667	0,5	1,546600
10,642000	0,5	1,485650
10,650333	0,5	1,449800
10,658667	0,5	1,471650
10,667000	0,5	1,578500
10,675333	0,5	1,799400
10,683667	0,5	2,258800
10,692000	0,5	2,982950
10,700333	0,5	3,664250
10,708667	0,5	3,905950
10,717000	0,5	3,768200
10,725333	0,5	3,282350
10,733667	0,5	2,518750
10,742000	0,5	1,708850
10,750333	0,5	1,128550
10,758667	0,5	0,809400
10,767000	0,5	0,636200
10,775333	0,5	0,525950
10,783667	0,5	0,437300
10,792000	0,5	0,359050
10,800333	0,5	0,282000
10,808667	0,5	0,207800
10,817000	0,5	0,138650
10,825333	0,5	0,065000
10,833667	0,5	-0,000100
10,842000	0,5	-0,062900
10,850333	0,5	-0,103400
10,858667	0,5	-0,142600
10,867000	0,5	-0,168450
10,875333	0,5	-0,190900
10,883667	0,5	-0,201900
10,892000	0,5	-0,215700
10,900333	0,5	-0,221150
10,908667	0,5	-0,224900
10,917000	0,5	-0,226500
10,925333	0,5	-0,224500
10,933667	0,5	-0,224050
10,942000	0,5	-0,227600
10,950333	0,5	-0,228550
10,958667	0,5	-0,230550
10,967000	0,5	-0,239100
10,975333	0,5	-0,246950
10,983667	0,5	-0,264400
10,992000	0,5	-0,274150
11,000333	0,5	-0,289300
11,008667	0,5	-0,295750
11,017000	0,5	-0,304750
11,025333	0,5	-0,314950
11,033667	0,5	-0,323700
11,042000	0,5	-0,334450
11,050333	0,5	-0,337500
11,058667	0,5	-0,342300
11,067000	0,5	-0,351600
11,075333	0,5	-0,360400
11,083667	0,5	-0,368950
11,092000	0,5	-0,380600
11,100333	0,5	-0,388950
11,108667	0,5	-0,391950
11,117000	0,5	-0,401550
11,125333	0,5	-0,412000
11,133667	0,5	-0,428000
11,142000	0,5	-0,439400
11,150333	0,5	-0,441550
11,158667	0,5	-0,449100
11,167000	0,5	-0,452900
11,175333	0,5	-0,460000
11,183667	0,5	-0,466150
11,192000	0,5	-0,473800
11,200333	0,5	-0,478000
11,208667	0,5	-0,482050
11,217000	0,5	-0,487750
11,225333	0,5	-0,488500
11,233667	0,5	-0,490650
11,242000	0,5	-0,500800
11,250333	0,5	-0,494800
11,258667	0,5	-0,493450
11,267000	0,5	-0,497050
11,275333	0,5	-0,498000
11,283667	0,5	-0,500250
11,292000	0,5	-0,496750
11,300333	0,5	-0,493450
11,308667	0,5	-0,492600
11,317000	0,5	-0,489950
11,325333	0,5	-0,490550
11,333667	0,5	-0,494500
11,342000	0,5	-0,493800
11,350333	0,5	-0,494500
11,358667	0,5	-0,493900
11,367000	0,5	-0,499700
11,375333	0,5	-0,497200
11,383667	0,5	-0,500200
11,392000	0,5	-0,506300
11,400333	0,5	-0,503850
11,408667	0,5	-0,503100
11,417000	0,5	-0,505100
11,425333	0,5	-0,507500
11,433667	0,5	-0,513850
11,442000	0,5	-0,509350
11,450333	0,5	-0,511050
11,458667	0,5	-0,507450
11,467000	0,5	-0,508750
11,475333	0,5	-0,506500
11,483667	0,5	-0,504850
11,492000	0,5	-0,506400
11,500333	0,5	-0,505150
11,508667	0,5	-0,502500
11,517000	0,5	-0,503450
11,525333	0,5	-0,503200
11,533667	0,5	-0,505700
11,542000	0,5	-0,505700
11,550333	0,5	-0,498850
11,558667	0,5	-0,505600
11,567000	0,5	-0,501950
11,575333	0,5	-0,506150
11,583667	0,5	-0,506850
11,592000	0,5	-0,502400
11,600333	0,5	-0,501450
11,608667	0,5	-0,505150
11,617000	0,5	-0,505250
11,625333	0,5	-0,506550
11,633667	0,5	-0,505500
11,642000	0,5	-0,504500
11,650333	0,5	-0,505850
11,658667	0,5	-0,506250
11,667000	0,5	-0,505200
11,675333	0,5	-0,502950
11,683667	0,5	-0,501850
11,692000	0,5	-0,500700
11,700333	0,5	-0,497700
11,708667	0,5	-0,496150
11,717000	0,5	-0,501200
11,725333	0,5	-0,500550
11,733667	0,5	-0,500400
11,742000	0,5	-0,492200
11,750333	0,5	-0,489150
11,758667	0,5	-0,489150
11,767000	0,5	-0,485250
11,775333	0,5	-0,479850
11,783667	0,5	-0,478550
11,792000	0,5	-0,473600
11,800333	0,5	-0,469300
11,808667	0,5	-0,469700
11,817000	0,5	-0,463900
11,825333	0,5	-0,462650
11,833667	0,5	-0,462400
11,842000	0,5	-0,455350
11,850333	0,5	-0,450600
11,858667	0,5	-0,446350
11,867000	0,5	-0,443700
11,875333	0,5	-0,441550
11,883667	0,5	-0,434150
11,892000	0,5	-0,424700
11,900333	0,5	-0,411250
11,908667	0,5	-0,405850
11,917000	0,5	-0,394000
11,925333	0,5	-0,387150
11,933667	0,5	-0,377100
11,942000	0,5	-0,368400
11,950333	0,5	-0,358200
11,958667	0,5	-0,348100
11,967000	0,5	-0,342550
11,975333	0,5	-0,336950
11,983667	0,5	-0,331400
11,992000	0,5	-0,323150
12,000333	0,5	-0,317750
12,008667	0,5	-0,317850
12,017000	0,5	-0,325600
12,025333	0,5	-0,325450
12,033667	0,5	-0,327750
12,042000	0,5	-0,323950
12,050333	0,5	-0,326900
12,058667	0,5	-0,328000
12,067000	0,5	-0,328800
12,075333	0,5	-0,329400
12,083667	0,5	-0,330600
12,092000	0,5	-0,330250
12,100333	0,5	-0,335750
12,108667	0,5	-0,330150
12,117000	0,5	-0,333650
12,125333	0,5	-0,337400
12,133667	0,5	-0,333850
12,142000	0,5	-0,329450
12,150333	0,5	-0,329000
12,158667	0,5	-0,329050
12,167000	0,5	-0,330850
12,175333	0,5	-0,329200
12,183667	0,5	-0,322900
12,192000	0,5	-0,320350
12,200333	0,5	-0,313750
12,208667	0,5	-0,312350
12,217000	0,5	-0,308800
12,225333	0,5	-0,306550
12,233667	0,5	-0,297500
12,242000	0,5	-0,291450
12,250333	0,5	-0,285600
12,258667	0,5	-0,278650
12,267000	0,5	-0,271450
12,275333	0,5	-0,274150
12,283667	0,5	-0,264550
12,292000	0,5	-0,259650
12,300333	0,5	-0,259550
12,308667	0,5	-0,263900
12,317000	0,5	-0,270450
12,325333	0,5	-0,269700
12,333667	0,5	-0,269650
12,342000	0,5	-0,269250
12,350333	0,5	-0,270800
12,358667	0,5	-0,270350
12,367000	0,5	-0,268550
12,375333	0,5	-0,259500
12,383667	0,5	-0,249950
12,392000	0,5	-0,239800
12,400333	0,5	-0,221350
12,408667	0,5	-0,208200
12,417000	0,5	-0,195000
12,425333	0,5	-0,186650
12,433667	0,5	-0,167550
12,442000	0,5	-0,160450
12,450333	0,5	-0,159500
12,458667	0,5	-0,163550
12,467000	0,5	-0,173450
12,475333	0,5	-0,169550
12,483667	0,5	-0,176450
12,492000	0,5	-0,178850
12,500333	0,5	-0,181900
12,508667	0,5	-0,180950
12,517000	0,5	-0,187500
12,525333	0,5	-0,183700
12,533667	0,5	-0,181300
12,542000	0,5	-0,179700
12,550333	0,5	-0,179350
12,558667	0,5	-0,173900
12,567000	0,5	-0,174750
12,575333	0,5	-0,174500
12,583667	0,5	-0,162050
12,592000	0,5	-0,160050
12,600333	0,5	-0,153450
12,608667	0,5	-0,152100
12,617000	0,5	-0,145350
12,625333	0,5	-0,132550
12,633667	0,5	-0,119650
12,642000	0,5	-0,113000
12,650333	0,5	-0,105050
12,658667	0,5	-0,097350
12,667000	0,5	-0,090950
12,675333	0,5	-0,085350
12,683667	0,5	-0,075150
12,692000	0,5	-0,068250
12,700333	0,5	-0,060300
12,708667	0,5	-0,049250
12,717000	0,5	-0,048400
12,725333	0,5	-0,037700
12,733667	0,5	-0,026350
12,742000	0,5	-0,033950
12,750333	0,5	-0,035150
12,758667	0,5	-0,036300
12,767000	0,5	-0,041050
12,775333	0,5	-0,035450
12,783667	0,5	-0,034450
12,792000	0,5	-0,032000
12,800333	0,5	-0,027900
12,808667	0,5	-0,021350
12,817000	0,5	-0,020500
12,825333	0,5	-0,014850
12,833667	0,5	-0,007900
12,842000	0,5	-0,002600
12,850333	0,5	0,004050
12,858667	0,5	0,011750
12,867000	0,5	0,010350
12,875333	0,5	0,015650
12,883667	0,5	0,016650
12,892000	0,5	0,017600
12,900333	0,5	0,015350
12,908667	0,5	0,012350
12,917000	0,5	0,017450
12,925333	0,5	0,025750
12,933667	0,5	0,030550
12,942000	0,5	0,034600
12,950333	0,5	0,045350
12,958667	0,5	0,047100
12,967000	0,5	0,050450
12,975333	0,5	0,049650
12,983667	0,5	0,050500
12,992000	0,5	0,050050
13,000333	0,5	0,054350
13,008667	0,5	0,042950
13,017000	0,5	0,045100
13,025333	0,5	0,049550
13,033667	0,5	0,047850
13,042000	0,5	0,051950
13,050333	0,5	0,045750
13,058667	0,5	0,047750
13,067000	0,5	0,047200
13,075333	0,5	0,051700
13,083667	0,5	0,053300
13,092000	0,5	0,056250
13,100333	0,5	0,056700
13,108667	0,5	0,057100
13,117000	0,5	0,061700
13,125333	0,5	0,064000
13,133667	0,5	0,060250
13,142000	0,5	0,066450
13,150333	0,5	0,064050
13,158667	0,5	0,058100
13,167000	0,5	0,063350
13,175333	0,5	0,067400
13,183667	0,5	0,072150
13,192000	0,5	0,068300
13,200333	0,5	0,064100
13,208667	0,5	0,068400
13,217000	0,5	0,076300
13,225333	0,5	0,077950
13,233667	0,5	0,076900
13,242000	0,5	0,080450
13,250333	0,5	0,082600
13,258667	0,5	0,082450
13,267000	0,5	0,083300
13,275333	0,5	0,083150
13,283667	0,5	0,087400
13,292000	0,5	0,078200
13,300333	0,5	0,075700
13,308667	0,5	0,069900
13,317000	0,5	0,077850
13,325333	0,5	0,076900
13,333667	0,5	0,077800
13,342000	0,5	0,070700
13,350333	0,5	0,065450
13,358667	0,5	0,070600
13,367000	0,5	0,078500
13,375333	0,5	0,084000
13,383667	0,5	0,093300
13,392000	0,5	0,101050
13,400333	0,5	0,107450
13,408667	0,5	0,116450
13,417000	0,5	0,119200
13,425333	0,5	0,120950
13,433667	0,5	0,113700
13,442000	0,5	0,112700
13,450333	0,5	0,102100
13,458667	0,5	0,094900
13,467000	0,5	0,095250
13,475333	0,5	0,096450
13,483667	0,5	0,095850
13,492000	0,5	0,099750
13,500333	0,5	0,105100
13,508667	0,5	0,128350
13,517000	0,5	0,143050
13,525333	0,5	0,159400
13,533667	0,5	0,165700
13,542000	0,5	0,167300
13,550333	0,5	0,168100
13,558667	0,5	0,164500
13,567000	0,5	0,158300
13,575333	0,5	0,152800
13,583667	0,5	0,146400
13,592000	0,5	0,139850
13,600333	0,5	0,127350
13,608667	0,5	0,122900
13,617000	0,5	0,121050
13,625333	0,5	0,109050
13,633667	0,5	0,098600
13,642000	0,5	0,080950
13,650333	0,5	0,080250
13,658667	0,5	0,084800
13,667000	0,5	0,100600
13,675333	0,5	0,117300
13,683667	0,5	0,140600
13,692000	0,5	0,156600
13,700333	0,5	0,163150
13,708667	0,5	0,156600
13,717000	0,5	0,147450
13,725333	0,5	0,127600
13,733667	0,5	0,114200
13,742000	0,5	0,110600
13,750333	0,5	0,103450
13,758667	0,5	0,109850
13,767000	0,5	0,118250
13,775333	0,5	0,124300
13,783667	0,5	0,126700
13,792000	0,5	0,121350
13,800333	0,5	0,129400
13,808667	0,5	0,151000
13,817000	0,5	0,172000
13,825333	0,5	0,204000
13,833667	0,5	0,236650
13,842000	0,5	0,272550
13,850333	0,5	0,289700
13,858667	0,5	0,288850
13,867000	0,5	0,264200
13,875333	0,5	0,229400
13,883667	0,5	0,189000
13,892000	0,5	0,149150
13,900333	0,5	0,121400
13,908667	0,5	0,120850
13,917000	0,5	0,117650
13,925333	0,5	0,128550
13,933667	0,5	0,139350
13,942000	0,5	0,153850
13,950333	0,5	0,184200
13,958667	0,5	0,210150
13,967000	0,5	0,245150
13,975333	0,5	0,274050
13,983667	0,5	0,290900
13,992000	0,5	0,286800
14,000333	0,5	0,272800
14,008667	0,5	0,240400
14,017000	0,5	0,199550
14,025333	0,5	0,162800
14,033667	0,5	0,135450
14,042000	0,5	0,108400
14,050333	0,5	0,114650
14,058667	0,5	0,132800
14,067000	0,5	0,160150
14,075333	0,5	0,188650
14,083667	0,5	0,215600
14,092000	0,5	0,234900
14,100333	0,5	0,252950
14,108667	0,5	0,256400
14,117000	0,5	0,246900
14,125333	0,5	0,223350
14,133667	0,5	0,188850
14,142000	0,5	0,155600
14,150333	0,5	0,120550
14,158667	0,5	0,097300
14,167000	0,5	0,082000
14,175333	0,5	0,082750
14,183667	0,5	0,090850
14,192000	0,5	0,096950
14,200333	0,5	0,119400
14,208667	0,5	0,137050
14,217000	0,5	0,140850
14,225333	0,5	0,137050
14,233667	0,5	0,112950
14,242000	0,5	0,096400
14,250333	0,5	0,068200
14,258667	0,5	0,044500
14,267000	0,5	0,022050
14,275333	0,5	0,015800
14,283667	0,5	0,017450
14,292000	0,5	0,027300
14,300333	0,5	0,050700
14,308667	0,5	0,066850
14,317000	0,5	0,092100
14,325333	0,5	0,105200
14,333667	0,5	0,105450
14,342000	0,5	0,093300
14,350333	0,5	0,082500
14,358667	0,5	0,059800
14,367000	0,5	0,034100
14,375333	0,5	0,005350
14,383667	0,5	-0,020000
14,392000	0,5	-0,027250
14,400333	0,5	-0,026700
14,408667	0,5	-0,032250
14,417000	0,5	-0,030950
14,425333	0,5	-0,035700
14,433667	0,5	-0,036000
14,442000	0,5	-0,038550
14,450333	0,5	-0,043200
14,458667	0,5	-0,050150
14,467000	0,5	-0,057200
14,475333	0,5	-0,057200
14,483667	0,5	-0,071100
14,492000	0,5	-0,072800
14,500333	0,5	-0,072200
14,508667	0,5	-0,077800
14,517000	0,5	-0,085050
14,525333	0,5	-0,092900
14,533667	0,5	-0,096350
14,542000	0,5	-0,091950
14,550333	0,5	-0,102400
14,558667	0,5	-0,096350
14,567000	0,5	-0,103450
14,575333	0,5	-0,102950
14,583667	0,5	-0,110450
14,592000	0,5	-0,110800
14,600333	0,5	-0,113050
14,608667	0,5	-0,119400
14,617000	0,5	-0,120100
14,625333	0,5	-0,123000
14,633667	0,5	-0,137500
14,642000	0,5	-0,130600
14,650333	0,5	-0,134100
14,658667	0,5	-0,132150
14,667000	0,5	-0,131200
14,675333	0,5	-0,145400
14,683667	0,5	-0,138600
14,692000	0,5	-0,136650
14,700333	0,5	-0,128700
14,708667	0,5	-0,138500
14,717000	0,5	-0,139050
14,725333	0,5	-0,142300
14,733667	0,5	-0,144450
14,742000	0,5	-0,143650
14,750333	0,5	-0,143400
14,758667	0,5	-0,135400
14,767000	0,5	-0,125450
14,775333	0,5	-0,125800
14,783667	0,5	-0,125600
14,792000	0,5	-0,113550
14,800333	0,5	-0,113250
14,808667	0,5	-0,117750
14,817000	0,5	-0,130100
14,825333	0,5	-0,134000
14,833667	0,5	-0,135700
14,842000	0,5	-0,131700
14,850333	0,5	-0,133600
14,858667	0,5	-0,127250
14,867000	0,5	-0,128300
14,875333	0,5	-0,130750
14,883667	0,5	-0,130650
14,892000	0,5	-0,135000
14,900333	0,5	-0,139350
14,908667	0,5	-0,140900
14,917000	0,5	-0,144150
14,925333	0,5	-0,150700
14,933667	0,5	-0,151650
14,942000	0,5	-0,141400
14,950333	0,5	-0,142450
14,958667	0,5	-0,144200
14,967000	0,5	-0,151400
14,975333	0,5	-0,159050
14,983667	0,5	-0,155950
14,992000	0,5	-0,156500
15,000333	0,5	-0,154250
15,008667	0,5	-0,154600
15,017000	0,5	-0,155150
15,025333	0,5	-0,159650
15,033667	0,5	-0,161500
15,042000	0,5	-0,167050
15,050333	0,5	-0,172300
15,058667	0,5	-0,169650
15,067000	0,5	-0,172200
15,075333	0,5	-0,187400
15,083667	0,5	-0,179700
15,092000	0,5	-0,181600
15,100333	0,5	-0,182750
15,108667	0,5	-0,190600
15,117000	0,5	-0,202600
15,125333	0,5	-0,201350
15,133667	0,5	-0,198250
15,142000	0,5	-0,194850
15,150333	0,5	-0,192300
15,158667	0,5	-0,184650
15,167000	0,5	-0,188050
15,175333	0,5	-0,182550
15,183667	0,5	-0,179600
15,192000	0,5	-0,176850
15,200333	0,5	-0,179400
15,208667	0,5	-0,177750
15,217000	0,5	-0,187000
15,225333	0,5	-0,195050
15,233667	0,5	-0,196100
15,242000	0,5	-0,199150
15,250333	0,5	-0,209250
15,258667	0,5	-0,216100
15,267000	0,5	-0,231550
15,275333	0,5	-0,231650
15,283667	0,5	-0,230900
15,292000	0,5	-0,230650
15,300333	0,5	-0,227400
15,308667	0,5	-0,226100
15,317000	0,5	-0,219350
15,325333	0,5	-0,216400
15,333667	0,5	-0,215550
15,342000	0,5	-0,214500
15,350333	0,5	-0,207050
15,358667	0,5	-0,202600
15,367000	0,5	-0,212100
15,375333	0,5	-0,207400
15,383667	0,5	-0,193850
15,392000	0,5	-0,192250
15,400333	0,5	-0,191700
15,408667	0,5	-0,202750
15,417000	0,5	-0,197150
15,425333	0,5	-0,188850
15,433667	0,5	-0,183200
15,442000	0,5	-0,185550
15,450333	0,5	-0,180900
15,458667	0,5	-0,183200
15,467000	0,5	-0,182850
15,475333	0,5	-0,179950
15,483667	0,5	-0,178000
15,492000	0,5	-0,173200
15,500333	0,5	-0,172100
15,508667	0,5	-0,154300
15,517000	0,5	-0,161900
15,525333	0,5	-0,142700
15,533667	0,5	-0,135750
15,542000	0,5	-0,133700
15,550333	0,5	-0,133550
15,558667	0,5	-0,142500
15,567000	0,5	-0,139950
15,575333	0,5	-0,122550
15,583667	0,5	-0,116300
15,592000	0,5	-0,101650
15,600333	0,5	-0,098800
15,608667	0,5	-0,095850
15,617000	0,5	-0,102650
15,625333	0,5	-0,113650
15,633667	0,5	-0,132650
15,642000	0,5	-0,150900
15,650333	0,5	-0,163800
15,658667	0,5	-0,179250
15,667000	0,5	-0,199400
15,675333	0,5	-0,196100
15,683667	0,5	-0,204200
15,692000	0,5	-0,207550
15,700333	0,5	-0,217900
15,708667	0,5	-0,235400
15,717000	0,5	-0,231650
15,725333	0,5	-0,232750
15,733667	0,5	-0,230350
15,742000	0,5	-0,235550
15,750333	0,5	-0,232000
15,758667	0,5	-0,239150
15,767000	0,5	-0,236750
15,775333	0,5	-0,238800
15,783667	0,5	-0,238100
15,792000	0,5	-0,236900
15,800333	0,5	-0,235750
15,808667	0,5	-0,241950
15,817000	0,5	-0,239250
15,825333	0,5	-0,232250
15,833667	0,5	-0,232700
15,842000	0,5	-0,233100
15,850333	0,5	-0,239750
15,858667	0,5	-0,241250
15,867000	0,5	-0,233650
15,875333	0,5	-0,218500
15,883667	0,5	-0,213500
15,892000	0,5	-0,204250
15,900333	0,5	-0,199150
15,908667	0,5	-0,189600
15,917000	0,5	-0,185650
15,925333	0,5	-0,178100
15,933667	0,5	-0,172550
15,942000	0,5	-0,165900
15,950333	0,5	-0,167050
15,958667	0,5	-0,179550
15,967000	0,5	-0,174800
15,975333	0,5	-0,172700
15,983667	0,5	-0,181750
15,992000	0,5	-0,191650
16,000333	0,5	-0,204800
16,008667	0,5	-0,213000
16,017000	0,5	-0,211700
16,025333	0,5	-0,213150
16,033667	0,5	-0,213200
16,042000	0,5	-0,217400
16,050333	0,5	-0,215300
16,058667	0,5	-0,223150
16,067000	0,5	-0,221450
16,075333	0,5	-0,226100
16,083667	0,5	-0,229150
16,092000	0,5	-0,225650
16,100333	0,5	-0,226700
16,108667	0,5	-0,231250
16,117000	0,5	-0,219950
16,125333	0,5	-0,214200
16,133667	0,5	-0,204700
16,142000	0,5	-0,201850
16,150333	0,5	-0,197500
16,158667	0,5	-0,182800
16,167000	0,5	-0,173850
16,175333	0,5	-0,165050
16,183667	0,5	-0,162000
16,192000	0,5	-0,162250
16,200333	0,5	-0,170900
16,208667	0,5	-0,173900
16,217000	0,5	-0,180250
16,225333	0,5	-0,184400
16,233667	0,5	-0,180300
16,242000	0,5	-0,174750
16,250333	0,5	-0,179950
16,258667	0,5	-0,164800
16,267000	0,5	-0,155350
16,275333	0,5	-0,143500
16,283667	0,5	-0,143400
16,292000	0,5	-0,153700
16,300333	0,5	-0,147550
16,308667	0,5	-0,137000
16,317000	0,5	-0,131100
16,325333	0,5	-0,117450
16,333667	0,5	-0,099200
16,342000	0,5	-0,070600
16,350333	0,5	-0,032850
16,358667	0,5	0,012000
16,367000	0,5	0,076500
16,375333	0,5	0,143350
16,383667	0,5	0,225500
16,392000	0,5	0,309500
16,400333	0,5	0,367050
16,408667	0,5	0,428450
16,417000	0,5	0,466450
16,425333	0,5	0,473300
16,433667	0,5	0,459150
16,442000	0,5	0,418350
16,450333	0,5	0,382050
16,458667	0,5	0,342000
16,467000	0,5	0,307450
16,475333	0,5	0,261900
16,483667	0,5	0,223600
16,492000	0,5	0,188600
16,500333	0,5	0,153100
16,508667	0,5	0,123200
16,517000	0,5	0,091100
16,525333	0,5	0,067000
16,533667	0,5	0,042450
16,542000	0,5	0,025750
16,550333	0,5	-0,001600
16,558667	0,5	-0,001550
16,567000	0,5	-0,012250
16,575333	0,5	-0,022600
16,583667	0,5	-0,037900
16,592000	0,5	-0,051500
16,600333	0,5	-0,047750
16,608667	0,5	-0,047300
16,617000	0,5	-0,053300
16,625333	0,5	-0,050300
16,633667	0,5	-0,049900
16,642000	0,5	-0,050300
16,650333	0,5	-0,051550
16,658667	0,5	-0,046250
16,667000	0,5	-0,044300
16,675333	0,5	-0,044500
16,683667	0,5	-0,041450
16,692000	0,5	-0,053000
16,700333	0,5	-0,052800
16,708667	0,5	-0,050100
16,717000	0,5	-0,049650
16,725333	0,5	-0,051550
16,733667	0,5	-0,061750
16,742000	0,5	-0,075250
16,750333	0,5	-0,067500
16,758667	0,5	-0,067100
16,767000	0,5	-0,071700
16,775333	0,5	-0,076150
16,783667	0,5	-0,075400
16,792000	0,5	-0,083850
16,800333	0,5	-0,084650
16,808667	0,5	-0,085000
16,817000	0,5	-0,091400
16,825333	0,5	-0,083700
16,833667	0,5	-0,087800
16,842000	0,5	-0,099950
16,850333	0,5	-0,094300
16,858667	0,5	-0,090100
16,867000	0,5	-0,095250
16,875333	0,5	-0,103300
16,883667	0,5	-0,119650
16,892000	0,5	-0,117500
16,900333	0,5	-0,121700
16,908667	0,5	-0,117200
16,917000	0,5	-0,119550
16,925333	0,5	-0,117550
16,933667	0,5	-0,118300
16,942000	0,5	-0,117550
16,950333	0,5	-0,116000
16,958667	0,5	-0,105400
16,967000	0,5	-0,095800
16,975333	0,5	-0,080050
16,983667	0,5	-0,080800
16,992000	0,5	-0,078950
17,000333	0,5	-0,070650
17,008667	0,5	-0,073000
17,017000	0,5	-0,078150
17,025333	0,5	-0,097200
17,033667	0,5	-0,116300
17,042000	0,5	-0,130100
17,050333	0,5	-0,132350
17,058667	0,5	-0,142950
17,067000	0,5	-0,145450
17,075333	0,5	-0,152600
17,083667	0,5	-0,156600
17,092000	0,5	-0,164000
17,100333	0,5	-0,165950
17,108667	0,5	-0,177000
17,117000	0,5	-0,180900
17,125333	0,5	-0,187050
17,133667	0,5	-0,206300
17,142000	0,5	-0,206450
17,150333	0,5	-0,203650
17,158667	0,5	-0,209750
17,167000	0,5	-0,217650
17,175333	0,5	-0,234700
17,183667	0,5	-0,237650
17,192000	0,5	-0,238450
17,200333	0,5	-0,244600
17,208667	0,5	-0,247500
17,217000	0,5	-0,250500
17,225333	0,5	-0,251450
17,233667	0,5	-0,257950
17,242000	0,5	-0,257650
17,250333	0,5	-0,265050
17,258667	0,5	-0,263350
17,267000	0,5	-0,264650
17,275333	0,5	-0,261300
17,283667	0,5	-0,284050
17,292000	0,5	-0,273500
17,300333	0,5	-0,276500
17,308667	0,5	-0,283350
17,317000	0,5	-0,289600
17,325333	0,5	-0,303700
17,333667	0,5	-0,303300
17,342000	0,5	-0,304850
17,350333	0,5	-0,307450
17,358667	0,5	-0,310400
17,367000	0,5	-0,308300
17,375333	0,5	-0,315800
17,383667	0,5	-0,312750
17,392000	0,5	-0,319400
17,400333	0,5	-0,316550
17,408667	0,5	-0,326200
17,417000	0,5	-0,319350
17,425333	0,5	-0,330650
17,433667	0,5	-0,342400
17,442000	0,5	-0,331250
17,450333	0,5	-0,331350
17,458667	0,5	-0,339100
17,467000	0,5	-0,347400
17,475333	0,5	-0,354350
17,483667	0,5	-0,348050
17,492000	0,5	-0,350500
17,500333	0,5	-0,350650
17,508667	0,5	-0,351200
17,517000	0,5	-0,352250
17,525333	0,5	-0,357350
17,533667	0,5	-0,365900
17,542000	0,5	-0,362850
17,550333	0,5	-0,365800
17,558667	0,5	-0,368350
17,567000	0,5	-0,370000
17,575333	0,5	-0,377100
17,583667	0,5	-0,377350
17,592000	0,5	-0,372550
17,600333	0,5	-0,376250
17,608667	0,5	-0,379450
17,617000	0,5	-0,399100
17,625333	0,5	-0,403950
17,633667	0,5	-0,404950
17,642000	0,5	-0,403900
17,650333	0,5	-0,404500
17,658667	0,5	-0,406100
17,667000	0,5	-0,405850
17,675333	0,5	-0,403900
17,683667	0,5	-0,403900
17,692000	0,5	-0,407950
17,700333	0,5	-0,405750
17,708667	0,5	-0,404350
17,717000	0,5	-0,402300
17,725333	0,5	-0,415050
17,733667	0,5	-0,407550
17,742000	0,5	-0,403800
17,750333	0,5	-0,399050
17,758667	0,5	-0,409700
17,767000	0,5	-0,414550
17,775333	0,5	-0,415500
17,783667	0,5	-0,407750
17,792000	0,5	-0,409500
17,800333	0,5	-0,399600
17,808667	0,5	-0,397650
17,817000	0,5	-0,388000
17,825333	0,5	-0,385250
17,833667	0,5	-0,374650
17,842000	0,5	-0,363300
17,850333	0,5	-0,353800
17,858667	0,5	-0,330550
17,867000	0,5	-0,322150
17,875333	0,5	-0,308850
17,883667	0,5	-0,287050
17,892000	0,5	-0,269300
17,900333	0,5	-0,254550
17,908667	0,5	-0,244650
17,917000	0,5	-0,234650
17,925333	0,5	-0,213150
17,933667	0,5	-0,197600
17,942000	0,5	-0,174100
17,950333	0,5	-0,157900
17,958667	0,5	-0,139550
17,967000	0,5	-0,125550
17,975333	0,5	-0,108200
17,983667	0,5	-0,099700
17,992000	0,5	-0,088900
18,000333	0,5	-0,073550
18,008667	0,5	-0,066850
18,017000	0,5	-0,076000
18,025333	0,5	-0,070300
18,033667	0,5	-0,061150
18,042000	0,5	-0,064300
18,050333	0,5	-0,067950
18,058667	0,5	-0,078050
18,067000	0,5	-0,073050
18,075333	0,5	-0,063600
18,083667	0,5	-0,046550
18,092000	0,5	-0,034450
18,100333	0,5	-0,006500
18,108667	0,5	0,011350
18,117000	0,5	0,036600
18,125333	0,5	0,056400
18,133667	0,5	0,076300
18,142000	0,5	0,088400
18,150333	0,5	0,094650
18,158667	0,5	0,090150
18,167000	0,5	0,064400
18,175333	0,5	0,046450
18,183667	0,5	0,020050
18,192000	0,5	-0,016550
18,200333	0,5	-0,055300
18,208667	0,5	-0,100250
18,217000	0,5	-0,140700
18,225333	0,5	-0,163200
18,233667	0,5	-0,192800
18,242000	0,5	-0,211150
18,250333	0,5	-0,234700
18,258667	0,5	-0,252600
18,267000	0,5	-0,273600
18,275333	0,5	-0,281700
18,283667	0,5	-0,300300
18,292000	0,5	-0,313600
18,300333	0,5	-0,315450
18,308667	0,5	-0,328200
18,317000	0,5	-0,348850
18,325333	0,5	-0,343050
18,333667	0,5	-0,352050
18,342000	0,5	-0,363150
18,350333	0,5	-0,378600
18,358667	0,5	-0,388650
18,367000	0,5	-0,383850
18,375333	0,5	-0,392700
18,383667	0,5	-0,395950
18,392000	0,5	-0,402300
18,400333	0,5	-0,397450
18,408667	0,5	-0,407050
18,417000	0,5	-0,406050
18,425333	0,5	-0,411500
18,433667	0,5	-0,409900
18,442000	0,5	-0,409800
18,450333	0,5	-0,403600
18,458667	0,5	-0,422200
18,467000	0,5	-0,414600
18,475333	0,5	-0,409100
18,483667	0,5	-0,412750
18,492000	0,5	-0,418350
18,500333	0,5	-0,436750
18,508667	0,5	-0,437900
18,517000	0,5	-0,439850
18,525333	0,5	-0,434600
18,533667	0,5	-0,437600
18,542000	0,5	-0,433300
18,550333	0,5	-0,440000
18,558667	0,5	-0,433550
18,567000	0,5	-0,432550
18,575333	0,5	-0,434450
18,583667	0,5	-0,436950
18,592000	0,5	-0,431200
18,600333	0,5	-0,430600
18,608667	0,5	-0,446150
18,617000	0,5	-0,439750
18,625333	0,5	-0,438250
18,633667	0,5	-0,445400
18,642000	0,5	-0,453700
18,650333	0,5	-0,471900
18,658667	0,5	-0,463750
18,667000	0,5	-0,460650
18,675333	0,5	-0,464050
18,683667	0,5	-0,461700
18,692000	0,5	-0,464550
18,700333	0,5	-0,461150
18,708667	0,5	-0,468550
18,717000	0,5	-0,459350
18,725333	0,5	-0,461000
18,733667	0,5	-0,456700
18,742000	0,5	-0,457450
18,750333	0,5	-0,456350
18,758667	0,5	-0,464400
18,767000	0,5	-0,453000
18,775333	0,5	-0,454850
18,783667	0,5	-0,456100
18,792000	0,5	-0,468900
18,800333	0,5	-0,480650
18,808667	0,5	-0,478250
18,817000	0,5	-0,470950
18,825333	0,5	-0,470200
18,833667	0,5	-0,471450
18,842000	0,5	-0,472300
18,850333	0,5	-0,473550
18,858667	0,5	-0,475850
18,867000	0,5	-0,478250
18,875333	0,5	-0,479450
18,883667	0,5	-0,479250
18,892000	0,5	-0,482000
18,900333	0,5	-0,500500
18,908667	0,5	-0,494250
18,917000	0,5	-0,493750
18,925333	0,5	-0,496450
18,933667	0,5	-0,507050
18,942000	0,5	-0,518050
18,950333	0,5	-0,521700
18,958667	0,5	-0,518300
18,967000	0,5	-0,518250
18,975333	0,5	-0,518000
18,983667	0,5	-0,518650
18,992000	0,5	-0,522750
19,000333	0,5	-0,525100
19,008667	0,5	-0,532150
19,017000	0,5	-0,531050
19,025333	0,5	-0,534800
19,033667	0,5	-0,526600
19,042000	0,5	-0,534000
19,050333	0,5	-0,542550
19,058667	0,5	-0,540000
19,067000	0,5	-0,541200
19,075333	0,5	-0,552000
19,083667	0,5	-0,562450
19,092000	0,5	-0,572650
19,100333	0,5	-0,574050
19,108667	0,5	-0,577500
19,117000	0,5	-0,574050
19,125333	0,5	-0,579050
19,133667	0,5	-0,577500
19,142000	0,5	-0,580100
19,150333	0,5	-0,577650
19,158667	0,5	-0,576050
19,167000	0,5	-0,581050
19,175333	0,5	-0,579000
19,183667	0,5	-0,574800
19,192000	0,5	-0,586450
19,200333	0,5	-0,584950
19,208667	0,5	-0,576800
19,217000	0,5	-0,572500
19,225333	0,5	-0,578000
19,233667	0,5	-0,593900
19,242000	0,5	-0,593050
19,250333	0,5	-0,591800
19,258667	0,5	-0,587150
19,267000	0,5	-0,592050
19,275333	0,5	-0,589800
19,283667	0,5	-0,589450
19,292000	0,5	-0,586500
19,300333	0,5	-0,592150
19,308667	0,5	-0,586950
19,317000	0,5	-0,586250
19,325333	0,5	-0,586450
19,333667	0,5	-0,581250
19,342000	0,5	-0,594900
19,350333	0,5	-0,581500
19,358667	0,5	-0,578450
19,367000	0,5	-0,580750
19,375333	0,5	-0,589650
19,383667	0,5	-0,601600
19,392000	0,5	-0,601800
19,400333	0,5	-0,592500
19,408667	0,5	-0,599050
19,417000	0,5	-0,596750
19,425333	0,5	-0,601150
19,433667	0,5	-0,596250
19,442000	0,5	-0,600450
19,450333	0,5	-0,596050
19,458667	0,5	-0,597450
19,467000	0,5	-0,600750
19,475333	0,5	-0,588950
19,483667	0,5	-0,590900
19,492000	0,5	-0,603350
19,500333	0,5	-0,594350
19,508667	0,5	-0,591000
19,517000	0,5	-0,593800
19,525333	0,5	-0,597900
19,533667	0,5	-0,606450
19,542000	0,5	-0,585050
19,550333	0,5	-0,583350
19,558667	0,5	-0,574500
19,567000	0,5	-0,569700
19,575333	0,5	-0,557550
19,583667	0,5	-0,555500
19,592000	0,5	-0,551200
19,600333	0,5	-0,549650
19,608667	0,5	-0,546600
19,617000	0,5	-0,540750
19,625333	0,5	-0,530150
19,633667	0,5	-0,538450
19,642000	0,5	-0,534850
19,650333	0,5	-0,533100
19,658667	0,5	-0,539150
19,667000	0,5	-0,542900
19,675333	0,5	-0,560350
19,683667	0,5	-0,566500
19,692000	0,5	-0,574750
19,700333	0,5	-0,571750
19,708667	0,5	-0,576600
19,717000	0,5	-0,575450
19,725333	0,5	-0,577850
19,733667	0,5	-0,577900
19,742000	0,5	-0,584850
19,750333	0,5	-0,582100
19,758667	0,5	-0,582100
19,767000	0,5	-0,571550
19,775333	0,5	-0,576650
19,783667	0,5	-0,586950
19,792000	0,5	-0,579300
19,800333	0,5	-0,580600
19,808667	0,5	-0,579350
19,817000	0,5	-0,586600
19,825333	0,5	-0,596400
19,833667	0,5	-0,598900
19,842000	0,5	-0,586250
19,850333	0,5	-0,590250
19,858667	0,5	-0,582200
19,867000	0,5	-0,582000
19,875333	0,5	-0,576750
19,883667	0,5	-0,582100
19,892000	0,5	-0,578400
19,900333	0,5	-0,577200
19,908667	0,5	-0,573050
19,917000	0,5	-0,567650
19,925333	0,5	-0,571450
19,933667	0,5	-0,575550
19,942000	0,5	-0,564450
19,950333	0,5	-0,567350
19,958667	0,5	-0,565700
19,967000	0,5	-0,576700
19,975333	0,5	-0,583050
19,983667	0,5	-0,584050
19,992000	0,5	-0,581950
20,000333	0,5	-0,573900
20,008667	0,5	-0,568000
20,017000	0,5	-0,565150
20,025333	0,5	-0,566400
20,033667	0,5	-0,559900
20,042000	0,5	-0,559250
20,050333	0,5	-0,556500
20,058667	0,5	-0,549200
20,067000	0,5	-0,538050
20,075333	0,5	-0,553700
20,083667	0,5	-0,544900
20,092000	0,5	-0,536200
20,100333	0,5	-0,543550
20,108667	0,5	-0,547650
20,117000	0,5	-0,560400
20,125333	0,5	-0,550800
20,133667	0,5	-0,556000
20,142000	0,5	-0,555350
20,150333	0,5	-0,556400
20,158667	0,5	-0,553550
20,167000	0,5	-0,554750
20,175333	0,5	-0,550600
20,183667	0,5	-0,551800
20,192000	0,5	-0,541200
20,200333	0,5	-0,535950
20,208667	0,5	-0,521050
20,217000	0,5	-0,523900
20,225333	0,5	-0,520550
20,233667	0,5	-0,507200
20,242000	0,5	-0,496250
20,250333	0,5	-0,498550
20,258667	0,5	-0,500750
20,267000	0,5	-0,506650
20,275333	0,5	-0,513750
20,283667	0,5	-0,516550
20,292000	0,5	-0,521600
20,300333	0,5	-0,529150
20,308667	0,5	-0,538300
20,317000	0,5	-0,544100
20,325333	0,5	-0,553350
20,333667	0,5	-0,555850
20,342000	0,5	-0,562250
20,350333	0,5	-0,554250
20,358667	0,5	-0,548200
20,367000	0,5	-0,558950
20,375333	0,5	-0,560000
20,383667	0,5	-0,556550
20,392000	0,5	-0,556200
20,400333	0,5	-0,559450
20,408667	0,5	-0,577750
20,417000	0,5	-0,574350
20,425333	0,5	-0,568400
20,433667	0,5	-0,569150
20,442000	0,5	-0,569700
20,450333	0,5	-0,572200
20,458667	0,5	-0,569500
20,467000	0,5	-0,566550
20,475333	0,5	-0,568950
20,483667	0,5	-0,566000
20,492000	0,5	-0,557100
20,500333	0,5	-0,544100
20,508667	0,5	-0,533900
20,517000	0,5	-0,536300
20,525333	0,5	-0,516350
20,533667	0,5	-0,517750
20,542000	0,5	-0,512450
20,550333	0,5	-0,521800
20,558667	0,5	-0,536350
20,567000	0,5	-0,535500
20,575333	0,5	-0,542300
20,583667	0,5	-0,542900
20,592000	0,5	-0,538350
20,600333	0,5	-0,537400
20,608667	0,5	-0,538050
20,617000	0,5	-0,532600
20,625333	0,5	-0,533850
20,633667	0,5	-0,533000
20,642000	0,5	-0,528800
20,650333	0,5	-0,528650
20,658667	0,5	-0,507550
20,667000	0,5	-0,512350
20,675333	0,5	-0,513250
20,683667	0,5	-0,513150
20,692000	0,5	-0,519600
20,700333	0,5	-0,529250
20,708667	0,5	-0,534950
20,717000	0,5	-0,529000
20,725333	0,5	-0,520400
20,733667	0,5	-0,515850
20,742000	0,5	-0,515050
20,750333	0,5	-0,509000
20,758667	0,5	-0,499750
20,767000	0,5	-0,497450
20,775333	0,5	-0,492100
20,783667	0,5	-0,484800
20,792000	0,5	-0,460700
20,800333	0,5	-0,444900
20,808667	0,5	-0,447500
20,817000	0,5	-0,443750
20,825333	0,5	-0,445250
20,833667	0,5	-0,447100
20,842000	0,5	-0,455750
20,850333	0,5	-0,456900
20,858667	0,5	-0,454900
20,867000	0,5	-0,454100
20,875333	0,5	-0,441950
20,883667	0,5	-0,433700
20,892000	0,5	-0,427200
20,900333	0,5	-0,416550
20,908667	0,5	-0,410200
20,917000	0,5	-0,403800
20,925333	0,5	-0,401800
20,933667	0,5	-0,389400
20,942000	0,5	-0,371100
20,950333	0,5	-0,358400
20,958667	0,5	-0,360650
20,967000	0,5	-0,360450
20,975333	0,5	-0,364800
20,983667	0,5	-0,364800
20,992000	0,5	-0,376300
21,000333	0,5	-0,373300
21,008667	0,5	-0,371950
21,017000	0,5	-0,360400
21,025333	0,5	-0,354200
21,033667	0,5	-0,344200
21,042000	0,5	-0,333000
21,050333	0,5	-0,327650
21,058667	0,5	-0,313300
21,067000	0,5	-0,312450
21,075333	0,5	-0,300900
21,083667	0,5	-0,275800
21,092000	0,5	-0,259100
21,100333	0,5	-0,251750
21,108667	0,5	-0,254900
21,117000	0,5	-0,256300
21,125333	0,5	-0,258700
21,133667	0,5	-0,262200
21,142000	0,5	-0,264800
21,150333	0,5	-0,257500
21,158667	0,5	-0,244850
21,167000	0,5	-0,246100
21,175333	0,5	-0,231950
21,183667	0,5	-0,228900
21,192000	0,5	-0,222400
21,200333	0,5	-0,213750
21,208667	0,5	-0,210700
21,217000	0,5	-0,196900
21,225333	0,5	-0,191500
21,233667	0,5	-0,168000
21,242000	0,5	-0,143500
21,250333	0,5	-0,142200
21,258667	0,5	-0,133500
21,267000	0,5	-0,127050
21,275333	0,5	-0,128350
21,283667	0,5	-0,115350
21,292000	0,5	-0,105650
21,300333	0,5	-0,072000
21,308667	0,5	-0,041100
21,317000	0,5	0,004650
21,325333	0,5	0,051550
21,333667	0,5	0,098550
21,342000	0,5	0,130600
21,350333	0,5	0,139000
21,358667	0,5	0,130300
21,367000	0,5	0,110450
21,375333	0,5	0,113350
21,383667	0,5	0,112850
21,392000	0,5	0,116000
21,400333	0,5	0,109150
21,408667	0,5	0,120300
21,417000	0,5	0,129750
21,425333	0,5	0,141100
21,433667	0,5	0,130350
21,442000	0,5	0,143050
21,450333	0,5	0,145200
21,458667	0,5	0,138050
21,467000	0,5	0,136000
21,475333	0,5	0,142700
21,483667	0,5	0,139500
21,492000	0,5	0,141100
21,500333	0,5	0,147150
21,508667	0,5	0,149750
21,517000	0,5	0,163300
21,525333	0,5	0,190650
21,533667	0,5	0,218000
21,542000	0,5	0,225300
21,550333	0,5	0,244350
21,558667	0,5	0,244650
21,567000	0,5	0,251500
21,575333	0,5	0,252900
21,583667	0,5	0,245850
21,592000	0,5	0,258000
21,600333	0,5	0,274700
21,608667	0,5	0,283750
21,617000	0,5	0,296250
21,625333	0,5	0,311800
21,633667	0,5	0,329300
21,642000	0,5	0,349100
21,650333	0,5	0,365900
21,658667	0,5	0,376000
21,667000	0,5	0,395600
21,675333	0,5	0,424200
21,683667	0,5	0,440500
21,692000	0,5	0,447400
21,700333	0,5	0,457550
21,708667	0,5	0,470450
21,717000	0,5	0,472300
21,725333	0,5	0,479400
21,733667	0,5	0,488200
21,742000	0,5	0,508300
21,750333	0,5	0,522900
21,758667	0,5	0,544600
21,767000	0,5	0,564000
21,775333	0,5	0,581350
21,783667	0,5	0,600000
21,792000	0,5	0,616550
21,800333	0,5	0,641350
21,808667	0,5	0,661300
21,817000	0,5	0,704000
21,825333	0,5	0,735900
21,833667	0,5	0,756700
21,842000	0,5	0,780750
21,850333	0,5	0,804550
21,858667	0,5	0,824450
21,867000	0,5	0,844900
21,875333	0,5	0,866250
21,883667	0,5	0,897900
21,892000	0,5	0,924250
21,900333	0,5	0,949550
21,908667	0,5	0,967250
21,917000	0,5	0,993850
21,925333	0,5	1,008100
21,933667	0,5	1,029000
21,942000	0,5	1,042100
21,950333	0,5	1,048700
21,958667	0,5	1,075600
21,967000	0,5	1,099350
21,975333	0,5	1,110400
21,983667	0,5	1,126750
21,992000	0,5	1,153600
22,000333	0,5	1,166850
22,008667	0,5	1,194300
22,017000	0,5	1,195700
22,025333	0,5	1,227000
22,033667	0,5	1,256700
22,042000	0,5	1,281350
22,050333	0,5	1,305750
22,058667	0,5	1,340250
22,067000	0,5	1,371750
22,075333	0,5	1,404150
22,083667	0,5	1,439350
22,092000	0,5	1,468500
22,100333	0,5	1,505800
22,108667	0,5	1,549350
22,117000	0,5	1,584700
22,125333	0,5	1,616800
22,133667	0,5	1,657550
22,142000	0,5	1,680250
22,150333	0,5	1,700450
22,158667	0,5	1,713550
22,167000	0,5	1,740900
22,175333	0,5	1,777350
22,183667	0,5	1,812850
22,192000	0,5	1,848500
22,200333	0,5	1,891250
22,208667	0,5	1,926700
22,217000	0,5	1,965450
22,225333	0,5	2,005500
22,233667	0,5	2,048050
22,242000	0,5	2,083350
22,250333	0,5	2,123850
22,258667	0,5	2,178450
22,267000	0,5	2,214550
22,275333	0,5	2,284950
22,283667	0,5	2,338650
22,292000	0,5	2,391600
22,300333	0,5	2,426550
22,308667	0,5	2,457900
22,317000	0,5	2,499500
22,325333	0,5	2,543700
22,333667	0,5	2,577200
22,342000	0,5	2,620400
22,350333	0,5	2,668100
22,358667	0,5	2,719550
22,367000	0,5	2,770050
22,375333	0,5	2,820900
22,383667	0,5	2,876250
22,392000	0,5	2,927350
22,400333	0,5	2,972100
22,408667	0,5	3,027200
22,417000	0,5	3,087400
22,425333	0,5	3,162300
22,433667	0,5	3,218300
22,442000	0,5	3,272050
22,450333	0,5	3,327400
22,458667	0,5	3,371450
22,467000	0,5	3,442700
22,475333	0,5	3,503000
22,483667	0,5	3,569050
22,492000	0,5	3,630450
22,500333	0,5	3,689700
22,508667	0,5	3,750950
22,517000	0,5	3,811100
22,525333	0,5	3,874150
22,533667	0,5	3,926250
22,542000	0,5	3,979750
22,550333	0,5	4,015850
22,558667	0,5	4,082000
22,567000	0,5	4,140100
22,575333	0,5	4,203100
22,583667	0,5	4,241050
22,592000	0,5	4,278650
22,600333	0,5	4,306000
22,608667	0,5	4,345050
22,617000	0,5	4,378900
22,625333	0,5	4,412100
22,633667	0,5	4,435700
22,642000	0,5	4,465600
22,650333	0,5	4,480150
22,658667	0,5	4,495100
22,667000	0,5	4,512200
22,675333	0,5	4,510050
22,683667	0,5	4,504700
22,692000	0,5	4,455850
22,700333	0,5	4,442500
22,708667	0,5	4,426600
22,717000	0,5	4,404400
22,725333	0,5	4,348350
22,733667	0,5	4,281200
22,742000	0,5	4,196850
22,750333	0,5	4,105600
22,758667	0,5	4,005000
22,767000	0,5	3,916850
22,775333	0,5	3,811050
22,783667	0,5	3,703550
22,792000	0,5	3,592300
22,800333	0,5	3,474800
22,808667	0,5	3,354550
22,817000	0,5	3,230900
22,825333	0,5	3,100150
22,833667	0,5	2,968000
22,842000	0,5	2,799700
22,850333	0,5	2,669400
22,858667	0,5	2,549400
22,867000	0,5	2,399200
22,875333	0,5	2,253800
22,883667	0,5	2,098800
22,892000	0,5	1,955600
22,900333	0,5	1,803950
22,908667	0,5	1,645900
22,917000	0,5	1,500650
22,925333	0,5	1,349750
22,933667	0,5	1,206650
22,942000	0,5	1,064600
22,950333	0,5	0,925450
22,958667	0,5	0,789200
22,967000	0,5	0,650000
22,975333	0,5	0,526150
22,983667	0,5	0,412800
22,992000	0,5	0,278050
23,000333	0,5	0,152800
23,008667	0,5	0,005550
23,017000	0,5	-0,129350
23,025333	0,5	-0,231750
23,033667	0,5	-0,342600
23,042000	0,5	-0,435750
23,050333	0,5	-0,541700
23,058667	0,5	-0,630150
23,067000	0,5	-0,722850
23,075333	0,5	-0,799750
23,083667	0,5	-0,876800
23,092000	0,5	-0,944450
23,100333	0,5	-1,011750
23,108667	0,5	-1,071900
23,117000	0,5	-1,136950
23,125333	0,5	-1,196900
23,133667	0,5	-1,227550
23,142000	0,5	-1,281150
23,150333	0,5	-1,347400
23,158667	0,5	-1,431000
23,167000	0,5	-1,476500
23,175333	0,5	-1,516600
23,183667	0,5	-1,548550
23,192000	0,5	-1,584650
23,200333	0,5	-1,617300
23,208667	0,5	-1,654450
23,217000	0,5	-1,674100
23,225333	0,5	-1,695450
23,233667	0,5	-1,708450
23,242000	0,5	-1,725650
23,250333	0,5	-1,736850
23,258667	0,5	-1,751650
23,267000	0,5	-1,760500
23,275333	0,5	-1,754100
23,283667	0,5	-1,777000
23,292000	0,5	-1,768450
23,300333	0,5	-1,783500
23,308667	0,5	-1,818450
23,317000	0,5	-1,842900
23,325333	0,5	-1,844050
23,333667	0,5	-1,846500
23,342000	0,5	-1,843200
23,350333	0,5	-1,852050
23,358667	0,5	-1,846750
23,367000	0,5	-1,844750
23,375333	0,5	-1,831950
23,383667	0,5	-1,827550
23,392000	0,5	-1,815250
23,400333	0,5	-1,807350
23,408667	0,5	-1,795500
23,417000	0,5	-1,784850
23,425333	0,5	-1,798800
23,433667	0,5	-1,780900
23,442000	0,5	-1,753050
23,450333	0,5	-1,730900
23,458667	0,5	-1,740000
23,467000	0,5	-1,739700
23,475333	0,5	-1,734600
23,483667	0,5	-1,719950
23,492000	0,5	-1,717700
23,500333	0,5	-1,708500
23,508667	0,5	-1,701500
23,517000	0,5	-1,693050
23,525333	0,5	-1,680250
23,533667	0,5	-1,669750
23,542000	0,5	-1,655400
23,550333	0,5	-1,637200
23,558667	0,5	-1,628150
23,567000	0,5	-1,614650
23,575333	0,5	-1,678500
23,583667	0,5	-1,631550
23,592000	0,5	-1,593750
23,600333	0,5	-1,553450
23,608667	0,5	-1,545600
23,617000	0,5	-1,536450
23,625333	0,5	-1,529100
23,633667	0,5	-1,516450
23,642000	0,5	-1,504400
23,650333	0,5	-1,494850
23,658667	0,5	-1,480200
23,667000	0,5	-1,466550
23,675333	0,5	-1,453150
23,683667	0,5	-1,442150
23,692000	0,5	-1,430950
23,700333	0,5	-1,416850
23,708667	0,5	-1,403550
23,717000	0,5	-1,422000
23,725333	0,5	-1,486750
23,733667	0,5	-1,426350
23,742000	0,5	-1,382900
23,750333	0,5	-1,344050
23,758667	0,5	-1,332750
23,767000	0,5	-1,320000
23,775333	0,5	-1,311700
23,783667	0,5	-1,307700
23,792000	0,5	-1,286400
23,800333	0,5	-1,267250
23,808667	0,5	-1,251850
23,817000	0,5	-1,233850
23,825333	0,5	-1,219350
23,833667	0,5	-1,202750
23,842000	0,5	-1,182600
23,850333	0,5	-1,170800
23,858667	0,5	-1,146750
23,867000	0,5	-1,237950
23,875333	0,5	-1,218600
23,883667	0,5	-1,200950
23,892000	0,5	-1,134550
23,900333	0,5	-1,102950
23,908667	0,5	-1,087800
23,917000	0,5	-1,079850
23,925333	0,5	-1,078000
23,933667	0,5	-1,062850
23,942000	0,5	-1,044200
23,950333	0,5	-1,031400
23,958667	0,5	-1,013450
23,967000	0,5	-0,999700
23,975333	0,5	-0,981550
23,983667	0,5	-0,966700
23,992000	0,5	-0,948600
24,000333	0,5	-0,926050
24,008667	0,5	-0,927400
24,017000	0,5	-1,011100
24,025333	0,5	-0,983350
24,033667	0,5	-0,938300
24,042000	0,5	-0,888550
24,050333	0,5	-0,855850
24,058667	0,5	-0,843900
24,067000	0,5	-0,832850
24,075333	0,5	-0,844750
24,083667	0,5	-0,822850
24,092000	0,5	-0,806950
24,100333	0,5	-0,787750
24,108667	0,5	-0,780800
24,117000	0,5	-0,758600
24,125333	0,5	-0,745500
24,133667	0,5	-0,729650
24,142000	0,5	-0,715550
24,150333	0,5	-0,705300
24,158667	0,5	-0,737300
24,167000	0,5	-0,772200
24,175333	0,5	-0,751200
24,183667	0,5	-0,702750
24,192000	0,5	-0,665000
24,200333	0,5	-0,643350
24,208667	0,5	-0,631600
24,217000	0,5	-0,631650
24,225333	0,5	-0,616550
24,233667	0,5	-0,600450
24,242000	0,5	-0,581550
24,250333	0,5	-0,570250
24,258667	0,5	-0,555700
24,267000	0,5	-0,547450
24,275333	0,5	-0,532900
24,283667	0,5	-0,520650
24,292000	0,5	-0,505850
24,300333	0,5	-0,496950
24,308667	0,5	-0,577050
24,317000	0,5	-0,543250
24,325333	0,5	-0,532900
24,333667	0,5	-0,493150
24,342000	0,5	-0,468900
24,350333	0,5	-0,454300
24,358667	0,5	-0,445700
24,367000	0,5	-0,450750
24,375333	0,5	-0,443500
24,383667	0,5	-0,425150
24,392000	0,5	-0,417500
24,400333	0,5	-0,403600
24,408667	0,5	-0,394850
24,417000	0,5	-0,379150
24,425333	0,5	-0,371050
24,433667	0,5	-0,353800
24,442000	0,5	-0,347600
24,450333	0,5	-0,346550
24,458667	0,5	-0,396050
24,467000	0,5	-0,372200
24,475333	0,5	-0,359500
24,483667	0,5	-0,321250
24,492000	0,5	-0,308850
24,500333	0,5	-0,300600
24,508667	0,5	-0,299100
24,517000	0,5	-0,307050
24,525333	0,5	-0,295450
24,533667	0,5	-0,288450
24,542000	0,5	-0,276600
24,550333	0,5	-0,270000
24,558667	0,5	-0,261100
24,567000	0,5	-0,265700
24,575333	0,5	-0,245750
24,583667	0,5	-0,242800
24,592000	0,5	-0,231700
24,600333	0,5	-0,250500
24,608667	0,5	-0,262900
24,617000	0,5	-0,247750
24,625333	0,5	-0,227650
24,633667	0,5	-0,207100
24,642000	0,5	-0,196500
24,650333	0,5	-0,192400
24,658667	0,5	-0,198050
24,667000	0,5	-0,200900
24,675333	0,5	-0,193000
24,683667	0,5	-0,183500
24,692000	0,5	-0,178050
24,700333	0,5	-0,170900
24,708667	0,5	-0,167350
24,717000	0,5	-0,162400
24,725333	0,5	-0,156100
24,733667	0,5	-0,149350
24,742000	0,5	-0,144700
24,750333	0,5	-0,171200
24,758667	0,5	-0,171650
24,767000	0,5	-0,155550
24,775333	0,5	-0,139650
24,783667	0,5	-0,126350
24,792000	0,5	-0,122700
24,800333	0,5	-0,121050
24,808667	0,5	-0,122850
24,817000	0,5	-0,121650
24,825333	0,5	-0,113700
24,833667	0,5	-0,111800
24,842000	0,5	-0,106700
24,850333	0,5	-0,103350
24,858667	0,5	-0,097100
24,867000	0,5	-0,092450
24,875333	0,5	-0,086500
24,883667	0,5	-0,081550
24,892000	0,5	-0,080950
24,900333	0,5	-0,098750
24,908667	0,5	-0,088100
24,917000	0,5	-0,088950
24,925333	0,5	-0,072750
24,933667	0,5	-0,066850
24,942000	0,5	-0,063450
24,950333	0,5	-0,070050
24,958667	0,5	-0,073000
24,967000	0,5	-0,067100
24,975333	0,5	-0,058550
24,983667	0,5	-0,055750
24,992000	0,5	-0,054350
25,000333	0,5	-0,047400
25,008667	0,5	-0,047050
25,017000	0,5	-0,042350
25,025333	0,5	-0,037750
25,033667	0,5	-0,034700
25,042000	0,5	-0,045700
25,050333	0,5	-0,044250
25,058667	0,5	-0,041400
25,067000	0,5	-0,035350
25,075333	0,5	-0,028150
25,083667	0,5	-0,025100
25,092000	0,5	-0,022700
25,100333	0,5	-0,027050
25,108667	0,5	-0,027900
25,117000	0,5	-0,025900
25,125333	0,5	-0,022750
25,133667	0,5	-0,021950
25,142000	0,5	-0,018850
25,150333	0,5	-0,018800
25,158667	0,5	-0,017050
25,167000	0,5	-0,015700
25,175333	0,5	-0,008700
25,183667	0,5	-0,008650
25,192000	0,5	-0,015250
25,200333	0,5	-0,008850
25,208667	0,5	-0,006850
25,217000	0,5	-0,002200
25,225333	0,5	0,001700
25,233667	0,5	0,002050
25,242000	0,5	0,000000
25,250333	0,5	-0,004450
25,258667	0,5	0,000750
25,267000	0,5	-0,001150
25,275333	0,5	-0,001900
25,283667	0,5	0,001900
25,292000	0,5	0,002350
25,300333	0,5	0,003100
25,308667	0,5	0,003500
25,317000	0,5	0,001950
25,325333	0,5	0,003750
25,333667	0,5	0,005350
25,342000	0,5	0,004050
25,350333	0,5	0,005900
25,358667	0,5	0,009550
25,367000	0,5	0,010100
25,375333	0,5	0,011500
25,383667	0,5	0,012450
25,392000	0,5	0,014600
25,400333	0,5	0,012600
25,408667	0,5	0,013750
25,417000	0,5	0,013050
25,425333	0,5	0,012200
25,433667	0,5	0,011700
25,442000	0,5	0,010000
25,450333	0,5	0,011950
25,458667	0,5	0,010500
25,467000	0,5	0,014550
25,475333	0,5	0,012250
25,483667	0,5	0,013200
25,492000	0,5	0,014100
25,500333	0,5	0,014300
25,508667	0,5	0,017300
25,517000	0,5	0,015050
25,525333	0,5	0,017250
25,533667	0,5	0,014950
25,542000	0,5	0,018800
25,550333	0,5	0,018650
25,558667	0,5	0,018000
25,567000	0,5	0,021200
25,575333	0,5	0,018900
25,583667	0,5	0,022050
25,592000	0,5	0,019800
25,600333	0,5	0,021500
25,608667	0,5	0,018400
25,617000	0,5	0,022150
25,625333	0,5	0,019950
25,633667	0,5	0,022150
25,642000	0,5	0,025000
25,650333	0,5	0,023350
25,658667	0,5	0,024250
25,667000	0,5	0,021500
25,675333	0,5	0,020750
25,683667	0,5	0,023000
25,692000	0,5	0,023450
25,700333	0,5	0,027200
25,708667	0,5	0,027900
25,717000	0,5	0,029600
25,725333	0,5	0,028700
25,733667	0,5	0,029900
25,742000	0,5	0,028300
25,750333	0,5	0,029300
25,758667	0,5	0,027900
25,767000	0,5	0,026800
25,775333	0,5	0,031500
25,783667	0,5	0,029600
25,792000	0,5	0,028650
25,800333	0,5	0,030700
25,808667	0,5	0,027100
25,817000	0,5	0,030250
25,825333	0,5	0,030700
25,833667	0,5	0,029950
25,842000	0,5	0,034500
25,850333	0,5	0,034650
25,858667	0,5	0,038600
25,867000	0,5	0,038300
25,875333	0,5	0,035650
25,883667	0,5	0,039950
25,892000	0,5	0,035800
25,900333	0,5	0,035600
25,908667	0,5	0,036400
25,917000	0,5	0,038600
25,925333	0,5	0,041400
25,933667	0,5	0,040700
25,942000	0,5	0,046700
25,950333	0,5	0,045650
25,958667	0,5	0,038050
25,967000	0,5	0,039400
25,975333	0,5	0,040900
25,983667	0,5	0,043400
25,992000	0,5	0,046850
26,000333	0,5	0,046650
