File Path	chrom://chromeleon01/ikbm_chromeleon/2022/ICS-5000/ED1/Esteban/20220612_Cell_7_4_eg.seq/886.smp/ED_1.channel/ED_1.chm
Channel	ED_1

Injection Information:
Data Vault	ikbm_chromeleon
Injection	C-NE_24h-EGI_
Injection Number	68
Position	GB8
Comment	
Processing Method	Stop sequence after Cell Death
Instrument Method	ICS5000_PA200_FullNative_Ox_26min_ED1
Type	Unknown
Status	Finished
Injection Date	14.06.2022
Injection Time	00:00:02
Injection Volume (µl)	5,0
Dilution Factor	1,0000
Weight	1,0000

Chromatogram Data Information:
Time Min. (min)	0,000167
Time Max. (min)	26,000167
Data Points	3121
Detector	EDet1
Generating Data System	Chromeleon 7.2.9.11323
Exporting Data System	Chromeleon 7.2.9.0
Operator	Instrument Controller
Signal Quantity	
Signal Unit	nC
Signal Min.	-2,092400
Signal Max.	1 880,630878
Channel	ED_1
Driver Name	DC-5000
Channel Type	Evaluation
Min. Step (s)	0,5
Max. Step (s)	0,5
Average Step (s)	0,5

Signal Parameter Information:
Signal Info	

Chromatogram Data:
Time (min)	Step (s)	Value (nC)
0,000167	n.a.	-0,040750
0,008500	0,5	-0,032150
0,016833	0,5	-0,017550
0,025167	0,5	-0,012050
0,033500	0,5	0,002850
0,041833	0,5	-0,000250
0,050167	0,5	0,004650
0,058500	0,5	-0,001600
0,066833	0,5	0,004250
0,075167	0,5	0,005550
0,083500	0,5	0,011350
0,091833	0,5	-0,002250
0,100167	0,5	-0,017550
0,108500	0,5	-0,020550
0,116833	0,5	0,006200
0,125167	0,5	-0,017500
0,133500	0,5	-0,026300
0,141833	0,5	-0,019300
0,150167	0,5	-0,007050
0,158500	0,5	0,012300
0,166833	0,5	0,008450
0,175167	0,5	0,015100
0,183500	0,5	0,015900
0,191833	0,5	0,006600
0,200167	0,5	0,002400
0,208500	0,5	0,001050
0,216833	0,5	-0,008100
0,225167	0,5	-0,009450
0,233500	0,5	-0,011600
0,241833	0,5	-0,014300
0,250167	0,5	-0,037250
0,258500	0,5	-0,023300
0,266833	0,5	-0,008850
0,275167	0,5	-0,021900
0,283500	0,5	-0,035000
0,291833	0,5	0,005650
0,300167	0,5	0,040350
0,308500	0,5	0,039550
0,316833	0,5	-0,005350
0,325167	0,5	-0,025450
0,333500	0,5	-0,038200
0,341833	0,5	-0,034650
0,350167	0,5	-0,037400
0,358500	0,5	-0,034150
0,366833	0,5	-0,031150
0,375167	0,5	-0,036950
0,383500	0,5	-0,032400
0,391833	0,5	-0,041700
0,400167	0,5	-0,049250
0,408500	0,5	-0,040550
0,416833	0,5	-0,043950
0,425167	0,5	-0,057100
0,433500	0,5	-0,059650
0,441833	0,5	-0,051150
0,450167	0,5	-0,026150
0,458500	0,5	-0,027600
0,466833	0,5	-0,025550
0,475167	0,5	-0,038350
0,483500	0,5	-0,028200
0,491833	0,5	-0,037000
0,500167	0,5	-0,034350
0,508500	0,5	-0,041650
0,516833	0,5	-0,043750
0,525167	0,5	-0,045250
0,533500	0,5	-0,048150
0,541833	0,5	-0,043600
0,550167	0,5	-0,059550
0,558500	0,5	-0,030650
0,566833	0,5	-0,045800
0,575167	0,5	-0,053350
0,583500	0,5	-0,059650
0,591833	0,5	-0,048350
0,600167	0,5	-0,025100
0,608500	0,5	-0,021450
0,616833	0,5	-0,038850
0,625167	0,5	-0,028450
0,633500	0,5	-0,034350
0,641833	0,5	-0,029050
0,650167	0,5	-0,040000
0,658500	0,5	-0,030350
0,666833	0,5	-0,043150
0,675167	0,5	-0,036600
0,683500	0,5	-0,035900
0,691833	0,5	-0,044000
0,700167	0,5	-0,051500
0,708500	0,5	-0,031850
0,716833	0,5	-0,055600
0,725167	0,5	-0,053500
0,733500	0,5	-0,052150
0,741833	0,5	-0,042000
0,750167	0,5	-0,011150
0,758500	0,5	-0,014300
0,766833	0,5	-0,014850
0,775167	0,5	-0,021200
0,783500	0,5	-0,019150
0,791833	0,5	-0,025600
0,800167	0,5	-0,022350
0,808500	0,5	-0,026650
0,816833	0,5	-0,025950
0,825167	0,5	-0,031900
0,833500	0,5	-0,039600
0,841833	0,5	-0,042250
0,850167	0,5	-0,026850
0,858500	0,5	-0,033300
0,866833	0,5	-0,044400
0,875167	0,5	-0,045450
0,883500	0,5	-0,039100
0,891833	0,5	-0,024100
0,900167	0,5	-0,006150
0,908500	0,5	-0,003050
0,916833	0,5	-0,006500
0,925167	0,5	-0,006900
0,933500	0,5	-0,006800
0,941833	0,5	-0,005950
0,950167	0,5	-0,011150
0,958500	0,5	-0,015950
0,966833	0,5	-0,021100
0,975167	0,5	-0,011750
0,983500	0,5	-0,028150
0,991833	0,5	-0,024750
1,000167	0,5	-0,013800
1,008500	0,5	-0,014750
1,016833	0,5	-0,035100
1,025167	0,5	-0,025600
1,033500	0,5	-0,027150
1,041833	0,5	0,006200
1,050167	0,5	0,014500
1,058500	0,5	0,010000
1,066833	0,5	0,005000
1,075167	0,5	0,007750
1,083500	0,5	0,002100
1,091833	0,5	0,003500
1,100167	0,5	0,004100
1,108500	0,5	-0,001000
1,116833	0,5	0,003100
1,125167	0,5	0,000300
1,133500	0,5	-0,001350
1,141833	0,5	-0,005850
1,150167	0,5	0,014350
1,158500	0,5	-0,006800
1,166833	0,5	-0,010550
1,175167	0,5	-0,005450
1,183500	0,5	0,003000
1,191833	0,5	0,020350
1,200167	0,5	0,019850
1,208500	0,5	0,014150
1,216833	0,5	0,021450
1,225167	0,5	0,017600
1,233500	0,5	0,024050
1,241833	0,5	0,019700
1,250167	0,5	0,016600
1,258500	0,5	0,014500
1,266833	0,5	0,012750
1,275167	0,5	0,012600
1,283500	0,5	-0,002100
1,291833	0,5	0,008600
1,300167	0,5	0,024100
1,308500	0,5	0,006000
1,316833	0,5	-0,003850
1,325167	0,5	0,005750
1,333500	0,5	0,017900
1,341833	0,5	0,037200
1,350167	0,5	0,021200
1,358500	0,5	0,026750
1,366833	0,5	0,020250
1,375167	0,5	0,028350
1,383500	0,5	0,013950
1,391833	0,5	0,020500
1,400167	0,5	0,011550
1,408500	0,5	0,010500
1,416833	0,5	0,010250
1,425167	0,5	0,006250
1,433500	0,5	-0,012100
1,441833	0,5	0,000450
1,450167	0,5	-0,001500
1,458500	0,5	-0,015150
1,466833	0,5	-0,019500
1,475167	0,5	-0,014700
1,483500	0,5	0,003000
1,491833	0,5	0,007200
1,500167	0,5	-0,000200
1,508500	0,5	-0,010800
1,516833	0,5	-0,009600
1,525167	0,5	-0,008000
1,533500	0,5	-0,010300
1,541833	0,5	-0,021650
1,550167	0,5	-0,005200
1,558500	0,5	0,047650
1,566833	0,5	0,183500
1,575167	0,5	0,322650
1,583500	0,5	0,636150
1,591833	0,5	3,160700
1,600167	0,5	13,694850
1,608500	0,5	47,133501
1,616833	0,5	130,499202
1,625167	0,5	265,626104
1,633500	0,5	387,301006
1,641833	0,5	425,032006
1,650167	0,5	377,044356
1,658500	0,5	292,139354
1,666833	0,5	213,414753
1,675167	0,5	156,378102
1,683500	0,5	120,017002
1,691833	0,5	100,545051
1,700167	0,5	97,157851
1,708500	0,5	106,455852
1,716833	0,5	114,828552
1,725167	0,5	109,850002
1,733500	0,5	93,244401
1,741833	0,5	74,828351
1,750167	0,5	61,858101
1,758500	0,5	57,840751
1,766833	0,5	63,811001
1,775167	0,5	77,064851
1,783500	0,5	91,434801
1,791833	0,5	102,416852
1,800167	0,5	108,952402
1,808500	0,5	110,582852
1,816833	0,5	106,941902
1,825167	0,5	99,401701
1,833500	0,5	90,667651
1,841833	0,5	82,624001
1,850167	0,5	75,662651
1,858500	0,5	69,698851
1,866833	0,5	65,025851
1,875167	0,5	62,062751
1,883500	0,5	61,638401
1,891833	0,5	65,316601
1,900167	0,5	73,704351
1,908500	0,5	81,950401
1,916833	0,5	82,779001
1,925167	0,5	77,196851
1,933500	0,5	74,208201
1,941833	0,5	83,066751
1,950167	0,5	115,138802
1,958500	0,5	198,997503
1,966833	0,5	381,647856
1,975167	0,5	637,723860
1,983500	0,5	799,262162
1,991833	0,5	758,419261
2,000167	0,5	590,239209
2,008500	0,5	418,571706
2,016833	0,5	295,874954
2,025167	0,5	216,308853
2,033500	0,5	165,882952
2,041833	0,5	136,415402
2,050167	0,5	125,040802
2,058500	0,5	129,686452
2,066833	0,5	139,398252
2,075167	0,5	140,545702
2,083500	0,5	131,698002
2,091833	0,5	118,490302
2,100167	0,5	103,576802
2,108500	0,5	89,005301
2,116833	0,5	77,341201
2,125167	0,5	69,033801
2,133500	0,5	63,084051
2,141833	0,5	59,376301
2,150167	0,5	57,856951
2,158500	0,5	56,470801
2,166833	0,5	53,173151
2,175167	0,5	48,702651
2,183500	0,5	44,749501
2,191833	0,5	41,734551
2,200167	0,5	39,369901
2,208500	0,5	37,473751
2,216833	0,5	36,028251
2,225167	0,5	34,966851
2,233500	0,5	34,135451
2,241833	0,5	33,493300
2,250167	0,5	33,106600
2,258500	0,5	32,888950
2,266833	0,5	32,688100
2,275167	0,5	32,478350
2,283500	0,5	32,724750
2,291833	0,5	34,287101
2,300167	0,5	37,347501
2,308500	0,5	40,972101
2,316833	0,5	45,429351
2,325167	0,5	48,156651
2,333500	0,5	45,301451
2,341833	0,5	40,804501
2,350167	0,5	38,876851
2,358500	0,5	39,292151
2,366833	0,5	41,085951
2,375167	0,5	43,515651
2,383500	0,5	45,801801
2,391833	0,5	47,364951
2,400167	0,5	47,818001
2,408500	0,5	47,191801
2,416833	0,5	45,728901
2,425167	0,5	43,820501
2,433500	0,5	41,780001
2,441833	0,5	39,886451
2,450167	0,5	38,325801
2,458500	0,5	37,309901
2,466833	0,5	36,950701
2,475167	0,5	37,229101
2,483500	0,5	37,840451
2,491833	0,5	39,017451
2,500167	0,5	42,791951
2,508500	0,5	53,498451
2,516833	0,5	74,429101
2,525167	0,5	105,424052
2,533500	0,5	149,330202
2,541833	0,5	233,042253
2,550167	0,5	474,536107
2,558500	0,5	1 009,386365
2,566833	0,5	1 537,304073
2,575167	0,5	1 834,398127
2,583500	0,5	1 880,630878
2,591833	0,5	1 783,081527
2,600167	0,5	1 598,971624
2,608500	0,5	1 368,327170
2,616833	0,5	1 132,783817
2,625167	0,5	928,213614
2,633500	0,5	761,378661
2,641833	0,5	632,414159
2,650167	0,5	533,053308
2,658500	0,5	453,800407
2,666833	0,5	384,831856
2,675167	0,5	326,700905
2,683500	0,5	278,243654
2,691833	0,5	238,942304
2,700167	0,5	208,067853
2,708500	0,5	184,137353
2,716833	0,5	164,850202
2,725167	0,5	147,777702
2,733500	0,5	131,455102
2,741833	0,5	115,778052
2,750167	0,5	101,383452
2,758500	0,5	89,024501
2,766833	0,5	78,927251
2,775167	0,5	70,972551
2,783500	0,5	64,617901
2,791833	0,5	59,488101
2,800167	0,5	55,207801
2,808500	0,5	51,569251
2,816833	0,5	48,414001
2,825167	0,5	45,658351
2,833500	0,5	43,282101
2,841833	0,5	41,366101
2,850167	0,5	39,915401
2,858500	0,5	38,953101
2,866833	0,5	38,326001
2,875167	0,5	37,765801
2,883500	0,5	36,962201
2,891833	0,5	35,707701
2,900167	0,5	33,995951
2,908500	0,5	32,010300
2,916833	0,5	30,063250
2,925167	0,5	28,325850
2,933500	0,5	26,862850
2,941833	0,5	25,707400
2,950167	0,5	24,802050
2,958500	0,5	24,119950
2,966833	0,5	23,666650
2,975167	0,5	23,448250
2,983500	0,5	23,648300
2,991833	0,5	24,428100
3,000167	0,5	25,868250
3,008500	0,5	27,620450
3,016833	0,5	29,019250
3,025167	0,5	29,371550
3,033500	0,5	28,443950
3,041833	0,5	26,492400
3,050167	0,5	24,072100
3,058500	0,5	21,774350
3,066833	0,5	19,950350
3,075167	0,5	18,603700
3,083500	0,5	17,649450
3,091833	0,5	16,938400
3,100167	0,5	16,344350
3,108500	0,5	15,831300
3,116833	0,5	15,344900
3,125167	0,5	14,907100
3,133500	0,5	14,510750
3,141833	0,5	14,190350
3,150167	0,5	13,916450
3,158500	0,5	13,710450
3,166833	0,5	13,514950
3,175167	0,5	13,326450
3,183500	0,5	13,115250
3,191833	0,5	12,878650
3,200167	0,5	12,615800
3,208500	0,5	12,361200
3,216833	0,5	12,135450
3,225167	0,5	11,919700
3,233500	0,5	11,737500
3,241833	0,5	11,587700
3,250167	0,5	11,466600
3,258500	0,5	11,382200
3,266833	0,5	11,323450
3,275167	0,5	11,311150
3,283500	0,5	11,354600
3,291833	0,5	11,417950
3,300167	0,5	11,501250
3,308500	0,5	11,566600
3,316833	0,5	11,618600
3,325167	0,5	11,642550
3,333500	0,5	11,662250
3,341833	0,5	11,671050
3,350167	0,5	11,693650
3,358500	0,5	11,738250
3,366833	0,5	11,831800
3,375167	0,5	11,913700
3,383500	0,5	12,020600
3,391833	0,5	12,107350
3,400167	0,5	12,164900
3,408500	0,5	12,175650
3,416833	0,5	12,117800
3,425167	0,5	12,037450
3,433500	0,5	11,952200
3,441833	0,5	11,886750
3,450167	0,5	11,865650
3,458500	0,5	11,914350
3,466833	0,5	12,041250
3,475167	0,5	12,231200
3,483500	0,5	12,407450
3,491833	0,5	12,487300
3,500167	0,5	12,350250
3,508500	0,5	12,012700
3,516833	0,5	11,470600
3,525167	0,5	10,831000
3,533500	0,5	10,197850
3,541833	0,5	9,661400
3,550167	0,5	9,236100
3,558500	0,5	8,916500
3,566833	0,5	8,679300
3,575167	0,5	8,534150
3,583500	0,5	8,457700
3,591833	0,5	8,458300
3,600167	0,5	8,519700
3,608500	0,5	8,629350
3,616833	0,5	8,769600
3,625167	0,5	8,904100
3,633500	0,5	9,027900
3,641833	0,5	9,106300
3,650167	0,5	9,152900
3,658500	0,5	9,182000
3,666833	0,5	9,172250
3,675167	0,5	9,142100
3,683500	0,5	9,091750
3,691833	0,5	9,012200
3,700167	0,5	8,913300
3,708500	0,5	8,771600
3,716833	0,5	8,611650
3,725167	0,5	8,441800
3,733500	0,5	8,289450
3,741833	0,5	8,150600
3,750167	0,5	8,034600
3,758500	0,5	7,932300
3,766833	0,5	7,853600
3,775167	0,5	7,786100
3,783500	0,5	7,720800
3,791833	0,5	7,657100
3,800167	0,5	7,580150
3,808500	0,5	7,510450
3,816833	0,5	7,416700
3,825167	0,5	7,345950
3,833500	0,5	7,306950
3,841833	0,5	7,320750
3,850167	0,5	7,383650
3,858500	0,5	7,520600
3,866833	0,5	7,738850
3,875167	0,5	8,094350
3,883500	0,5	8,592750
3,891833	0,5	9,285400
3,900167	0,5	10,169700
3,908500	0,5	11,251400
3,916833	0,5	12,480750
3,925167	0,5	13,818900
3,933500	0,5	15,226450
3,941833	0,5	16,727400
3,950167	0,5	18,451250
3,958500	0,5	20,573150
3,966833	0,5	23,240250
3,975167	0,5	26,527400
3,983500	0,5	30,235100
3,991833	0,5	33,960601
4,000167	0,5	37,095601
4,008500	0,5	39,057501
4,016833	0,5	39,520451
4,025167	0,5	38,389401
4,033500	0,5	35,910151
4,041833	0,5	32,460850
4,050167	0,5	28,564000
4,058500	0,5	24,643000
4,066833	0,5	21,062450
4,075167	0,5	18,001900
4,083500	0,5	15,529550
4,091833	0,5	13,640500
4,100167	0,5	12,295650
4,108500	0,5	11,345750
4,116833	0,5	10,713450
4,125167	0,5	10,308900
4,133500	0,5	10,043950
4,141833	0,5	9,852250
4,150167	0,5	9,652750
4,158500	0,5	9,427850
4,166833	0,5	9,168350
4,175167	0,5	8,889100
4,183500	0,5	8,613750
4,191833	0,5	8,394150
4,200167	0,5	8,246850
4,208500	0,5	8,203800
4,216833	0,5	8,256550
4,225167	0,5	8,383250
4,233500	0,5	8,515250
4,241833	0,5	8,631150
4,250167	0,5	8,679150
4,258500	0,5	8,587200
4,266833	0,5	8,386200
4,275167	0,5	8,101400
4,283500	0,5	7,756050
4,291833	0,5	7,411850
4,300167	0,5	7,067300
4,308500	0,5	6,774800
4,316833	0,5	6,533550
4,325167	0,5	6,337450
4,333500	0,5	6,169100
4,341833	0,5	6,007250
4,350167	0,5	5,865150
4,358500	0,5	5,720650
4,366833	0,5	5,595900
4,375167	0,5	5,477450
4,383500	0,5	5,372300
4,391833	0,5	5,285050
4,400167	0,5	5,222900
4,408500	0,5	5,138800
4,416833	0,5	5,079150
4,425167	0,5	5,025650
4,433500	0,5	4,981950
4,441833	0,5	4,939950
4,450167	0,5	4,882850
4,458500	0,5	4,834300
4,466833	0,5	4,800700
4,475167	0,5	4,765750
4,483500	0,5	4,742850
4,491833	0,5	4,724600
4,500167	0,5	4,719500
4,508500	0,5	4,729650
4,516833	0,5	4,740750
4,525167	0,5	4,770150
4,533500	0,5	4,784650
4,541833	0,5	4,819300
4,550167	0,5	4,849100
4,558500	0,5	4,868200
4,566833	0,5	4,868650
4,575167	0,5	4,933400
4,583500	0,5	4,970050
4,591833	0,5	5,016850
4,600167	0,5	5,045600
4,608500	0,5	5,087400
4,616833	0,5	5,124550
4,625167	0,5	5,165600
4,633500	0,5	5,194400
4,641833	0,5	5,227450
4,650167	0,5	5,250750
4,658500	0,5	5,272850
4,666833	0,5	5,284100
4,675167	0,5	5,286350
4,683500	0,5	5,288100
4,691833	0,5	5,302550
4,700167	0,5	5,303550
4,708500	0,5	5,296900
4,716833	0,5	5,296850
4,725167	0,5	5,297700
4,733500	0,5	5,296050
4,741833	0,5	5,272250
4,750167	0,5	5,241350
4,758500	0,5	5,196550
4,766833	0,5	5,152600
4,775167	0,5	5,096350
4,783500	0,5	5,047600
4,791833	0,5	4,998500
4,800167	0,5	4,965600
4,808500	0,5	4,940200
4,816833	0,5	4,932900
4,825167	0,5	4,922350
4,833500	0,5	4,916350
4,841833	0,5	4,910650
4,850167	0,5	4,878000
4,858500	0,5	4,840800
4,866833	0,5	4,799700
4,875167	0,5	4,771400
4,883500	0,5	4,750900
4,891833	0,5	4,743050
4,900167	0,5	4,744850
4,908500	0,5	4,776550
4,916833	0,5	4,841000
4,925167	0,5	4,939200
4,933500	0,5	5,066300
4,941833	0,5	5,233800
4,950167	0,5	5,421750
4,958500	0,5	5,625400
4,966833	0,5	5,812800
4,975167	0,5	5,962900
4,983500	0,5	6,050200
4,991833	0,5	6,059100
5,000167	0,5	5,966000
5,008500	0,5	5,810900
5,016833	0,5	5,597850
5,025167	0,5	5,369100
5,033500	0,5	5,129750
5,041833	0,5	4,900050
5,050167	0,5	4,697700
5,058500	0,5	4,526100
5,066833	0,5	4,390450
5,075167	0,5	4,282450
5,083500	0,5	4,198750
5,091833	0,5	4,128850
5,100167	0,5	4,080800
5,108500	0,5	4,036450
5,116833	0,5	4,007300
5,125167	0,5	3,970050
5,133500	0,5	3,956900
5,141833	0,5	3,923350
5,150167	0,5	3,894350
5,158500	0,5	3,875400
5,166833	0,5	3,868350
5,175167	0,5	3,874250
5,183500	0,5	3,886250
5,191833	0,5	3,901900
5,200167	0,5	3,926750
5,208500	0,5	3,961300
5,216833	0,5	4,000200
5,225167	0,5	4,029950
5,233500	0,5	4,055700
5,241833	0,5	4,071700
5,250167	0,5	4,067100
5,258500	0,5	4,050350
5,266833	0,5	4,000400
5,275167	0,5	3,947600
5,283500	0,5	3,903300
5,291833	0,5	3,836550
5,300167	0,5	3,775800
5,308500	0,5	3,729050
5,316833	0,5	3,687700
5,325167	0,5	3,673400
5,333500	0,5	3,647600
5,341833	0,5	3,642100
5,350167	0,5	3,657150
5,358500	0,5	3,707750
5,366833	0,5	3,790450
5,375167	0,5	3,923450
5,383500	0,5	4,108050
5,391833	0,5	4,337150
5,400167	0,5	4,591900
5,408500	0,5	4,843250
5,416833	0,5	5,053100
5,425167	0,5	5,190750
5,433500	0,5	5,257650
5,441833	0,5	5,209150
5,450167	0,5	5,108200
5,458500	0,5	4,967600
5,466833	0,5	4,821950
5,475167	0,5	4,685750
5,483500	0,5	4,552000
5,491833	0,5	4,435050
5,500167	0,5	4,335550
5,508500	0,5	4,233750
5,516833	0,5	4,145800
5,525167	0,5	4,070300
5,533500	0,5	4,016300
5,541833	0,5	3,991750
5,550167	0,5	3,995650
5,558500	0,5	4,032950
5,566833	0,5	4,070200
5,575167	0,5	4,128550
5,583500	0,5	4,198800
5,591833	0,5	4,261500
5,600167	0,5	4,347000
5,608500	0,5	4,452350
5,616833	0,5	4,563300
5,625167	0,5	4,669250
5,633500	0,5	4,721300
5,641833	0,5	4,728700
5,650167	0,5	4,660400
5,658500	0,5	4,531400
5,666833	0,5	4,338550
5,675167	0,5	4,120250
5,683500	0,5	3,894050
5,691833	0,5	3,691550
5,700167	0,5	3,520050
5,708500	0,5	3,394350
5,716833	0,5	3,300200
5,725167	0,5	3,262050
5,733500	0,5	3,247750
5,741833	0,5	3,267700
5,750167	0,5	3,320400
5,758500	0,5	3,402750
5,766833	0,5	3,510750
5,775167	0,5	3,619200
5,783500	0,5	3,722900
5,791833	0,5	3,810450
5,800167	0,5	3,881200
5,808500	0,5	3,927100
5,816833	0,5	3,945750
5,825167	0,5	3,934250
5,833500	0,5	3,908850
5,841833	0,5	3,871750
5,850167	0,5	3,822350
5,858500	0,5	3,768150
5,866833	0,5	3,721950
5,875167	0,5	3,674200
5,883500	0,5	3,620750
5,891833	0,5	3,574800
5,900167	0,5	3,529650
5,908500	0,5	3,491850
5,916833	0,5	3,456800
5,925167	0,5	3,412800
5,933500	0,5	3,368250
5,941833	0,5	3,328950
5,950167	0,5	3,301150
5,958500	0,5	3,275150
5,966833	0,5	3,265100
5,975167	0,5	3,272200
5,983500	0,5	3,292400
5,991833	0,5	3,342300
6,000167	0,5	3,413000
6,008500	0,5	3,522400
6,016833	0,5	3,654050
6,025167	0,5	3,799250
6,033500	0,5	3,938050
6,041833	0,5	4,066150
6,050167	0,5	4,154600
6,058500	0,5	4,203150
6,066833	0,5	4,191250
6,075167	0,5	4,119100
6,083500	0,5	4,007850
6,091833	0,5	3,878050
6,100167	0,5	3,737800
6,108500	0,5	3,604250
6,116833	0,5	3,479200
6,125167	0,5	3,374550
6,133500	0,5	3,293700
6,141833	0,5	3,231850
6,150167	0,5	3,191950
6,158500	0,5	3,164800
6,166833	0,5	3,170650
6,175167	0,5	3,177650
6,183500	0,5	3,185900
6,191833	0,5	3,217950
6,200167	0,5	3,261350
6,208500	0,5	3,331900
6,216833	0,5	3,404750
6,225167	0,5	3,488700
6,233500	0,5	3,581750
6,241833	0,5	3,671650
6,250167	0,5	3,758850
6,258500	0,5	3,819900
6,266833	0,5	3,848900
6,275167	0,5	3,836500
6,283500	0,5	3,788050
6,291833	0,5	3,703350
6,300167	0,5	3,586600
6,308500	0,5	3,470200
6,316833	0,5	3,368050
6,325167	0,5	3,263200
6,333500	0,5	3,190500
6,341833	0,5	3,149800
6,350167	0,5	3,136550
6,358500	0,5	3,171600
6,366833	0,5	3,216850
6,375167	0,5	3,292750
6,383500	0,5	3,393100
6,391833	0,5	3,501650
6,400167	0,5	3,604700
6,408500	0,5	3,687800
6,416833	0,5	3,735700
6,425167	0,5	3,760200
6,433500	0,5	3,757200
6,441833	0,5	3,745150
6,450167	0,5	3,727350
6,458500	0,5	3,715650
6,466833	0,5	3,716250
6,475167	0,5	3,705700
6,483500	0,5	3,701450
6,491833	0,5	3,690600
6,500167	0,5	3,673100
6,508500	0,5	3,637100
6,516833	0,5	3,577950
6,525167	0,5	3,498850
6,533500	0,5	3,414550
6,541833	0,5	3,314850
6,550167	0,5	3,213750
6,558500	0,5	3,115200
6,566833	0,5	3,023750
6,575167	0,5	2,943450
6,583500	0,5	2,881600
6,591833	0,5	2,837050
6,600167	0,5	2,815550
6,608500	0,5	2,809150
6,616833	0,5	2,824400
6,625167	0,5	2,849000
6,633500	0,5	2,905250
6,641833	0,5	2,983600
6,650167	0,5	3,084650
6,658500	0,5	3,200350
6,666833	0,5	3,309350
6,675167	0,5	3,410050
6,683500	0,5	3,489850
6,691833	0,5	3,542700
6,700167	0,5	3,563350
6,708500	0,5	3,542200
6,716833	0,5	3,489300
6,725167	0,5	3,415100
6,733500	0,5	3,323650
6,741833	0,5	3,230900
6,750167	0,5	3,140650
6,758500	0,5	3,077700
6,766833	0,5	3,021650
6,775167	0,5	2,987750
6,783500	0,5	2,977200
6,791833	0,5	2,994800
6,800167	0,5	3,029800
6,808500	0,5	3,084100
6,816833	0,5	3,156750
6,825167	0,5	3,262850
6,833500	0,5	3,426000
6,841833	0,5	3,653100
6,850167	0,5	3,980900
6,858500	0,5	4,421800
6,866833	0,5	4,982050
6,875167	0,5	5,634600
6,883500	0,5	6,340250
6,891833	0,5	7,013500
6,900167	0,5	7,588500
6,908500	0,5	7,986400
6,916833	0,5	8,153450
6,925167	0,5	8,100450
6,933500	0,5	7,880300
6,941833	0,5	7,576500
6,950167	0,5	7,271550
6,958500	0,5	7,039250
6,966833	0,5	6,915800
6,975167	0,5	6,912650
6,983500	0,5	6,999700
6,991833	0,5	7,113850
7,000167	0,5	7,186950
7,008500	0,5	7,162700
7,016833	0,5	7,016900
7,025167	0,5	6,759250
7,033500	0,5	6,415900
7,041833	0,5	6,042950
7,050167	0,5	5,702000
7,058500	0,5	5,423650
7,066833	0,5	5,230350
7,075167	0,5	5,166600
7,083500	0,5	5,260300
7,091833	0,5	5,572600
7,100167	0,5	6,138650
7,108500	0,5	6,987450
7,116833	0,5	8,080550
7,125167	0,5	9,313500
7,133500	0,5	10,489250
7,141833	0,5	11,404750
7,150167	0,5	11,866050
7,158500	0,5	11,801600
7,166833	0,5	11,241400
7,175167	0,5	10,329600
7,183500	0,5	9,232350
7,191833	0,5	8,110800
7,200167	0,5	7,077300
7,208500	0,5	6,160100
7,216833	0,5	5,379150
7,225167	0,5	4,732150
7,233500	0,5	4,207450
7,241833	0,5	3,805600
7,250167	0,5	3,502450
7,258500	0,5	3,282750
7,266833	0,5	3,136000
7,275167	0,5	3,042450
7,283500	0,5	2,975000
7,291833	0,5	2,927600
7,300167	0,5	2,892600
7,308500	0,5	2,857400
7,316833	0,5	2,825600
7,325167	0,5	2,791600
7,333500	0,5	2,757150
7,341833	0,5	2,727150
7,350167	0,5	2,708250
7,358500	0,5	2,678250
7,366833	0,5	2,655950
7,375167	0,5	2,643550
7,383500	0,5	2,632250
7,391833	0,5	2,632800
7,400167	0,5	2,624400
7,408500	0,5	2,624100
7,416833	0,5	2,618350
7,425167	0,5	2,621300
7,433500	0,5	2,616950
7,441833	0,5	2,616550
7,450167	0,5	2,605100
7,458500	0,5	2,593300
7,466833	0,5	2,577300
7,475167	0,5	2,558350
7,483500	0,5	2,533300
7,491833	0,5	2,515950
7,500167	0,5	2,516550
7,508500	0,5	2,533800
7,516833	0,5	2,586900
7,525167	0,5	2,674450
7,533500	0,5	2,789600
7,541833	0,5	2,893800
7,550167	0,5	2,955400
7,558500	0,5	2,962300
7,566833	0,5	2,927100
7,575167	0,5	2,868150
7,583500	0,5	2,804500
7,591833	0,5	2,752600
7,600167	0,5	2,721800
7,608500	0,5	2,703850
7,616833	0,5	2,700350
7,625167	0,5	2,705100
7,633500	0,5	2,716000
7,641833	0,5	2,724600
7,650167	0,5	2,733500
7,658500	0,5	2,725500
7,666833	0,5	2,716550
7,675167	0,5	2,692050
7,683500	0,5	2,676700
7,691833	0,5	2,654000
7,700167	0,5	2,630050
7,708500	0,5	2,615800
7,716833	0,5	2,616750
7,725167	0,5	2,637150
7,733500	0,5	2,683200
7,741833	0,5	2,746550
7,750167	0,5	2,801050
7,758500	0,5	2,840600
7,766833	0,5	2,838950
7,775167	0,5	2,796300
7,783500	0,5	2,711850
7,791833	0,5	2,617250
7,800167	0,5	2,517200
7,808500	0,5	2,436000
7,816833	0,5	2,376650
7,825167	0,5	2,355100
7,833500	0,5	2,361400
7,841833	0,5	2,391150
7,850167	0,5	2,438450
7,858500	0,5	2,505100
7,866833	0,5	2,595800
7,875167	0,5	2,705750
7,883500	0,5	2,836750
7,891833	0,5	3,001100
7,900167	0,5	3,216050
7,908500	0,5	3,475400
7,916833	0,5	3,772150
7,925167	0,5	4,061250
7,933500	0,5	4,295700
7,941833	0,5	4,421950
7,950167	0,5	4,422900
7,958500	0,5	4,319650
7,966833	0,5	4,162450
7,975167	0,5	3,991050
7,983500	0,5	3,824350
7,991833	0,5	3,664800
8,000167	0,5	3,510150
8,008500	0,5	3,349700
8,016833	0,5	3,188650
8,025167	0,5	3,032650
8,033500	0,5	2,884100
8,041833	0,5	2,756100
8,050167	0,5	2,668400
8,058500	0,5	2,623500
8,066833	0,5	2,619200
8,075167	0,5	2,637650
8,083500	0,5	2,657000
8,091833	0,5	2,653350
8,100167	0,5	2,628400
8,108500	0,5	2,588900
8,116833	0,5	2,548400
8,125167	0,5	2,511250
8,133500	0,5	2,477750
8,141833	0,5	2,454700
8,150167	0,5	2,435100
8,158500	0,5	2,433000
8,166833	0,5	2,438400
8,175167	0,5	2,455650
8,183500	0,5	2,465550
8,191833	0,5	2,469300
8,200167	0,5	2,463950
8,208500	0,5	2,448100
8,216833	0,5	2,431550
8,225167	0,5	2,407450
8,233500	0,5	2,391400
8,241833	0,5	2,376550
8,250167	0,5	2,372950
8,258500	0,5	2,387350
8,266833	0,5	2,432800
8,275167	0,5	2,503700
8,283500	0,5	2,600650
8,291833	0,5	2,711300
8,300167	0,5	2,830650
8,308500	0,5	2,948350
8,316833	0,5	3,071800
8,325167	0,5	3,194500
8,333500	0,5	3,330600
8,341833	0,5	3,480100
8,350167	0,5	3,623100
8,358500	0,5	3,719300
8,366833	0,5	3,734150
8,375167	0,5	3,648500
8,383500	0,5	3,505800
8,391833	0,5	3,370250
8,400167	0,5	3,298450
8,408500	0,5	3,324550
8,416833	0,5	3,462100
8,425167	0,5	3,717550
8,433500	0,5	4,085450
8,441833	0,5	4,580600
8,450167	0,5	5,188350
8,458500	0,5	5,902900
8,466833	0,5	6,699300
8,475167	0,5	7,541300
8,483500	0,5	8,389750
8,491833	0,5	9,205150
8,500167	0,5	9,946050
8,508500	0,5	10,581450
8,516833	0,5	11,092350
8,525167	0,5	11,485000
8,533500	0,5	11,802550
8,541833	0,5	12,099450
8,550167	0,5	12,459700
8,558500	0,5	12,962800
8,566833	0,5	13,655200
8,575167	0,5	14,510350
8,583500	0,5	15,393050
8,591833	0,5	16,097650
8,600167	0,5	16,378350
8,608500	0,5	16,046550
8,616833	0,5	15,055800
8,625167	0,5	13,518100
8,633500	0,5	11,661800
8,641833	0,5	9,753500
8,650167	0,5	8,014450
8,658500	0,5	6,571150
8,666833	0,5	5,463800
8,675167	0,5	4,664250
8,683500	0,5	4,109250
8,691833	0,5	3,736500
8,700167	0,5	3,490000
8,708500	0,5	3,331450
8,716833	0,5	3,241600
8,725167	0,5	3,204400
8,733500	0,5	3,221250
8,741833	0,5	3,306750
8,750167	0,5	3,461200
8,758500	0,5	3,685500
8,766833	0,5	3,965300
8,775167	0,5	4,258750
8,783500	0,5	4,520250
8,791833	0,5	4,709000
8,800167	0,5	4,789400
8,808500	0,5	4,746050
8,816833	0,5	4,566300
8,825167	0,5	4,276850
8,833500	0,5	3,923300
8,841833	0,5	3,552550
8,850167	0,5	3,221850
8,858500	0,5	2,958650
8,866833	0,5	2,772700
8,875167	0,5	2,648800
8,883500	0,5	2,576000
8,891833	0,5	2,545300
8,900167	0,5	2,542250
8,908500	0,5	2,558100
8,916833	0,5	2,585850
8,925167	0,5	2,606250
8,933500	0,5	2,608550
8,941833	0,5	2,582150
8,950167	0,5	2,534900
8,958500	0,5	2,470900
8,966833	0,5	2,407350
8,975167	0,5	2,358300
8,983500	0,5	2,321400
8,991833	0,5	2,298100
9,000167	0,5	2,282900
9,008500	0,5	2,276400
9,016833	0,5	2,270600
9,025167	0,5	2,264600
9,033500	0,5	2,258550
9,041833	0,5	2,254150
9,050167	0,5	2,253000
9,058500	0,5	2,253900
9,066833	0,5	2,261550
9,075167	0,5	2,268200
9,083500	0,5	2,275550
9,091833	0,5	2,284200
9,100167	0,5	2,285750
9,108500	0,5	2,287850
9,116833	0,5	2,287150
9,125167	0,5	2,293250
9,133500	0,5	2,306200
9,141833	0,5	2,333250
9,150167	0,5	2,381700
9,158500	0,5	2,457850
9,166833	0,5	2,561100
9,175167	0,5	2,686950
9,183500	0,5	2,837150
9,191833	0,5	2,987200
9,200167	0,5	3,131300
9,208500	0,5	3,256950
9,216833	0,5	3,361300
9,225167	0,5	3,430150
9,233500	0,5	3,464750
9,241833	0,5	3,457500
9,250167	0,5	3,405750
9,258500	0,5	3,302100
9,266833	0,5	3,163100
9,275167	0,5	2,994350
9,283500	0,5	2,817250
9,291833	0,5	2,655250
9,300167	0,5	2,523750
9,308500	0,5	2,430000
9,316833	0,5	2,362300
9,325167	0,5	2,316500
9,333500	0,5	2,288000
9,341833	0,5	2,268000
9,350167	0,5	2,251600
9,358500	0,5	2,234600
9,366833	0,5	2,213700
9,375167	0,5	2,200800
9,383500	0,5	2,195900
9,391833	0,5	2,202850
9,400167	0,5	2,231500
9,408500	0,5	2,270050
9,416833	0,5	2,322150
9,425167	0,5	2,371700
9,433500	0,5	2,394000
9,441833	0,5	2,398800
9,450167	0,5	2,372200
9,458500	0,5	2,330000
9,466833	0,5	2,280400
9,475167	0,5	2,225650
9,483500	0,5	2,181500
9,491833	0,5	2,150400
9,500167	0,5	2,128500
9,508500	0,5	2,112900
9,516833	0,5	2,107900
9,525167	0,5	2,107400
9,533500	0,5	2,114550
9,541833	0,5	2,129700
9,550167	0,5	2,143700
9,558500	0,5	2,154000
9,566833	0,5	2,163250
9,575167	0,5	2,167150
9,583500	0,5	2,183100
9,591833	0,5	2,207550
9,600167	0,5	2,251550
9,608500	0,5	2,308450
9,616833	0,5	2,369400
9,625167	0,5	2,414250
9,633500	0,5	2,444400
9,641833	0,5	2,447450
9,650167	0,5	2,432750
9,658500	0,5	2,406450
9,666833	0,5	2,372950
9,675167	0,5	2,336000
9,683500	0,5	2,297100
9,691833	0,5	2,273250
9,700167	0,5	2,253350
9,708500	0,5	2,247300
9,716833	0,5	2,255550
9,725167	0,5	2,267350
9,733500	0,5	2,280550
9,741833	0,5	2,286250
9,750167	0,5	2,292150
9,758500	0,5	2,296950
9,766833	0,5	2,303500
9,775167	0,5	2,306550
9,783500	0,5	2,313800
9,791833	0,5	2,326450
9,800167	0,5	2,342550
9,808500	0,5	2,369650
9,816833	0,5	2,406100
9,825167	0,5	2,448350
9,833500	0,5	2,485550
9,841833	0,5	2,512000
9,850167	0,5	2,516500
9,858500	0,5	2,496150
9,866833	0,5	2,457150
9,875167	0,5	2,397650
9,883500	0,5	2,337050
9,891833	0,5	2,282150
9,900167	0,5	2,243400
9,908500	0,5	2,220100
9,916833	0,5	2,217450
9,925167	0,5	2,230600
9,933500	0,5	2,270200
9,941833	0,5	2,334800
9,950167	0,5	2,427200
9,958500	0,5	2,533300
9,966833	0,5	2,641100
9,975167	0,5	2,730700
9,983500	0,5	2,779050
9,991833	0,5	2,775150
10,000167	0,5	2,713850
10,008500	0,5	2,617150
10,016833	0,5	2,499250
10,025167	0,5	2,382050
10,033500	0,5	2,281000
10,041833	0,5	2,205900
10,050167	0,5	2,157000
10,058500	0,5	2,137500
10,066833	0,5	2,130250
10,075167	0,5	2,140250
10,083500	0,5	2,152500
10,091833	0,5	2,162800
10,100167	0,5	2,170200
10,108500	0,5	2,174200
10,116833	0,5	2,177000
10,125167	0,5	2,176000
10,133500	0,5	2,177000
10,141833	0,5	2,172100
10,150167	0,5	2,162400
10,158500	0,5	2,155200
10,166833	0,5	2,146400
10,175167	0,5	2,132850
10,183500	0,5	2,126400
10,191833	0,5	2,121850
10,200167	0,5	2,116750
10,208500	0,5	2,114100
10,216833	0,5	2,100650
10,225167	0,5	2,082350
10,233500	0,5	2,056950
10,241833	0,5	2,034300
10,250167	0,5	2,015500
10,258500	0,5	2,008050
10,266833	0,5	2,023550
10,275167	0,5	2,057100
10,283500	0,5	2,118200
10,291833	0,5	2,185200
10,300167	0,5	2,249500
10,308500	0,5	2,294750
10,316833	0,5	2,312200
10,325167	0,5	2,299100
10,333500	0,5	2,272800
10,341833	0,5	2,229550
10,350167	0,5	2,190350
10,358500	0,5	2,153700
10,366833	0,5	2,116900
10,375167	0,5	2,100200
10,383500	0,5	2,093350
10,391833	0,5	2,103750
10,400167	0,5	2,126350
10,408500	0,5	2,158500
10,416833	0,5	2,193600
10,425167	0,5	2,228900
10,433500	0,5	2,258100
10,441833	0,5	2,277550
10,450167	0,5	2,283250
10,458500	0,5	2,283300
10,466833	0,5	2,263500
10,475167	0,5	2,234550
10,483500	0,5	2,198700
10,491833	0,5	2,159200
10,500167	0,5	2,126800
10,508500	0,5	2,088200
10,516833	0,5	2,061300
10,525167	0,5	2,042350
10,533500	0,5	2,045800
10,541833	0,5	2,069900
10,550167	0,5	2,119550
10,558500	0,5	2,178850
10,566833	0,5	2,243000
10,575167	0,5	2,288200
10,583500	0,5	2,309500
10,591833	0,5	2,300950
10,600167	0,5	2,272650
10,608500	0,5	2,228900
10,616833	0,5	2,170600
10,625167	0,5	2,119500
10,633500	0,5	2,071900
10,641833	0,5	2,034700
10,650167	0,5	2,016950
10,658500	0,5	2,010750
10,666833	0,5	2,015850
10,675167	0,5	2,031150
10,683500	0,5	2,056350
10,691833	0,5	2,078700
10,700167	0,5	2,104650
10,708500	0,5	2,124850
10,716833	0,5	2,146200
10,725167	0,5	2,174250
10,733500	0,5	2,205250
10,741833	0,5	2,241150
10,750167	0,5	2,296650
10,758500	0,5	2,372750
10,766833	0,5	2,473600
10,775167	0,5	2,618650
10,783500	0,5	2,811300
10,791833	0,5	3,041700
10,800167	0,5	3,284050
10,808500	0,5	3,495750
10,816833	0,5	3,647250
10,825167	0,5	3,716400
10,833500	0,5	3,699650
10,841833	0,5	3,624900
10,850167	0,5	3,513950
10,858500	0,5	3,401100
10,866833	0,5	3,300150
10,875167	0,5	3,240750
10,883500	0,5	3,210400
10,891833	0,5	3,209100
10,900167	0,5	3,218800
10,908500	0,5	3,221650
10,916833	0,5	3,203500
10,925167	0,5	3,149000
10,933500	0,5	3,064500
10,941833	0,5	2,953200
10,950167	0,5	2,828050
10,958500	0,5	2,700400
10,966833	0,5	2,575350
10,975167	0,5	2,473450
10,983500	0,5	2,405200
10,991833	0,5	2,347800
11,000167	0,5	2,318100
11,008500	0,5	2,288250
11,016833	0,5	2,260250
11,025167	0,5	2,221550
11,033500	0,5	2,168700
11,041833	0,5	2,111500
11,050167	0,5	2,050200
11,058500	0,5	1,985250
11,066833	0,5	1,927000
11,075167	0,5	1,889550
11,083500	0,5	1,864550
11,091833	0,5	1,859900
11,100167	0,5	1,869850
11,108500	0,5	1,894350
11,116833	0,5	1,926150
11,125167	0,5	1,970200
11,133500	0,5	2,015700
11,141833	0,5	2,064000
11,150167	0,5	2,116600
11,158500	0,5	2,186050
11,166833	0,5	2,253850
11,175167	0,5	2,338650
11,183500	0,5	2,412850
11,191833	0,5	2,490000
11,200167	0,5	2,545350
11,208500	0,5	2,567100
11,216833	0,5	2,558950
11,225167	0,5	2,523250
11,233500	0,5	2,468650
11,241833	0,5	2,404300
11,250167	0,5	2,350300
11,258500	0,5	2,321100
11,266833	0,5	2,319400
11,275167	0,5	2,359000
11,283500	0,5	2,413450
11,291833	0,5	2,474450
11,300167	0,5	2,520200
11,308500	0,5	2,526650
11,316833	0,5	2,497750
11,325167	0,5	2,437900
11,333500	0,5	2,351300
11,341833	0,5	2,261900
11,350167	0,5	2,176850
11,358500	0,5	2,103500
11,366833	0,5	2,050100
11,375167	0,5	2,016400
11,383500	0,5	2,001350
11,391833	0,5	1,999050
11,400167	0,5	2,007600
11,408500	0,5	2,016650
11,416833	0,5	2,028700
11,425167	0,5	2,043550
11,433500	0,5	2,048900
11,441833	0,5	2,043150
11,450167	0,5	2,029500
11,458500	0,5	2,011950
11,466833	0,5	2,001150
11,475167	0,5	2,007850
11,483500	0,5	2,036000
11,491833	0,5	2,091200
11,500167	0,5	2,174350
11,508500	0,5	2,253450
11,516833	0,5	2,305600
11,525167	0,5	2,341850
11,533500	0,5	2,368250
11,541833	0,5	2,397550
11,550167	0,5	2,453450
11,558500	0,5	2,602800
11,566833	0,5	3,002050
11,575167	0,5	3,631450
11,583500	0,5	4,416400
11,591833	0,5	4,942450
11,600167	0,5	4,898850
11,608500	0,5	4,558800
11,616833	0,5	4,097450
11,625167	0,5	3,409000
11,633500	0,5	2,848150
11,641833	0,5	2,262450
11,650167	0,5	1,658150
11,658500	0,5	1,234650
11,666833	0,5	0,957800
11,675167	0,5	0,767150
11,683500	0,5	0,638700
11,691833	0,5	0,541000
11,700167	0,5	0,474900
11,708500	0,5	0,422050
11,716833	0,5	0,381500
11,725167	0,5	0,341700
11,733500	0,5	0,306350
11,741833	0,5	0,272950
11,750167	0,5	0,234800
11,758500	0,5	0,200800
11,766833	0,5	0,165700
11,775167	0,5	0,127100
11,783500	0,5	0,100300
11,791833	0,5	0,072900
11,800167	0,5	0,043400
11,808500	0,5	0,019150
11,816833	0,5	-0,003850
11,825167	0,5	-0,018950
11,833500	0,5	-0,034400
11,841833	0,5	-0,050300
11,850167	0,5	-0,065600
11,858500	0,5	-0,079750
11,866833	0,5	-0,095600
11,875167	0,5	-0,108450
11,883500	0,5	-0,119450
11,891833	0,5	-0,129350
11,900167	0,5	-0,139000
11,908500	0,5	-0,142300
11,916833	0,5	-0,148850
11,925167	0,5	-0,150600
11,933500	0,5	-0,142100
11,941833	0,5	-0,134650
11,950167	0,5	-0,125400
11,958500	0,5	-0,113200
11,966833	0,5	-0,093850
11,975167	0,5	-0,069550
11,983500	0,5	-0,039700
11,991833	0,5	-0,015600
12,000167	0,5	0,009150
12,008500	0,5	0,026850
12,016833	0,5	0,042550
12,025167	0,5	0,047500
12,033500	0,5	0,052950
12,041833	0,5	0,043800
12,050167	0,5	0,029050
12,058500	0,5	0,005300
12,066833	0,5	-0,021950
12,075167	0,5	-0,044100
12,083500	0,5	-0,068350
12,091833	0,5	-0,098700
12,100167	0,5	-0,125350
12,108500	0,5	-0,153700
12,116833	0,5	-0,172500
12,125167	0,5	-0,189800
12,133500	0,5	-0,200400
12,141833	0,5	-0,212300
12,150167	0,5	-0,219050
12,158500	0,5	-0,229750
12,166833	0,5	-0,238450
12,175167	0,5	-0,241150
12,183500	0,5	-0,247250
12,191833	0,5	-0,252500
12,200167	0,5	-0,261200
12,208500	0,5	-0,261200
12,216833	0,5	-0,273400
12,225167	0,5	-0,274650
12,233500	0,5	-0,276300
12,241833	0,5	-0,281400
12,250167	0,5	-0,288950
12,258500	0,5	-0,298050
12,266833	0,5	-0,297000
12,275167	0,5	-0,295050
12,283500	0,5	-0,298000
12,291833	0,5	-0,297850
12,300167	0,5	-0,297650
12,308500	0,5	-0,299850
12,316833	0,5	-0,297700
12,325167	0,5	-0,299050
12,333500	0,5	-0,297700
12,341833	0,5	-0,299050
12,350167	0,5	-0,294050
12,358500	0,5	-0,300250
12,366833	0,5	-0,303550
12,375167	0,5	-0,295400
12,383500	0,5	-0,297700
12,391833	0,5	-0,300500
12,400167	0,5	-0,305450
12,408500	0,5	-0,309850
12,416833	0,5	-0,306700
12,425167	0,5	-0,307050
12,433500	0,5	-0,310150
12,441833	0,5	-0,317150
12,450167	0,5	-0,310950
12,458500	0,5	-0,322400
12,466833	0,5	-0,321150
12,475167	0,5	-0,321300
12,483500	0,5	-0,328100
12,491833	0,5	-0,328450
12,500167	0,5	-0,334350
12,508500	0,5	-0,338300
12,516833	0,5	-0,336600
12,525167	0,5	-0,334500
12,533500	0,5	-0,337000
12,541833	0,5	-0,342500
12,550167	0,5	-0,351600
12,558500	0,5	-0,356400
12,566833	0,5	-0,352750
12,575167	0,5	-0,349000
12,583500	0,5	-0,354000
12,591833	0,5	-0,350850
12,600167	0,5	-0,352050
12,608500	0,5	-0,349750
12,616833	0,5	-0,352200
12,625167	0,5	-0,354400
12,633500	0,5	-0,351900
12,641833	0,5	-0,356350
12,650167	0,5	-0,353650
12,658500	0,5	-0,362500
12,666833	0,5	-0,357800
12,675167	0,5	-0,352750
12,683500	0,5	-0,354800
12,691833	0,5	-0,357900
12,700167	0,5	-0,363650
12,708500	0,5	-0,365250
12,716833	0,5	-0,363450
12,725167	0,5	-0,361200
12,733500	0,5	-0,355500
12,741833	0,5	-0,358450
12,750167	0,5	-0,357000
12,758500	0,5	-0,355900
12,766833	0,5	-0,353250
12,775167	0,5	-0,352200
12,783500	0,5	-0,352850
12,791833	0,5	-0,347950
12,800167	0,5	-0,347250
12,808500	0,5	-0,349750
12,816833	0,5	-0,341050
12,825167	0,5	-0,341350
12,833500	0,5	-0,342800
12,841833	0,5	-0,346600
12,850167	0,5	-0,351600
12,858500	0,5	-0,347900
12,866833	0,5	-0,344500
12,875167	0,5	-0,342200
12,883500	0,5	-0,341000
12,891833	0,5	-0,334550
12,900167	0,5	-0,336350
12,908500	0,5	-0,334100
12,916833	0,5	-0,334200
12,925167	0,5	-0,332200
12,933500	0,5	-0,330050
12,941833	0,5	-0,324350
12,950167	0,5	-0,337250
12,958500	0,5	-0,334450
12,966833	0,5	-0,327800
12,975167	0,5	-0,329250
12,983500	0,5	-0,328350
12,991833	0,5	-0,335650
13,000167	0,5	-0,333300
13,008500	0,5	-0,331850
13,016833	0,5	-0,324800
13,025167	0,5	-0,320750
13,033500	0,5	-0,319700
13,041833	0,5	-0,319100
13,050167	0,5	-0,316450
13,058500	0,5	-0,312550
13,066833	0,5	-0,305300
13,075167	0,5	-0,307700
13,083500	0,5	-0,297550
13,091833	0,5	-0,295450
13,100167	0,5	-0,298950
13,108500	0,5	-0,293800
13,116833	0,5	-0,286000
13,125167	0,5	-0,286250
13,133500	0,5	-0,285350
13,141833	0,5	-0,288600
13,150167	0,5	-0,283200
13,158500	0,5	-0,279900
13,166833	0,5	-0,271300
13,175167	0,5	-0,267500
13,183500	0,5	-0,262800
13,191833	0,5	-0,258050
13,200167	0,5	-0,249700
13,208500	0,5	-0,243550
13,216833	0,5	-0,238850
13,225167	0,5	-0,234850
13,233500	0,5	-0,224350
13,241833	0,5	-0,217650
13,250167	0,5	-0,228450
13,258500	0,5	-0,215750
13,266833	0,5	-0,213200
13,275167	0,5	-0,211500
13,283500	0,5	-0,213600
13,291833	0,5	-0,214200
13,300167	0,5	-0,204150
13,308500	0,5	-0,196750
13,316833	0,5	-0,190200
13,325167	0,5	-0,179850
13,333500	0,5	-0,169200
13,341833	0,5	-0,157550
13,350167	0,5	-0,148050
13,358500	0,5	-0,140850
13,366833	0,5	-0,129250
13,375167	0,5	-0,125600
13,383500	0,5	-0,113150
13,391833	0,5	-0,113150
13,400167	0,5	-0,106500
13,408500	0,5	-0,095300
13,416833	0,5	-0,081350
13,425167	0,5	-0,065950
13,433500	0,5	-0,054650
13,441833	0,5	-0,042100
13,450167	0,5	-0,030600
13,458500	0,5	-0,030750
13,466833	0,5	-0,032600
13,475167	0,5	-0,042500
13,483500	0,5	-0,046450
13,491833	0,5	-0,054750
13,500167	0,5	-0,051350
13,508500	0,5	-0,048000
13,516833	0,5	-0,040650
13,525167	0,5	-0,029950
13,533500	0,5	-0,010250
13,541833	0,5	0,004700
13,550167	0,5	0,036600
13,558500	0,5	0,069450
13,566833	0,5	0,104000
13,575167	0,5	0,133800
13,583500	0,5	0,156150
13,591833	0,5	0,181050
13,600167	0,5	0,198150
13,608500	0,5	0,203450
13,616833	0,5	0,191500
13,625167	0,5	0,179300
13,633500	0,5	0,160400
13,641833	0,5	0,149300
13,650167	0,5	0,130650
13,658500	0,5	0,132250
13,666833	0,5	0,131850
13,675167	0,5	0,149100
13,683500	0,5	0,171050
13,691833	0,5	0,197250
13,700167	0,5	0,236000
13,708500	0,5	0,266350
13,716833	0,5	0,291600
13,725167	0,5	0,302300
13,733500	0,5	0,306450
13,741833	0,5	0,307100
13,750167	0,5	0,302800
13,758500	0,5	0,294750
13,766833	0,5	0,286550
13,775167	0,5	0,280500
13,783500	0,5	0,283200
13,791833	0,5	0,290800
13,800167	0,5	0,310650
13,808500	0,5	0,329100
13,816833	0,5	0,352250
13,825167	0,5	0,372750
13,833500	0,5	0,389000
13,841833	0,5	0,399550
13,850167	0,5	0,412150
13,858500	0,5	0,409150
13,866833	0,5	0,405800
13,875167	0,5	0,392150
13,883500	0,5	0,382550
13,891833	0,5	0,380550
13,900167	0,5	0,378200
13,908500	0,5	0,379350
13,916833	0,5	0,381250
13,925167	0,5	0,384550
13,933500	0,5	0,383200
13,941833	0,5	0,384300
13,950167	0,5	0,378150
13,958500	0,5	0,371700
13,966833	0,5	0,369400
13,975167	0,5	0,367000
13,983500	0,5	0,354650
13,991833	0,5	0,357850
14,000167	0,5	0,356850
14,008500	0,5	0,353050
14,016833	0,5	0,349450
14,025167	0,5	0,339500
14,033500	0,5	0,340050
14,041833	0,5	0,333700
14,050167	0,5	0,335900
14,058500	0,5	0,327650
14,066833	0,5	0,322400
14,075167	0,5	0,313900
14,083500	0,5	0,307650
14,091833	0,5	0,298950
14,100167	0,5	0,294500
14,108500	0,5	0,280900
14,116833	0,5	0,280450
14,125167	0,5	0,272000
14,133500	0,5	0,258100
14,141833	0,5	0,260750
14,150167	0,5	0,262800
14,158500	0,5	0,254850
14,166833	0,5	0,250750
14,175167	0,5	0,242000
14,183500	0,5	0,246500
14,191833	0,5	0,241950
14,200167	0,5	0,239750
14,208500	0,5	0,236500
14,216833	0,5	0,234850
14,225167	0,5	0,231000
14,233500	0,5	0,228250
14,241833	0,5	0,226250
14,250167	0,5	0,223050
14,258500	0,5	0,228700
14,266833	0,5	0,227950
14,275167	0,5	0,227100
14,283500	0,5	0,220500
14,291833	0,5	0,226150
14,300167	0,5	0,221900
14,308500	0,5	0,217300
14,316833	0,5	0,201850
14,325167	0,5	0,194050
14,333500	0,5	0,191550
14,341833	0,5	0,190150
14,350167	0,5	0,184650
14,358500	0,5	0,190800
14,366833	0,5	0,190350
14,375167	0,5	0,192400
14,383500	0,5	0,194450
14,391833	0,5	0,194450
14,400167	0,5	0,192600
14,408500	0,5	0,184900
14,416833	0,5	0,183600
14,425167	0,5	0,170950
14,433500	0,5	0,173000
14,441833	0,5	0,170100
14,450167	0,5	0,172950
14,458500	0,5	0,166500
14,466833	0,5	0,162850
14,475167	0,5	0,158650
14,483500	0,5	0,163800
14,491833	0,5	0,157050
14,500167	0,5	0,152850
14,508500	0,5	0,148450
14,516833	0,5	0,149450
14,525167	0,5	0,145550
14,533500	0,5	0,150500
14,541833	0,5	0,145000
14,550167	0,5	0,140150
14,558500	0,5	0,144350
14,566833	0,5	0,142100
14,575167	0,5	0,125900
14,583500	0,5	0,133200
14,591833	0,5	0,127150
14,600167	0,5	0,125600
14,608500	0,5	0,117600
14,616833	0,5	0,101450
14,625167	0,5	0,104500
14,633500	0,5	0,099600
14,641833	0,5	0,098700
14,650167	0,5	0,091700
14,658500	0,5	0,093450
14,666833	0,5	0,092250
14,675167	0,5	0,091950
14,683500	0,5	0,087600
14,691833	0,5	0,087300
14,700167	0,5	0,083950
14,708500	0,5	0,083750
14,716833	0,5	0,080350
14,725167	0,5	0,075300
14,733500	0,5	0,079600
14,741833	0,5	0,068900
14,750167	0,5	0,063900
14,758500	0,5	0,052650
14,766833	0,5	0,041550
14,775167	0,5	0,036900
14,783500	0,5	0,043700
14,791833	0,5	0,037350
14,800167	0,5	0,037300
14,808500	0,5	0,033450
14,816833	0,5	0,033250
14,825167	0,5	0,032600
14,833500	0,5	0,030800
14,841833	0,5	0,020200
14,850167	0,5	0,024650
14,858500	0,5	0,020450
14,866833	0,5	0,013400
14,875167	0,5	0,013600
14,883500	0,5	0,018250
14,891833	0,5	0,014750
14,900167	0,5	0,010700
14,908500	0,5	-0,000250
14,916833	0,5	-0,006700
14,925167	0,5	-0,002550
14,933500	0,5	-0,008900
14,941833	0,5	-0,006800
14,950167	0,5	-0,009050
14,958500	0,5	-0,006000
14,966833	0,5	-0,009250
14,975167	0,5	-0,004450
14,983500	0,5	-0,011750
14,991833	0,5	-0,008600
15,000167	0,5	-0,006650
15,008500	0,5	-0,004650
15,016833	0,5	-0,019950
15,025167	0,5	-0,005100
15,033500	0,5	-0,007000
15,041833	0,5	-0,010950
15,050167	0,5	-0,016550
15,058500	0,5	-0,025050
15,066833	0,5	-0,021500
15,075167	0,5	-0,019950
15,083500	0,5	-0,013850
15,091833	0,5	-0,018000
15,100167	0,5	-0,014600
15,108500	0,5	-0,015000
15,116833	0,5	-0,014300
15,125167	0,5	-0,012500
15,133500	0,5	-0,017300
15,141833	0,5	-0,022450
15,150167	0,5	-0,007900
15,158500	0,5	-0,017200
15,166833	0,5	-0,019250
15,175167	0,5	-0,013550
15,183500	0,5	-0,010100
15,191833	0,5	-0,016150
15,200167	0,5	-0,025750
15,208500	0,5	-0,034200
15,216833	0,5	-0,025150
15,225167	0,5	-0,030250
15,233500	0,5	-0,033500
15,241833	0,5	-0,040550
15,250167	0,5	-0,041100
15,258500	0,5	-0,043000
15,266833	0,5	-0,044000
15,275167	0,5	-0,039400
15,283500	0,5	-0,044450
15,291833	0,5	-0,040350
15,300167	0,5	-0,036800
15,308500	0,5	-0,045000
15,316833	0,5	-0,042900
15,325167	0,5	-0,038550
15,333500	0,5	-0,044250
15,341833	0,5	-0,049600
15,350167	0,5	-0,062000
15,358500	0,5	-0,062350
15,366833	0,5	-0,061900
15,375167	0,5	-0,059850
15,383500	0,5	-0,065150
15,391833	0,5	-0,063950
15,400167	0,5	-0,068450
15,408500	0,5	-0,070750
15,416833	0,5	-0,071150
15,425167	0,5	-0,076550
15,433500	0,5	-0,085750
15,441833	0,5	-0,094100
15,450167	0,5	-0,088550
15,458500	0,5	-0,106550
15,466833	0,5	-0,101000
15,475167	0,5	-0,107650
15,483500	0,5	-0,109850
15,491833	0,5	-0,122450
15,500167	0,5	-0,133850
15,508500	0,5	-0,136850
15,516833	0,5	-0,130000
15,525167	0,5	-0,134600
15,533500	0,5	-0,141050
15,541833	0,5	-0,145600
15,550167	0,5	-0,141550
15,558500	0,5	-0,141200
15,566833	0,5	-0,139800
15,575167	0,5	-0,142100
15,583500	0,5	-0,143750
15,591833	0,5	-0,139450
15,600167	0,5	-0,140550
15,608500	0,5	-0,150700
15,616833	0,5	-0,137000
15,625167	0,5	-0,140400
15,633500	0,5	-0,147050
15,641833	0,5	-0,151500
15,650167	0,5	-0,159150
15,658500	0,5	-0,148050
15,666833	0,5	-0,145150
15,675167	0,5	-0,133350
15,683500	0,5	-0,135150
15,691833	0,5	-0,127950
15,700167	0,5	-0,132000
15,708500	0,5	-0,138700
15,716833	0,5	-0,142900
15,725167	0,5	-0,154150
15,733500	0,5	-0,164050
15,741833	0,5	-0,164800
15,750167	0,5	-0,179150
15,758500	0,5	-0,178450
15,766833	0,5	-0,178200
15,775167	0,5	-0,179950
15,783500	0,5	-0,185450
15,791833	0,5	-0,195200
15,800167	0,5	-0,199400
15,808500	0,5	-0,205250
15,816833	0,5	-0,189950
15,825167	0,5	-0,188800
15,833500	0,5	-0,189500
15,841833	0,5	-0,187800
15,850167	0,5	-0,178550
15,858500	0,5	-0,176250
15,866833	0,5	-0,170250
15,875167	0,5	-0,169250
15,883500	0,5	-0,163250
15,891833	0,5	-0,163600
15,900167	0,5	-0,162650
15,908500	0,5	-0,158400
15,916833	0,5	-0,151150
15,925167	0,5	-0,158500
15,933500	0,5	-0,164500
15,941833	0,5	-0,176400
15,950167	0,5	-0,177800
15,958500	0,5	-0,177500
15,966833	0,5	-0,187950
15,975167	0,5	-0,186550
15,983500	0,5	-0,197450
15,991833	0,5	-0,201800
16,000167	0,5	-0,205850
16,008500	0,5	-0,210600
16,016833	0,5	-0,219550
16,025167	0,5	-0,222950
16,033500	0,5	-0,230500
16,041833	0,5	-0,241850
16,050167	0,5	-0,257250
16,058500	0,5	-0,248500
16,066833	0,5	-0,250100
16,075167	0,5	-0,255750
16,083500	0,5	-0,270450
16,091833	0,5	-0,283600
16,100167	0,5	-0,278900
16,108500	0,5	-0,277850
16,116833	0,5	-0,274900
16,125167	0,5	-0,281000
16,133500	0,5	-0,277150
16,141833	0,5	-0,277550
16,150167	0,5	-0,276900
16,158500	0,5	-0,277450
16,166833	0,5	-0,276950
16,175167	0,5	-0,278550
16,183500	0,5	-0,271300
16,191833	0,5	-0,289600
16,200167	0,5	-0,286150
16,208500	0,5	-0,285700
16,216833	0,5	-0,287400
16,225167	0,5	-0,300200
16,233500	0,5	-0,317500
16,241833	0,5	-0,317950
16,250167	0,5	-0,314500
16,258500	0,5	-0,319650
16,266833	0,5	-0,317750
16,275167	0,5	-0,319200
16,283500	0,5	-0,315000
16,291833	0,5	-0,315950
16,300167	0,5	-0,309900
16,308500	0,5	-0,302650
16,316833	0,5	-0,300750
16,325167	0,5	-0,296650
16,333500	0,5	-0,292100
16,341833	0,5	-0,299850
16,350167	0,5	-0,284800
16,358500	0,5	-0,274250
16,366833	0,5	-0,277400
16,375167	0,5	-0,275250
16,383500	0,5	-0,290750
16,391833	0,5	-0,278050
16,400167	0,5	-0,268000
16,408500	0,5	-0,251600
16,416833	0,5	-0,237350
16,425167	0,5	-0,217150
16,433500	0,5	-0,211800
16,441833	0,5	-0,200000
16,450167	0,5	-0,200600
16,458500	0,5	-0,202300
16,466833	0,5	-0,208250
16,475167	0,5	-0,215750
16,483500	0,5	-0,213750
16,491833	0,5	-0,225200
16,500167	0,5	-0,197100
16,508500	0,5	-0,178500
16,516833	0,5	-0,139900
16,525167	0,5	-0,104400
16,533500	0,5	-0,054500
16,541833	0,5	0,021950
16,550167	0,5	0,095300
16,558500	0,5	0,149550
16,566833	0,5	0,190000
16,575167	0,5	0,201350
16,583500	0,5	0,190400
16,591833	0,5	0,158200
16,600167	0,5	0,117250
16,608500	0,5	0,064450
16,616833	0,5	0,020300
16,625167	0,5	-0,008400
16,633500	0,5	-0,041050
16,641833	0,5	-0,055300
16,650167	0,5	-0,049300
16,658500	0,5	-0,050200
16,666833	0,5	-0,050900
16,675167	0,5	-0,052500
16,683500	0,5	-0,056350
16,691833	0,5	-0,042600
16,700167	0,5	-0,046800
16,708500	0,5	-0,036950
16,716833	0,5	-0,037200
16,725167	0,5	-0,029750
16,733500	0,5	-0,030600
16,741833	0,5	-0,021950
16,750167	0,5	-0,019400
16,758500	0,5	-0,017550
16,766833	0,5	-0,007700
16,775167	0,5	-0,005650
16,783500	0,5	-0,010750
16,791833	0,5	-0,003250
16,800167	0,5	0,005450
16,808500	0,5	0,011900
16,816833	0,5	0,020500
16,825167	0,5	0,015900
16,833500	0,5	0,027100
16,841833	0,5	0,037950
16,850167	0,5	0,050950
16,858500	0,5	0,044350
16,866833	0,5	0,042250
16,875167	0,5	0,029100
16,883500	0,5	0,019550
16,891833	0,5	0,006200
16,900167	0,5	-0,000500
16,908500	0,5	0,002850
16,916833	0,5	0,015400
16,925167	0,5	0,019600
16,933500	0,5	0,035100
16,941833	0,5	0,074400
16,950167	0,5	0,120900
16,958500	0,5	0,174600
16,966833	0,5	0,236650
16,975167	0,5	0,306500
16,983500	0,5	0,375850
16,991833	0,5	0,441700
17,000167	0,5	0,475250
17,008500	0,5	0,479100
17,016833	0,5	0,446350
17,025167	0,5	0,381550
17,033500	0,5	0,295850
17,041833	0,5	0,210950
17,050167	0,5	0,121200
17,058500	0,5	0,050300
17,066833	0,5	-0,008600
17,075167	0,5	-0,064100
17,083500	0,5	-0,100700
17,091833	0,5	-0,115800
17,100167	0,5	-0,137500
17,108500	0,5	-0,151600
17,116833	0,5	-0,179400
17,125167	0,5	-0,188950
17,133500	0,5	-0,193650
17,141833	0,5	-0,196400
17,150167	0,5	-0,200500
17,158500	0,5	-0,206500
17,166833	0,5	-0,207100
17,175167	0,5	-0,213350
17,183500	0,5	-0,211250
17,191833	0,5	-0,219700
17,200167	0,5	-0,223400
17,208500	0,5	-0,226900
17,216833	0,5	-0,221950
17,225167	0,5	-0,246100
17,233500	0,5	-0,240900
17,241833	0,5	-0,241800
17,250167	0,5	-0,252300
17,258500	0,5	-0,266300
17,266833	0,5	-0,285550
17,275167	0,5	-0,282200
17,283500	0,5	-0,284950
17,291833	0,5	-0,293150
17,300167	0,5	-0,303400
17,308500	0,5	-0,302650
17,316833	0,5	-0,304500
17,325167	0,5	-0,306350
17,333500	0,5	-0,307600
17,341833	0,5	-0,301950
17,350167	0,5	-0,302200
17,358500	0,5	-0,291950
17,366833	0,5	-0,294200
17,375167	0,5	-0,306150
17,383500	0,5	-0,297700
17,391833	0,5	-0,297550
17,400167	0,5	-0,302700
17,408500	0,5	-0,305550
17,416833	0,5	-0,321800
17,425167	0,5	-0,315200
17,433500	0,5	-0,313100
17,441833	0,5	-0,305400
17,450167	0,5	-0,309500
17,458500	0,5	-0,312100
17,466833	0,5	-0,314200
17,475167	0,5	-0,326100
17,483500	0,5	-0,340750
17,491833	0,5	-0,359250
17,500167	0,5	-0,366750
17,508500	0,5	-0,380300
17,516833	0,5	-0,390900
17,525167	0,5	-0,408050
17,533500	0,5	-0,405150
17,541833	0,5	-0,410050
17,550167	0,5	-0,425000
17,558500	0,5	-0,439950
17,566833	0,5	-0,454200
17,575167	0,5	-0,454300
17,583500	0,5	-0,455600
17,591833	0,5	-0,460100
17,600167	0,5	-0,461650
17,608500	0,5	-0,468350
17,616833	0,5	-0,469700
17,625167	0,5	-0,475900
17,633500	0,5	-0,479350
17,641833	0,5	-0,479250
17,650167	0,5	-0,483700
17,658500	0,5	-0,481050
17,666833	0,5	-0,495550
17,675167	0,5	-0,494000
17,683500	0,5	-0,494700
17,691833	0,5	-0,503800
17,700167	0,5	-0,518700
17,708500	0,5	-0,537300
17,716833	0,5	-0,547450
17,725167	0,5	-0,546800
17,733500	0,5	-0,558600
17,741833	0,5	-0,555250
17,750167	0,5	-0,561300
17,758500	0,5	-0,561300
17,766833	0,5	-0,564750
17,775167	0,5	-0,566000
17,783500	0,5	-0,571800
17,791833	0,5	-0,574800
17,800167	0,5	-0,570100
17,808500	0,5	-0,574000
17,816833	0,5	-0,582000
17,825167	0,5	-0,581950
17,833500	0,5	-0,580350
17,841833	0,5	-0,585050
17,850167	0,5	-0,597200
17,858500	0,5	-0,606550
17,866833	0,5	-0,604100
17,875167	0,5	-0,607550
17,883500	0,5	-0,599650
17,891833	0,5	-0,600900
17,900167	0,5	-0,597350
17,908500	0,5	-0,595900
17,916833	0,5	-0,591450
17,925167	0,5	-0,594350
17,933500	0,5	-0,592700
17,941833	0,5	-0,586900
17,950167	0,5	-0,581150
17,958500	0,5	-0,592100
17,966833	0,5	-0,588300
17,975167	0,5	-0,589300
17,983500	0,5	-0,597800
17,991833	0,5	-0,611650
18,000167	0,5	-0,636000
18,008500	0,5	-0,646900
18,016833	0,5	-0,659100
18,025167	0,5	-0,668500
18,033500	0,5	-0,678350
18,041833	0,5	-0,676700
18,050167	0,5	-0,684200
18,058500	0,5	-0,682250
18,066833	0,5	-0,680450
18,075167	0,5	-0,680900
18,083500	0,5	-0,681600
18,091833	0,5	-0,682000
18,100167	0,5	-0,678550
18,108500	0,5	-0,682500
18,116833	0,5	-0,659850
18,125167	0,5	-0,651050
18,133500	0,5	-0,640850
18,141833	0,5	-0,634700
18,150167	0,5	-0,648800
18,158500	0,5	-0,647150
18,166833	0,5	-0,648800
18,175167	0,5	-0,665650
18,183500	0,5	-0,679550
18,191833	0,5	-0,694650
18,200167	0,5	-0,701750
18,208500	0,5	-0,711600
18,216833	0,5	-0,712700
18,225167	0,5	-0,725550
18,233500	0,5	-0,728450
18,241833	0,5	-0,715250
18,250167	0,5	-0,717100
18,258500	0,5	-0,729650
18,266833	0,5	-0,715750
18,275167	0,5	-0,713100
18,283500	0,5	-0,714750
18,291833	0,5	-0,718450
18,300167	0,5	-0,720200
18,308500	0,5	-0,702250
18,316833	0,5	-0,695750
18,325167	0,5	-0,687600
18,333500	0,5	-0,681550
18,341833	0,5	-0,664000
18,350167	0,5	-0,658000
18,358500	0,5	-0,637900
18,366833	0,5	-0,627000
18,375167	0,5	-0,612650
18,383500	0,5	-0,599000
18,391833	0,5	-0,577150
18,400167	0,5	-0,572400
18,408500	0,5	-0,556150
18,416833	0,5	-0,539450
18,425167	0,5	-0,532050
18,433500	0,5	-0,525000
18,441833	0,5	-0,522400
18,450167	0,5	-0,519050
18,458500	0,5	-0,505550
18,466833	0,5	-0,497300
18,475167	0,5	-0,493200
18,483500	0,5	-0,484000
18,491833	0,5	-0,481500
18,500167	0,5	-0,477400
18,508500	0,5	-0,477650
18,516833	0,5	-0,479100
18,525167	0,5	-0,485850
18,533500	0,5	-0,477850
18,541833	0,5	-0,481850
18,550167	0,5	-0,490900
18,558500	0,5	-0,482600
18,566833	0,5	-0,479100
18,575167	0,5	-0,484000
18,583500	0,5	-0,492650
18,591833	0,5	-0,510150
18,600167	0,5	-0,505200
18,608500	0,5	-0,496000
18,616833	0,5	-0,485300
18,625167	0,5	-0,490400
18,633500	0,5	-0,486300
18,641833	0,5	-0,480400
18,650167	0,5	-0,477850
18,658500	0,5	-0,473350
18,666833	0,5	-0,476700
18,675167	0,5	-0,474200
18,683500	0,5	-0,474250
18,691833	0,5	-0,478550
18,700167	0,5	-0,494600
18,708500	0,5	-0,488550
18,716833	0,5	-0,497600
18,725167	0,5	-0,514650
18,733500	0,5	-0,540050
18,741833	0,5	-0,551250
18,750167	0,5	-0,558600
18,758500	0,5	-0,561400
18,766833	0,5	-0,567350
18,775167	0,5	-0,568300
18,783500	0,5	-0,574550
18,791833	0,5	-0,577200
18,800167	0,5	-0,575450
18,808500	0,5	-0,576900
18,816833	0,5	-0,581650
18,825167	0,5	-0,585900
18,833500	0,5	-0,582500
18,841833	0,5	-0,594150
18,850167	0,5	-0,593350
18,858500	0,5	-0,593550
18,866833	0,5	-0,598050
18,875167	0,5	-0,612600
18,883500	0,5	-0,628350
18,891833	0,5	-0,637300
18,900167	0,5	-0,638550
18,908500	0,5	-0,639800
18,916833	0,5	-0,638550
18,925167	0,5	-0,650650
18,933500	0,5	-0,649750
18,941833	0,5	-0,652200
18,950167	0,5	-0,657050
18,958500	0,5	-0,657700
18,966833	0,5	-0,664150
18,975167	0,5	-0,655350
18,983500	0,5	-0,658600
18,991833	0,5	-0,671750
19,000167	0,5	-0,669200
19,008500	0,5	-0,670750
19,016833	0,5	-0,676900
19,025167	0,5	-0,691400
19,033500	0,5	-0,706900
19,041833	0,5	-0,703700
19,050167	0,5	-0,712400
19,058500	0,5	-0,710950
19,066833	0,5	-0,717800
19,075167	0,5	-0,714000
19,083500	0,5	-0,720350
19,091833	0,5	-0,715200
19,100167	0,5	-0,716400
19,108500	0,5	-0,718500
19,116833	0,5	-0,714600
19,125167	0,5	-0,715400
19,133500	0,5	-0,721100
19,141833	0,5	-0,723050
19,150167	0,5	-0,716900
19,158500	0,5	-0,720000
19,166833	0,5	-0,722700
19,175167	0,5	-0,747150
19,183500	0,5	-0,755800
19,191833	0,5	-0,760050
19,200167	0,5	-0,762400
19,208500	0,5	-0,771250
19,216833	0,5	-0,775450
19,225167	0,5	-0,787600
19,233500	0,5	-0,783800
19,241833	0,5	-0,792100
19,250167	0,5	-0,795300
19,258500	0,5	-0,806250
19,266833	0,5	-0,811400
19,275167	0,5	-0,808250
19,283500	0,5	-0,829950
19,291833	0,5	-0,827500
19,300167	0,5	-0,833350
19,308500	0,5	-0,839350
19,316833	0,5	-0,851700
19,325167	0,5	-0,876650
19,333500	0,5	-0,876050
19,341833	0,5	-0,872550
19,350167	0,5	-0,886400
19,358500	0,5	-0,887250
19,366833	0,5	-0,896300
19,375167	0,5	-0,895050
19,383500	0,5	-0,905300
19,391833	0,5	-0,902750
19,400167	0,5	-0,904900
19,408500	0,5	-0,903450
19,416833	0,5	-0,905350
19,425167	0,5	-0,906050
19,433500	0,5	-0,926600
19,441833	0,5	-0,912350
19,450167	0,5	-0,916500
19,458500	0,5	-0,922100
19,466833	0,5	-0,932400
19,475167	0,5	-0,949550
19,483500	0,5	-0,941900
19,491833	0,5	-0,949550
19,500167	0,5	-0,948550
19,508500	0,5	-0,955950
19,516833	0,5	-0,956700
19,525167	0,5	-0,965600
19,533500	0,5	-0,960500
19,541833	0,5	-0,964150
19,550167	0,5	-0,966800
19,558500	0,5	-0,969100
19,566833	0,5	-0,961850
19,575167	0,5	-0,966700
19,583500	0,5	-0,977450
19,591833	0,5	-0,973000
19,600167	0,5	-0,977150
19,608500	0,5	-0,984050
19,616833	0,5	-0,998200
19,625167	0,5	-1,011200
19,633500	0,5	-1,006950
19,641833	0,5	-0,994700
19,650167	0,5	-0,987950
19,658500	0,5	-0,988000
19,666833	0,5	-0,986000
19,675167	0,5	-0,987500
19,683500	0,5	-0,993950
19,691833	0,5	-0,998700
19,700167	0,5	-1,008500
19,708500	0,5	-1,001500
19,716833	0,5	-1,005900
19,725167	0,5	-1,024000
19,733500	0,5	-1,021350
19,741833	0,5	-1,020100
19,750167	0,5	-1,027000
19,758500	0,5	-1,045900
19,766833	0,5	-1,061700
19,775167	0,5	-1,071050
19,783500	0,5	-1,073350
19,791833	0,5	-1,080600
19,800167	0,5	-1,080550
19,808500	0,5	-1,087350
19,816833	0,5	-1,085100
19,825167	0,5	-1,097200
19,833500	0,5	-1,093950
19,841833	0,5	-1,099150
19,850167	0,5	-1,095800
19,858500	0,5	-1,088050
19,866833	0,5	-1,086050
19,875167	0,5	-1,101450
19,883500	0,5	-1,091700
19,891833	0,5	-1,093900
19,900167	0,5	-1,098750
19,908500	0,5	-1,114850
19,916833	0,5	-1,122300
19,925167	0,5	-1,125500
19,933500	0,5	-1,119450
19,941833	0,5	-1,116400
19,950167	0,5	-1,116850
19,958500	0,5	-1,116300
19,966833	0,5	-1,120000
19,975167	0,5	-1,113450
19,983500	0,5	-1,121350
19,991833	0,5	-1,117400
20,000167	0,5	-1,113800
20,008500	0,5	-1,103250
20,016833	0,5	-1,113150
20,025167	0,5	-1,111550
20,033500	0,5	-1,106250
20,041833	0,5	-1,108650
20,050167	0,5	-1,109550
20,058500	0,5	-1,127450
20,066833	0,5	-1,121550
20,075167	0,5	-1,123300
20,083500	0,5	-1,124600
20,091833	0,5	-1,126900
20,100167	0,5	-1,126600
20,108500	0,5	-1,126450
20,116833	0,5	-1,126450
20,125167	0,5	-1,127850
20,133500	0,5	-1,123050
20,141833	0,5	-1,122850
20,150167	0,5	-1,111750
20,158500	0,5	-1,108200
20,166833	0,5	-1,119850
20,175167	0,5	-1,108900
20,183500	0,5	-1,102400
20,191833	0,5	-1,107950
20,200167	0,5	-1,110450
20,208500	0,5	-1,123550
20,216833	0,5	-1,117450
20,225167	0,5	-1,119600
20,233500	0,5	-1,116750
20,241833	0,5	-1,115750
20,250167	0,5	-1,106600
20,258500	0,5	-1,110150
20,266833	0,5	-1,111150
20,275167	0,5	-1,109350
20,283500	0,5	-1,117700
20,291833	0,5	-1,108600
20,300167	0,5	-1,100400
20,308500	0,5	-1,100550
20,316833	0,5	-1,105400
20,325167	0,5	-1,100350
20,333500	0,5	-1,100950
20,341833	0,5	-1,103400
20,350167	0,5	-1,119700
20,358500	0,5	-1,120000
20,366833	0,5	-1,111650
20,375167	0,5	-1,109700
20,383500	0,5	-1,118200
20,391833	0,5	-1,118950
20,400167	0,5	-1,119450
20,408500	0,5	-1,123150
20,416833	0,5	-1,122600
20,425167	0,5	-1,132800
20,433500	0,5	-1,124650
20,441833	0,5	-1,119750
20,450167	0,5	-1,109350
20,458500	0,5	-1,116000
20,466833	0,5	-1,104500
20,475167	0,5	-1,105600
20,483500	0,5	-1,104450
20,491833	0,5	-1,115450
20,500167	0,5	-1,125650
20,508500	0,5	-1,123650
20,516833	0,5	-1,117000
20,525167	0,5	-1,122800
20,533500	0,5	-1,118050
20,541833	0,5	-1,118450
20,550167	0,5	-1,114950
20,558500	0,5	-1,113100
20,566833	0,5	-1,110950
20,575167	0,5	-1,112400
20,583500	0,5	-1,111500
20,591833	0,5	-1,093150
20,600167	0,5	-1,087900
20,608500	0,5	-1,095450
20,616833	0,5	-1,091350
20,625167	0,5	-1,094200
20,633500	0,5	-1,095900
20,641833	0,5	-1,104350
20,650167	0,5	-1,117350
20,658500	0,5	-1,108700
20,666833	0,5	-1,111400
20,675167	0,5	-1,098750
20,683500	0,5	-1,100450
20,691833	0,5	-1,091850
20,700167	0,5	-1,092850
20,708500	0,5	-1,084650
20,716833	0,5	-1,085100
20,725167	0,5	-1,084550
20,733500	0,5	-1,062500
20,741833	0,5	-1,047100
20,750167	0,5	-1,041200
20,758500	0,5	-1,040650
20,766833	0,5	-1,029900
20,775167	0,5	-1,040100
20,783500	0,5	-1,042900
20,791833	0,5	-1,063100
20,800167	0,5	-1,066600
20,808500	0,5	-1,063800
20,816833	0,5	-1,064050
20,825167	0,5	-1,066550
20,833500	0,5	-1,059150
20,841833	0,5	-1,054950
20,850167	0,5	-1,052700
20,858500	0,5	-1,044750
20,866833	0,5	-1,050950
20,875167	0,5	-1,041800
20,883500	0,5	-1,022950
20,891833	0,5	-1,013150
20,900167	0,5	-1,021600
20,908500	0,5	-1,021400
20,916833	0,5	-1,019950
20,925167	0,5	-1,030550
20,933500	0,5	-1,043500
20,941833	0,5	-1,046750
20,950167	0,5	-1,045650
20,958500	0,5	-1,036100
20,966833	0,5	-1,031450
20,975167	0,5	-1,021800
20,983500	0,5	-1,017500
20,991833	0,5	-1,009150
21,000167	0,5	-1,002950
21,008500	0,5	-0,996250
21,016833	0,5	-0,988950
21,025167	0,5	-0,987150
21,033500	0,5	-0,962050
21,041833	0,5	-0,958350
21,050167	0,5	-0,968350
21,058500	0,5	-0,968250
21,066833	0,5	-0,967950
21,075167	0,5	-0,977500
21,083500	0,5	-0,988600
21,091833	0,5	-0,985900
21,100167	0,5	-0,978700
21,108500	0,5	-0,980100
21,116833	0,5	-0,968350
21,125167	0,5	-0,979450
21,133500	0,5	-0,970600
21,141833	0,5	-0,965650
21,150167	0,5	-0,959900
21,158500	0,5	-0,957450
21,166833	0,5	-0,952150
21,175167	0,5	-0,927050
21,183500	0,5	-0,909400
21,191833	0,5	-0,914400
21,200167	0,5	-0,914900
21,208500	0,5	-0,909650
21,216833	0,5	-0,909850
21,225167	0,5	-0,926200
21,233500	0,5	-0,936850
21,241833	0,5	-0,917850
21,250167	0,5	-0,915200
21,258500	0,5	-0,903750
21,266833	0,5	-0,905600
21,275167	0,5	-0,894700
21,283500	0,5	-0,889600
21,291833	0,5	-0,883900
21,300167	0,5	-0,881500
21,308500	0,5	-0,879450
21,316833	0,5	-0,868950
21,325167	0,5	-0,842100
21,333500	0,5	-0,831450
21,341833	0,5	-0,831450
21,350167	0,5	-0,827950
21,358500	0,5	-0,830200
21,366833	0,5	-0,835300
21,375167	0,5	-0,841750
21,383500	0,5	-0,836100
21,391833	0,5	-0,827450
21,400167	0,5	-0,809650
21,408500	0,5	-0,801450
21,416833	0,5	-0,788500
21,425167	0,5	-0,786500
21,433500	0,5	-0,765100
21,441833	0,5	-0,745350
21,450167	0,5	-0,727150
21,458500	0,5	-0,696350
21,466833	0,5	-0,650700
21,475167	0,5	-0,609450
21,483500	0,5	-0,582650
21,491833	0,5	-0,561900
21,500167	0,5	-0,562000
21,508500	0,5	-0,564400
21,516833	0,5	-0,584350
21,525167	0,5	-0,600550
21,533500	0,5	-0,603100
21,541833	0,5	-0,598200
21,550167	0,5	-0,600950
21,558500	0,5	-0,595500
21,566833	0,5	-0,590500
21,575167	0,5	-0,577450
21,583500	0,5	-0,566400
21,591833	0,5	-0,552200
21,600167	0,5	-0,539850
21,608500	0,5	-0,528700
21,616833	0,5	-0,498800
21,625167	0,5	-0,489550
21,633500	0,5	-0,482450
21,641833	0,5	-0,468250
21,650167	0,5	-0,458200
21,658500	0,5	-0,456750
21,666833	0,5	-0,453200
21,675167	0,5	-0,446800
21,683500	0,5	-0,423800
21,691833	0,5	-0,409700
21,700167	0,5	-0,383850
21,708500	0,5	-0,370350
21,716833	0,5	-0,349500
21,725167	0,5	-0,339200
21,733500	0,5	-0,315100
21,741833	0,5	-0,298700
21,750167	0,5	-0,284550
21,758500	0,5	-0,258400
21,766833	0,5	-0,234800
21,775167	0,5	-0,222700
21,783500	0,5	-0,207400
21,791833	0,5	-0,190000
21,800167	0,5	-0,190850
21,808500	0,5	-0,186700
21,816833	0,5	-0,183750
21,825167	0,5	-0,165650
21,833500	0,5	-0,143950
21,841833	0,5	-0,118500
21,850167	0,5	-0,096250
21,858500	0,5	-0,068250
21,866833	0,5	-0,051950
21,875167	0,5	-0,032450
21,883500	0,5	-0,009350
21,891833	0,5	0,007600
21,900167	0,5	0,035950
21,908500	0,5	0,066700
21,916833	0,5	0,084100
21,925167	0,5	0,100200
21,933500	0,5	0,134650
21,941833	0,5	0,164100
21,950167	0,5	0,186500
21,958500	0,5	0,196300
21,966833	0,5	0,225200
21,975167	0,5	0,251600
21,983500	0,5	0,282100
21,991833	0,5	0,308500
22,000167	0,5	0,347000
22,008500	0,5	0,374750
22,016833	0,5	0,407450
22,025167	0,5	0,441650
22,033500	0,5	0,479700
22,041833	0,5	0,511300
22,050167	0,5	0,547200
22,058500	0,5	0,579600
22,066833	0,5	0,591900
22,075167	0,5	0,626000
22,083500	0,5	0,651250
22,091833	0,5	0,667700
22,100167	0,5	0,682050
22,108500	0,5	0,694200
22,116833	0,5	0,715250
22,125167	0,5	0,758150
22,133500	0,5	0,784000
22,141833	0,5	0,818850
22,150167	0,5	0,842700
22,158500	0,5	0,883150
22,166833	0,5	0,919400
22,175167	0,5	0,957900
22,183500	0,5	0,992400
22,191833	0,5	1,032500
22,200167	0,5	1,067600
22,208500	0,5	1,106500
22,216833	0,5	1,152600
22,225167	0,5	1,208850
22,233500	0,5	1,259650
22,241833	0,5	1,291350
22,250167	0,5	1,326600
22,258500	0,5	1,356550
22,266833	0,5	1,404850
22,275167	0,5	1,446950
22,283500	0,5	1,494900
22,291833	0,5	1,535950
22,300167	0,5	1,589700
22,308500	0,5	1,641150
22,316833	0,5	1,693650
22,325167	0,5	1,748100
22,333500	0,5	1,801850
22,341833	0,5	1,842100
22,350167	0,5	1,884200
22,358500	0,5	1,937700
22,366833	0,5	2,007400
22,375167	0,5	2,064200
22,383500	0,5	2,113000
22,391833	0,5	2,159350
22,400167	0,5	2,195850
22,408500	0,5	2,257150
22,416833	0,5	2,311100
22,425167	0,5	2,375200
22,433500	0,5	2,434550
22,441833	0,5	2,498600
22,450167	0,5	2,560000
22,458500	0,5	2,626800
22,466833	0,5	2,690350
22,475167	0,5	2,747850
22,483500	0,5	2,807700
22,491833	0,5	2,823050
22,500167	0,5	2,894550
22,508500	0,5	2,944050
22,516833	0,5	3,016200
22,525167	0,5	3,051200
22,533500	0,5	3,095200
22,541833	0,5	3,121000
22,550167	0,5	3,140900
22,558500	0,5	3,177550
22,566833	0,5	3,215150
22,575167	0,5	3,241300
22,583500	0,5	3,268100
22,591833	0,5	3,285150
22,600167	0,5	3,309250
22,608500	0,5	3,320150
22,616833	0,5	3,328400
22,625167	0,5	3,327450
22,633500	0,5	3,295250
22,641833	0,5	3,248500
22,650167	0,5	3,238000
22,658500	0,5	3,221650
22,666833	0,5	3,187150
22,675167	0,5	3,127300
22,683500	0,5	3,055250
22,691833	0,5	2,974900
22,700167	0,5	2,884150
22,708500	0,5	2,802350
22,716833	0,5	2,712450
22,725167	0,5	2,625050
22,733500	0,5	2,524600
22,741833	0,5	2,426300
22,750167	0,5	2,320850
22,758500	0,5	2,210200
22,766833	0,5	2,094200
22,775167	0,5	1,969350
22,783500	0,5	1,805800
22,791833	0,5	1,668550
22,800167	0,5	1,544350
22,808500	0,5	1,420250
22,816833	0,5	1,270050
22,825167	0,5	1,123800
22,833500	0,5	0,978550
22,841833	0,5	0,836200
22,850167	0,5	0,687650
22,858500	0,5	0,551900
22,866833	0,5	0,413100
22,875167	0,5	0,286900
22,883500	0,5	0,154550
22,891833	0,5	0,031200
22,900167	0,5	-0,091700
22,908500	0,5	-0,211250
22,916833	0,5	-0,335450
22,925167	0,5	-0,443800
22,933500	0,5	-0,560550
22,941833	0,5	-0,669250
22,950167	0,5	-0,785150
22,958500	0,5	-0,920800
22,966833	0,5	-1,016300
22,975167	0,5	-1,116000
22,983500	0,5	-1,183850
22,991833	0,5	-1,279150
23,000167	0,5	-1,344050
23,008500	0,5	-1,420950
23,016833	0,5	-1,480500
23,025167	0,5	-1,536750
23,033500	0,5	-1,585950
23,041833	0,5	-1,640800
23,050167	0,5	-1,687350
23,058500	0,5	-1,735850
23,066833	0,5	-1,776850
23,075167	0,5	-1,797200
23,083500	0,5	-1,846100
23,091833	0,5	-1,880950
23,100167	0,5	-1,945000
23,108500	0,5	-1,996350
23,116833	0,5	-2,026050
23,125167	0,5	-2,045850
23,133500	0,5	-2,053900
23,141833	0,5	-2,070400
23,150167	0,5	-2,092400
23,158500	0,5	-2,089650
23,166833	0,5	-2,089650
23,175167	0,5	-2,082200
23,183500	0,5	-2,080000
23,191833	0,5	-2,066750
23,200167	0,5	-2,069300
23,208500	0,5	-2,060900
23,216833	0,5	-2,057150
23,225167	0,5	-2,061600
23,233500	0,5	-2,038950
23,241833	0,5	-2,021300
23,250167	0,5	-2,046800
23,258500	0,5	-2,062500
23,266833	0,5	-2,056900
23,275167	0,5	-2,048600
23,283500	0,5	-2,025850
23,291833	0,5	-2,023250
23,300167	0,5	-2,003650
23,308500	0,5	-1,987100
23,316833	0,5	-1,960650
23,325167	0,5	-1,937750
23,333500	0,5	-1,910750
23,341833	0,5	-1,886450
23,350167	0,5	-1,857600
23,358500	0,5	-1,833000
23,366833	0,5	-1,807200
23,375167	0,5	-1,830300
23,383500	0,5	-1,784350
23,391833	0,5	-1,733650
23,400167	0,5	-1,727850
23,408500	0,5	-1,723550
23,416833	0,5	-1,710100
23,425167	0,5	-1,693300
23,433500	0,5	-1,672050
23,441833	0,5	-1,660700
23,450167	0,5	-1,642950
23,458500	0,5	-1,620650
23,466833	0,5	-1,602700
23,475167	0,5	-1,577250
23,483500	0,5	-1,555800
23,491833	0,5	-1,532850
23,500167	0,5	-1,510700
23,508500	0,5	-1,485350
23,516833	0,5	-1,527150
23,525167	0,5	-1,515900
23,533500	0,5	-1,456050
23,541833	0,5	-1,403300
23,550167	0,5	-1,380650
23,558500	0,5	-1,367400
23,566833	0,5	-1,351000
23,575167	0,5	-1,333750
23,583500	0,5	-1,316200
23,591833	0,5	-1,300100
23,600167	0,5	-1,283450
23,608500	0,5	-1,264800
23,616833	0,5	-1,244600
23,625167	0,5	-1,226850
23,633500	0,5	-1,210400
23,641833	0,5	-1,193350
23,650167	0,5	-1,178200
23,658500	0,5	-1,167800
23,666833	0,5	-1,279950
23,675167	0,5	-1,223000
23,683500	0,5	-1,183450
23,691833	0,5	-1,127150
23,700167	0,5	-1,105000
23,708500	0,5	-1,087150
23,716833	0,5	-1,078050
23,725167	0,5	-1,063200
23,733500	0,5	-1,046550
23,741833	0,5	-1,024900
23,750167	0,5	-1,007200
23,758500	0,5	-0,983800
23,766833	0,5	-0,964850
23,775167	0,5	-0,941850
23,783500	0,5	-0,922650
23,791833	0,5	-0,906600
23,800167	0,5	-0,890650
23,808500	0,5	-0,922550
23,816833	0,5	-0,980800
23,825167	0,5	-0,951750
23,833500	0,5	-0,889850
23,841833	0,5	-0,843800
23,850167	0,5	-0,822650
23,858500	0,5	-0,811800
23,866833	0,5	-0,810500
23,875167	0,5	-0,804350
23,883500	0,5	-0,785950
23,891833	0,5	-0,780500
23,900167	0,5	-0,752900
23,908500	0,5	-0,742600
23,916833	0,5	-0,722250
23,925167	0,5	-0,702250
23,933500	0,5	-0,682150
23,941833	0,5	-0,664100
23,950167	0,5	-0,649400
23,958500	0,5	-0,730800
23,966833	0,5	-0,732000
23,975167	0,5	-0,692900
23,983500	0,5	-0,634450
23,991833	0,5	-0,593450
24,000167	0,5	-0,576700
24,008500	0,5	-0,559450
24,016833	0,5	-0,559650
24,025167	0,5	-0,541050
24,033500	0,5	-0,529150
24,041833	0,5	-0,505700
24,050167	0,5	-0,496000
24,058500	0,5	-0,474100
24,066833	0,5	-0,460400
24,075167	0,5	-0,441000
24,083500	0,5	-0,432750
24,091833	0,5	-0,420500
24,100167	0,5	-0,415800
24,108500	0,5	-0,514500
24,116833	0,5	-0,477750
24,125167	0,5	-0,443850
24,133500	0,5	-0,395250
24,141833	0,5	-0,368600
24,150167	0,5	-0,350150
24,158500	0,5	-0,338900
24,166833	0,5	-0,335850
24,175167	0,5	-0,312400
24,183500	0,5	-0,302000
24,191833	0,5	-0,290050
24,200167	0,5	-0,266600
24,208500	0,5	-0,254300
24,216833	0,5	-0,233550
24,225167	0,5	-0,218500
24,233500	0,5	-0,203450
24,241833	0,5	-0,190550
24,250167	0,5	-0,222300
24,258500	0,5	-0,255350
24,266833	0,5	-0,225400
24,275167	0,5	-0,204000
24,283500	0,5	-0,168900
24,291833	0,5	-0,151650
24,300167	0,5	-0,139900
24,308500	0,5	-0,141450
24,316833	0,5	-0,144500
24,325167	0,5	-0,119150
24,333500	0,5	-0,113550
24,341833	0,5	-0,097100
24,350167	0,5	-0,093850
24,358500	0,5	-0,075150
24,366833	0,5	-0,061700
24,375167	0,5	-0,043900
24,383500	0,5	-0,039600
24,391833	0,5	-0,028400
24,400167	0,5	-0,090600
24,408500	0,5	-0,066200
24,416833	0,5	-0,053900
24,425167	0,5	-0,015050
24,433500	0,5	0,004900
24,441833	0,5	0,021950
24,450167	0,5	0,026150
24,458500	0,5	0,021250
24,466833	0,5	0,032100
24,475167	0,5	0,040500
24,483500	0,5	0,048500
24,491833	0,5	0,056650
24,500167	0,5	0,068100
24,508500	0,5	0,074450
24,516833	0,5	0,084900
24,525167	0,5	0,090650
24,533500	0,5	0,100500
24,541833	0,5	0,101750
24,550167	0,5	0,053600
24,558500	0,5	0,072150
24,566833	0,5	0,092700
24,575167	0,5	0,115000
24,583500	0,5	0,131450
24,591833	0,5	0,139800
24,600167	0,5	0,143400
24,608500	0,5	0,141050
24,616833	0,5	0,146100
24,625167	0,5	0,159450
24,633500	0,5	0,167450
24,641833	0,5	0,176550
24,650167	0,5	0,183500
24,658500	0,5	0,192650
24,666833	0,5	0,202950
24,675167	0,5	0,206300
24,683500	0,5	0,211550
24,691833	0,5	0,204050
24,700167	0,5	0,182500
24,708500	0,5	0,198150
24,716833	0,5	0,204300
24,725167	0,5	0,223750
24,733500	0,5	0,228200
24,741833	0,5	0,237100
24,750167	0,5	0,228200
24,758500	0,5	0,231400
24,766833	0,5	0,232500
24,775167	0,5	0,239250
24,783500	0,5	0,246000
24,791833	0,5	0,254500
24,800167	0,5	0,261250
24,808500	0,5	0,266500
24,816833	0,5	0,273300
24,825167	0,5	0,282450
24,833500	0,5	0,284650
24,841833	0,5	0,269250
24,850167	0,5	0,274400
24,858500	0,5	0,279700
24,866833	0,5	0,295450
24,875167	0,5	0,299500
24,883500	0,5	0,303950
24,891833	0,5	0,304600
24,900167	0,5	0,301900
24,908500	0,5	0,303050
24,916833	0,5	0,307200
24,925167	0,5	0,307300
24,933500	0,5	0,312400
24,941833	0,5	0,310400
24,950167	0,5	0,316500
24,958500	0,5	0,318650
24,966833	0,5	0,323050
24,975167	0,5	0,325900
24,983500	0,5	0,328050
24,991833	0,5	0,318150
25,000167	0,5	0,323550
25,008500	0,5	0,330750
25,016833	0,5	0,338500
25,025167	0,5	0,345300
25,033500	0,5	0,350350
25,041833	0,5	0,348100
25,050167	0,5	0,347950
25,058500	0,5	0,350650
25,066833	0,5	0,354300
25,075167	0,5	0,353000
25,083500	0,5	0,350900
25,091833	0,5	0,353200
25,100167	0,5	0,356150
25,108500	0,5	0,354650
25,116833	0,5	0,356250
25,125167	0,5	0,361200
25,133500	0,5	0,354700
25,141833	0,5	0,354700
25,150167	0,5	0,357350
25,158500	0,5	0,360550
25,166833	0,5	0,362250
25,175167	0,5	0,365750
25,183500	0,5	0,363850
25,191833	0,5	0,365100
25,200167	0,5	0,365150
25,208500	0,5	0,366500
25,216833	0,5	0,372050
25,225167	0,5	0,370950
25,233500	0,5	0,371650
25,241833	0,5	0,374150
25,250167	0,5	0,373050
25,258500	0,5	0,375200
25,266833	0,5	0,375150
25,275167	0,5	0,376100
25,283500	0,5	0,372400
25,291833	0,5	0,371900
25,300167	0,5	0,372700
25,308500	0,5	0,373400
25,316833	0,5	0,373850
25,325167	0,5	0,373200
25,333500	0,5	0,371150
25,341833	0,5	0,369250
25,350167	0,5	0,368500
25,358500	0,5	0,369750
25,366833	0,5	0,372550
25,375167	0,5	0,373750
25,383500	0,5	0,372400
25,391833	0,5	0,375250
25,400167	0,5	0,374100
25,408500	0,5	0,375250
25,416833	0,5	0,375300
25,425167	0,5	0,378900
25,433500	0,5	0,380300
25,441833	0,5	0,378950
25,450167	0,5	0,381550
25,458500	0,5	0,374750
25,466833	0,5	0,374950
25,475167	0,5	0,370700
25,483500	0,5	0,370600
25,491833	0,5	0,373350
25,500167	0,5	0,370950
25,508500	0,5	0,367750
25,516833	0,5	0,367100
25,525167	0,5	0,365900
25,533500	0,5	0,366200
25,541833	0,5	0,364800
25,550167	0,5	0,363900
25,558500	0,5	0,367900
25,566833	0,5	0,363800
25,575167	0,5	0,369600
25,583500	0,5	0,371150
25,591833	0,5	0,372100
25,600167	0,5	0,374350
25,608500	0,5	0,364700
25,616833	0,5	0,365800
25,625167	0,5	0,365050
25,633500	0,5	0,365650
25,641833	0,5	0,371700
25,650167	0,5	0,366600
25,658500	0,5	0,364550
25,666833	0,5	0,365200
25,675167	0,5	0,363300
25,683500	0,5	0,360250
25,691833	0,5	0,360200
25,700167	0,5	0,359400
25,708500	0,5	0,357050
25,716833	0,5	0,355250
25,725167	0,5	0,359400
25,733500	0,5	0,360400
25,741833	0,5	0,363350
25,750167	0,5	0,357400
25,758500	0,5	0,353350
25,766833	0,5	0,353350
25,775167	0,5	0,353550
25,783500	0,5	0,359750
25,791833	0,5	0,361900
25,800167	0,5	0,365200
25,808500	0,5	0,361450
25,816833	0,5	0,361700
25,825167	0,5	0,354750
25,833500	0,5	0,355150
25,841833	0,5	0,356450
25,850167	0,5	0,356450
25,858500	0,5	0,359050
25,866833	0,5	0,358000
25,875167	0,5	0,361650
25,883500	0,5	0,357300
25,891833	0,5	0,364200
25,900167	0,5	0,355400
25,908500	0,5	0,352000
25,916833	0,5	0,356050
25,925167	0,5	0,357800
25,933500	0,5	0,364250
25,941833	0,5	0,368800
25,950167	0,5	0,363600
25,958500	0,5	0,370350
25,966833	0,5	0,364050
25,975167	0,5	0,365450
25,983500	0,5	0,362800
25,991833	0,5	0,359850
26,000167	0,5	0,359050
