File Path	chrom://chromeleon01/ikbm_chromeleon/2022/ICS-5000/ED1/Esteban/20220612_Cell_7_4_eg.seq/274.smp/ED_1.channel/ED_1.chm
Channel	ED_1

Injection Information:
Data Vault	ikbm_chromeleon
Injection	CelS2_04h-EGS_1
Injection Number	91
Position	GD8
Comment	
Processing Method	Stop sequence after Cell Death
Instrument Method	ICS5000_PA200_FullNative_Ox_26min_ED1
Type	Unknown
Status	Finished
Injection Date	14.06.2022
Injection Time	10:58:01
Injection Volume (µl)	5,0
Dilution Factor	1,0000
Weight	1,0000

Chromatogram Data Information:
Time Min. (min)	0,000333
Time Max. (min)	26,000333
Data Points	3121
Detector	EDet1
Generating Data System	Chromeleon 7.2.9.11323
Exporting Data System	Chromeleon 7.2.9.0
Operator	Instrument Controller
Signal Quantity	
Signal Unit	nC
Signal Min.	-3,145150
Signal Max.	137,708902
Channel	ED_1
Driver Name	DC-5000
Channel Type	Evaluation
Min. Step (s)	0,5
Max. Step (s)	0,5
Average Step (s)	0,5

Signal Parameter Information:
Signal Info	

Chromatogram Data:
Time (min)	Step (s)	Value (nC)
0,000333	n.a.	-0,103900
0,008667	0,5	-0,092800
0,017000	0,5	-0,083100
0,025333	0,5	-0,071850
0,033667	0,5	-0,063150
0,042000	0,5	-0,056850
0,050333	0,5	-0,063850
0,058667	0,5	-0,053750
0,067000	0,5	-0,059150
0,075333	0,5	-0,049900
0,083667	0,5	-0,054700
0,092000	0,5	-0,043200
0,100333	0,5	-0,084100
0,108667	0,5	-0,077300
0,117000	0,5	-0,076650
0,125333	0,5	-0,051850
0,133667	0,5	-0,037250
0,142000	0,5	-0,046150
0,150333	0,5	-0,051900
0,158667	0,5	-0,051850
0,167000	0,5	-0,057350
0,175333	0,5	-0,060400
0,183667	0,5	-0,065850
0,192000	0,5	-0,077700
0,200333	0,5	-0,075250
0,208667	0,5	-0,078850
0,217000	0,5	-0,089850
0,225333	0,5	-0,102750
0,233667	0,5	-0,082050
0,242000	0,5	-0,096250
0,250333	0,5	-0,116100
0,258667	0,5	-0,113550
0,267000	0,5	-0,103950
0,275333	0,5	-0,080000
0,283667	0,5	-0,066000
0,292000	0,5	-0,064200
0,300333	0,5	-0,052900
0,308667	0,5	-0,074300
0,317000	0,5	-0,090950
0,325333	0,5	-0,109350
0,333667	0,5	-0,112250
0,342000	0,5	-0,115550
0,350333	0,5	-0,116550
0,358667	0,5	-0,116050
0,367000	0,5	-0,141950
0,375333	0,5	-0,143500
0,383667	0,5	-0,121250
0,392000	0,5	-0,136850
0,400333	0,5	-0,150150
0,408667	0,5	-0,136150
0,417000	0,5	-0,132050
0,425333	0,5	-0,100800
0,433667	0,5	-0,117150
0,442000	0,5	-0,107750
0,450333	0,5	-0,121950
0,458667	0,5	-0,114750
0,467000	0,5	-0,128350
0,475333	0,5	-0,118300
0,483667	0,5	-0,129700
0,492000	0,5	-0,135750
0,500333	0,5	-0,135550
0,508667	0,5	-0,140750
0,517000	0,5	-0,156050
0,525333	0,5	-0,146350
0,533667	0,5	-0,130500
0,542000	0,5	-0,152000
0,550333	0,5	-0,160550
0,558667	0,5	-0,153900
0,567000	0,5	-0,133050
0,575333	0,5	-0,113300
0,583667	0,5	-0,121100
0,592000	0,5	-0,130750
0,600333	0,5	-0,121350
0,608667	0,5	-0,130000
0,617000	0,5	-0,123500
0,625333	0,5	-0,136500
0,633667	0,5	-0,133200
0,642000	0,5	-0,136250
0,650333	0,5	-0,132400
0,658667	0,5	-0,134200
0,667000	0,5	-0,148850
0,675333	0,5	-0,136950
0,683667	0,5	-0,131200
0,692000	0,5	-0,148500
0,700333	0,5	-0,150000
0,708667	0,5	-0,141650
0,717000	0,5	-0,113550
0,725333	0,5	-0,107200
0,733667	0,5	-0,126300
0,742000	0,5	-0,124000
0,750333	0,5	-0,127250
0,758667	0,5	-0,115150
0,767000	0,5	-0,120400
0,775333	0,5	-0,117650
0,783667	0,5	-0,125900
0,792000	0,5	-0,122400
0,800333	0,5	-0,125000
0,808667	0,5	-0,123450
0,817000	0,5	-0,143500
0,825333	0,5	-0,112350
0,833667	0,5	-0,133400
0,842000	0,5	-0,132550
0,850333	0,5	-0,137350
0,858667	0,5	-0,121600
0,867000	0,5	-0,097100
0,875333	0,5	-0,096800
0,883667	0,5	-0,098700
0,892000	0,5	-0,098850
0,900333	0,5	-0,095700
0,908667	0,5	-0,100800
0,917000	0,5	-0,099000
0,925333	0,5	-0,102400
0,933667	0,5	-0,103200
0,942000	0,5	-0,107800
0,950333	0,5	-0,104550
0,958667	0,5	-0,122350
0,967000	0,5	-0,120350
0,975333	0,5	-0,104100
0,983667	0,5	-0,117500
0,992000	0,5	-0,123450
1,000333	0,5	-0,119000
1,008667	0,5	-0,102300
1,017000	0,5	-0,070150
1,025333	0,5	-0,072900
1,033667	0,5	-0,075850
1,042000	0,5	-0,080650
1,050333	0,5	-0,078400
1,058667	0,5	-0,083650
1,067000	0,5	-0,083800
1,075333	0,5	-0,089700
1,083667	0,5	-0,091350
1,092000	0,5	-0,087650
1,100333	0,5	-0,098100
1,108667	0,5	-0,102150
1,117000	0,5	-0,099050
1,125333	0,5	-0,085100
1,133667	0,5	-0,104400
1,142000	0,5	-0,100350
1,150333	0,5	-0,103950
1,158667	0,5	-0,079650
1,167000	0,5	-0,064650
1,175333	0,5	-0,059850
1,183667	0,5	-0,070600
1,192000	0,5	-0,064750
1,200333	0,5	-0,072900
1,208667	0,5	-0,065250
1,217000	0,5	-0,072600
1,225333	0,5	-0,074850
1,233667	0,5	-0,080200
1,242000	0,5	-0,077100
1,250333	0,5	-0,079700
1,258667	0,5	-0,085800
1,267000	0,5	-0,068150
1,275333	0,5	-0,075850
1,283667	0,5	-0,092700
1,292000	0,5	-0,092200
1,300333	0,5	-0,083900
1,308667	0,5	-0,058900
1,317000	0,5	-0,050350
1,325333	0,5	-0,059300
1,333667	0,5	-0,049800
1,342000	0,5	-0,059550
1,350333	0,5	-0,055650
1,358667	0,5	-0,066100
1,367000	0,5	-0,061300
1,375333	0,5	-0,063900
1,383667	0,5	-0,060600
1,392000	0,5	-0,064550
1,400333	0,5	-0,076100
1,408667	0,5	-0,081350
1,417000	0,5	-0,047950
1,425333	0,5	-0,072000
1,433667	0,5	-0,081300
1,442000	0,5	-0,078500
1,450333	0,5	-0,070450
1,458667	0,5	-0,044100
1,467000	0,5	-0,056200
1,475333	0,5	-0,056650
1,483667	0,5	-0,065100
1,492000	0,5	-0,059750
1,500333	0,5	-0,067700
1,508667	0,5	-0,064050
1,517000	0,5	-0,076300
1,525333	0,5	-0,077600
1,533667	0,5	-0,084050
1,542000	0,5	-0,084850
1,550333	0,5	-0,121450
1,558667	0,5	-0,179150
1,567000	0,5	-0,387650
1,575333	0,5	-0,868300
1,583667	0,5	-1,306100
1,592000	0,5	-0,939200
1,600333	0,5	1,349800
1,608667	0,5	7,464200
1,617000	0,5	19,469500
1,625333	0,5	35,716301
1,633667	0,5	48,693601
1,642000	0,5	51,544251
1,650333	0,5	45,001201
1,658667	0,5	34,939301
1,667000	0,5	25,949650
1,675333	0,5	19,439000
1,683667	0,5	15,169650
1,692000	0,5	12,467100
1,700333	0,5	10,834150
1,708667	0,5	9,982950
1,717000	0,5	9,530300
1,725333	0,5	9,000150
1,733667	0,5	8,283500
1,742000	0,5	7,506900
1,750333	0,5	6,853550
1,758667	0,5	6,344700
1,767000	0,5	6,012550
1,775333	0,5	5,965700
1,783667	0,5	6,294950
1,792000	0,5	6,913350
1,800333	0,5	7,565900
1,808667	0,5	8,014600
1,817000	0,5	8,120250
1,825333	0,5	7,917650
1,833667	0,5	7,493350
1,842000	0,5	7,031150
1,850333	0,5	6,605250
1,858667	0,5	6,305650
1,867000	0,5	6,005500
1,875333	0,5	5,692450
1,883667	0,5	5,372200
1,892000	0,5	5,096850
1,900333	0,5	4,878850
1,908667	0,5	4,693000
1,917000	0,5	4,503850
1,925333	0,5	4,354800
1,933667	0,5	4,239150
1,942000	0,5	4,219400
1,950333	0,5	4,278500
1,958667	0,5	4,340900
1,967000	0,5	4,301350
1,975333	0,5	4,156300
1,983667	0,5	4,011500
1,992000	0,5	3,966150
2,000333	0,5	4,145600
2,008667	0,5	4,712500
2,017000	0,5	5,978750
2,025333	0,5	8,577250
2,033667	0,5	12,533100
2,042000	0,5	16,328850
2,050333	0,5	17,725450
2,058667	0,5	16,152300
2,067000	0,5	13,296400
2,075333	0,5	10,893350
2,083667	0,5	9,530500
2,092000	0,5	8,866400
2,100333	0,5	8,378300
2,108667	0,5	7,741200
2,117000	0,5	7,044550
2,125333	0,5	6,461700
2,133667	0,5	6,081450
2,142000	0,5	5,904100
2,150333	0,5	5,962350
2,158667	0,5	6,257900
2,167000	0,5	6,722100
2,175333	0,5	7,145100
2,183667	0,5	7,257800
2,192000	0,5	7,091850
2,200333	0,5	6,818300
2,208667	0,5	6,582700
2,217000	0,5	6,370750
2,225333	0,5	6,187450
2,233667	0,5	6,015400
2,242000	0,5	5,881450
2,250333	0,5	5,786450
2,258667	0,5	5,754900
2,267000	0,5	5,775250
2,275333	0,5	5,832150
2,283667	0,5	5,873550
2,292000	0,5	5,898000
2,300333	0,5	5,919200
2,308667	0,5	5,918650
2,317000	0,5	5,925650
2,325333	0,5	5,980050
2,333667	0,5	6,072650
2,342000	0,5	6,208350
2,350333	0,5	6,305050
2,358667	0,5	6,360300
2,367000	0,5	6,401600
2,375333	0,5	6,437650
2,383667	0,5	6,496350
2,392000	0,5	6,560450
2,400333	0,5	6,632700
2,408667	0,5	6,696300
2,417000	0,5	6,755700
2,425333	0,5	6,795450
2,433667	0,5	6,826800
2,442000	0,5	6,844700
2,450333	0,5	6,906200
2,458667	0,5	6,911350
2,467000	0,5	6,950750
2,475333	0,5	7,024450
2,483667	0,5	7,135350
2,492000	0,5	7,272150
2,500333	0,5	7,342100
2,508667	0,5	7,337450
2,517000	0,5	7,239800
2,525333	0,5	7,089500
2,533667	0,5	6,957300
2,542000	0,5	6,866700
2,550333	0,5	6,799600
2,558667	0,5	6,753050
2,567000	0,5	6,709000
2,575333	0,5	6,678900
2,583667	0,5	6,635550
2,592000	0,5	6,613400
2,600333	0,5	6,605650
2,608667	0,5	6,575600
2,617000	0,5	6,564100
2,625333	0,5	6,587450
2,633667	0,5	6,619300
2,642000	0,5	6,698950
2,650333	0,5	6,785600
2,658667	0,5	6,989450
2,667000	0,5	7,369000
2,675333	0,5	8,040700
2,683667	0,5	8,968250
2,692000	0,5	9,978300
2,700333	0,5	10,755300
2,708667	0,5	11,101550
2,717000	0,5	11,062250
2,725333	0,5	10,871500
2,733667	0,5	10,841200
2,742000	0,5	11,219300
2,750333	0,5	12,164750
2,758667	0,5	13,851950
2,767000	0,5	16,812750
2,775333	0,5	22,155000
2,783667	0,5	31,991500
2,792000	0,5	48,791401
2,800333	0,5	73,375201
2,808667	0,5	102,047902
2,817000	0,5	126,407202
2,825333	0,5	137,708902
2,833667	0,5	132,846252
2,842000	0,5	115,473102
2,850333	0,5	92,716151
2,858667	0,5	70,781851
2,867000	0,5	52,951801
2,875333	0,5	39,929051
2,883667	0,5	30,983050
2,892000	0,5	25,095050
2,900333	0,5	21,238600
2,908667	0,5	18,656300
2,917000	0,5	16,821350
2,925333	0,5	15,437500
2,933667	0,5	14,332750
2,942000	0,5	13,390850
2,950333	0,5	12,453550
2,958667	0,5	11,480400
2,967000	0,5	10,437750
2,975333	0,5	9,424350
2,983667	0,5	8,489300
2,992000	0,5	7,704650
3,000333	0,5	7,054800
3,008667	0,5	6,538450
3,017000	0,5	6,117100
3,025333	0,5	5,762950
3,033667	0,5	5,468050
3,042000	0,5	5,234650
3,050333	0,5	4,995350
3,058667	0,5	4,792600
3,067000	0,5	4,616500
3,075333	0,5	4,464050
3,083667	0,5	4,333200
3,092000	0,5	4,191150
3,100333	0,5	4,062700
3,108667	0,5	3,953700
3,117000	0,5	3,878100
3,125333	0,5	3,835550
3,133667	0,5	3,833450
3,142000	0,5	3,831850
3,150333	0,5	3,814600
3,158667	0,5	3,746200
3,167000	0,5	3,623900
3,175333	0,5	3,444950
3,183667	0,5	3,270350
3,192000	0,5	3,089400
3,200333	0,5	2,915050
3,208667	0,5	2,777350
3,217000	0,5	2,682600
3,225333	0,5	2,625600
3,233667	0,5	2,591000
3,242000	0,5	2,567150
3,250333	0,5	2,557500
3,258667	0,5	2,568950
3,267000	0,5	2,591300
3,275333	0,5	2,627200
3,283667	0,5	2,686800
3,292000	0,5	2,784700
3,300333	0,5	2,915250
3,308667	0,5	3,061300
3,317000	0,5	3,170000
3,325333	0,5	3,193400
3,333667	0,5	3,123900
3,342000	0,5	2,937000
3,350333	0,5	2,683900
3,358667	0,5	2,437150
3,367000	0,5	2,216850
3,375333	0,5	2,072000
3,383667	0,5	1,953850
3,392000	0,5	1,867100
3,400333	0,5	1,815100
3,408667	0,5	1,774500
3,417000	0,5	1,733900
3,425333	0,5	1,692800
3,433667	0,5	1,649050
3,442000	0,5	1,601350
3,450333	0,5	1,559950
3,458667	0,5	1,517400
3,467000	0,5	1,484800
3,475333	0,5	1,436050
3,483667	0,5	1,431250
3,492000	0,5	1,380650
3,500333	0,5	1,356200
3,508667	0,5	1,338100
3,517000	0,5	1,331050
3,525333	0,5	1,340900
3,533667	0,5	1,320100
3,542000	0,5	1,295400
3,550333	0,5	1,284450
3,558667	0,5	1,259250
3,567000	0,5	1,240950
3,575333	0,5	1,214950
3,583667	0,5	1,198600
3,592000	0,5	1,179800
3,600333	0,5	1,167400
3,608667	0,5	1,164850
3,617000	0,5	1,152550
3,625333	0,5	1,148250
3,633667	0,5	1,171750
3,642000	0,5	1,153700
3,650333	0,5	1,154800
3,658667	0,5	1,160450
3,667000	0,5	1,161450
3,675333	0,5	1,179700
3,683667	0,5	1,153350
3,692000	0,5	1,143450
3,700333	0,5	1,115150
3,708667	0,5	1,099500
3,717000	0,5	1,066100
3,725333	0,5	1,044350
3,733667	0,5	1,016500
3,742000	0,5	1,001450
3,750333	0,5	0,986300
3,758667	0,5	0,975650
3,767000	0,5	0,958250
3,775333	0,5	0,960200
3,783667	0,5	0,964850
3,792000	0,5	0,954150
3,800333	0,5	0,959350
3,808667	0,5	0,976250
3,817000	0,5	1,005000
3,825333	0,5	1,046400
3,833667	0,5	1,082150
3,842000	0,5	1,132300
3,850333	0,5	1,228300
3,858667	0,5	1,356450
3,867000	0,5	1,548350
3,875333	0,5	1,777050
3,883667	0,5	2,041000
3,892000	0,5	2,298800
3,900333	0,5	2,514900
3,908667	0,5	2,642200
3,917000	0,5	2,660200
3,925333	0,5	2,566900
3,933667	0,5	2,377250
3,942000	0,5	2,116900
3,950333	0,5	1,862700
3,958667	0,5	1,624200
3,967000	0,5	1,435600
3,975333	0,5	1,283350
3,983667	0,5	1,154650
3,992000	0,5	1,071050
4,000333	0,5	1,003400
4,008667	0,5	0,961500
4,017000	0,5	0,923650
4,025333	0,5	0,899300
4,033667	0,5	0,873250
4,042000	0,5	0,860100
4,050333	0,5	0,849200
4,058667	0,5	0,842850
4,067000	0,5	0,832000
4,075333	0,5	0,840600
4,083667	0,5	0,815500
4,092000	0,5	0,802800
4,100333	0,5	0,803150
4,108667	0,5	0,815450
4,117000	0,5	0,832950
4,125333	0,5	0,832900
4,133667	0,5	0,833450
4,142000	0,5	0,835800
4,150333	0,5	0,837250
4,158667	0,5	0,839750
4,167000	0,5	0,845500
4,175333	0,5	0,847400
4,183667	0,5	0,848900
4,192000	0,5	0,853700
4,200333	0,5	0,856600
4,208667	0,5	0,843550
4,217000	0,5	0,857950
4,225333	0,5	0,857500
4,233667	0,5	0,849200
4,242000	0,5	0,846650
4,250333	0,5	0,857500
4,258667	0,5	0,873250
4,267000	0,5	0,886650
4,275333	0,5	0,885950
4,283667	0,5	0,889950
4,292000	0,5	0,885500
4,300333	0,5	0,893200
4,308667	0,5	0,898300
4,317000	0,5	0,906650
4,325333	0,5	0,918100
4,333667	0,5	0,943600
4,342000	0,5	0,983500
4,350333	0,5	1,039400
4,358667	0,5	1,108800
4,367000	0,5	1,221100
4,375333	0,5	1,319750
4,383667	0,5	1,443950
4,392000	0,5	1,604100
4,400333	0,5	1,797450
4,408667	0,5	2,057550
4,417000	0,5	2,344500
4,425333	0,5	2,703050
4,433667	0,5	3,146200
4,442000	0,5	3,707800
4,450333	0,5	4,377600
4,458667	0,5	5,171200
4,467000	0,5	6,058550
4,475333	0,5	7,000250
4,483667	0,5	7,910850
4,492000	0,5	8,710300
4,500333	0,5	9,305000
4,508667	0,5	9,583150
4,517000	0,5	9,556700
4,525333	0,5	9,153700
4,533667	0,5	8,470350
4,542000	0,5	7,592750
4,550333	0,5	6,615350
4,558667	0,5	5,639350
4,567000	0,5	4,704050
4,575333	0,5	3,873750
4,583667	0,5	3,196300
4,592000	0,5	2,660400
4,600333	0,5	2,253350
4,608667	0,5	1,947950
4,617000	0,5	1,736450
4,625333	0,5	1,584600
4,633667	0,5	1,487250
4,642000	0,5	1,429500
4,650333	0,5	1,398550
4,658667	0,5	1,372000
4,667000	0,5	1,389500
4,675333	0,5	1,373250
4,683667	0,5	1,387400
4,692000	0,5	1,409850
4,700333	0,5	1,445100
4,708667	0,5	1,504200
4,717000	0,5	1,553450
4,725333	0,5	1,638750
4,733667	0,5	1,740250
4,742000	0,5	1,868650
4,750333	0,5	2,008400
4,758667	0,5	2,153900
4,767000	0,5	2,272100
4,775333	0,5	2,366700
4,783667	0,5	2,405750
4,792000	0,5	2,393450
4,800333	0,5	2,315150
4,808667	0,5	2,205750
4,817000	0,5	2,057150
4,825333	0,5	1,879600
4,833667	0,5	1,714200
4,842000	0,5	1,571600
4,850333	0,5	1,448850
4,858667	0,5	1,355700
4,867000	0,5	1,263300
4,875333	0,5	1,196250
4,883667	0,5	1,147950
4,892000	0,5	1,110750
4,900333	0,5	1,083700
4,908667	0,5	1,060350
4,917000	0,5	1,047850
4,925333	0,5	1,034600
4,933667	0,5	1,028800
4,942000	0,5	1,017300
4,950333	0,5	1,011900
4,958667	0,5	1,014150
4,967000	0,5	1,004500
4,975333	0,5	0,980800
4,983667	0,5	0,981950
4,992000	0,5	0,977950
5,000333	0,5	0,990950
5,008667	0,5	0,993100
5,017000	0,5	0,989900
5,025333	0,5	0,982900
5,033667	0,5	0,979750
5,042000	0,5	0,977100
5,050333	0,5	0,972800
5,058667	0,5	0,969750
5,067000	0,5	0,964000
5,075333	0,5	0,967600
5,083667	0,5	0,970350
5,092000	0,5	0,984000
5,100333	0,5	0,991250
5,108667	0,5	1,013300
5,117000	0,5	1,010200
5,125333	0,5	1,017300
5,133667	0,5	1,030350
5,142000	0,5	1,060850
5,150333	0,5	1,096500
5,158667	0,5	1,133550
5,167000	0,5	1,161850
5,175333	0,5	1,209850
5,183667	0,5	1,266650
5,192000	0,5	1,354650
5,200333	0,5	1,469400
5,208667	0,5	1,637850
5,217000	0,5	1,863750
5,225333	0,5	2,172550
5,233667	0,5	2,555800
5,242000	0,5	2,995950
5,250333	0,5	3,485200
5,258667	0,5	3,964800
5,267000	0,5	4,370950
5,275333	0,5	4,656950
5,283667	0,5	4,820100
5,292000	0,5	4,812650
5,300333	0,5	4,653100
5,308667	0,5	4,346950
5,317000	0,5	3,966900
5,325333	0,5	3,543000
5,333667	0,5	3,130100
5,342000	0,5	2,738900
5,350333	0,5	2,401800
5,358667	0,5	2,109800
5,367000	0,5	1,877950
5,375333	0,5	1,690900
5,383667	0,5	1,546400
5,392000	0,5	1,425300
5,400333	0,5	1,352750
5,408667	0,5	1,278950
5,417000	0,5	1,217850
5,425333	0,5	1,170350
5,433667	0,5	1,136750
5,442000	0,5	1,125600
5,450333	0,5	1,097650
5,458667	0,5	1,076900
5,467000	0,5	1,055050
5,475333	0,5	1,048050
5,483667	0,5	1,040300
5,492000	0,5	1,038900
5,500333	0,5	1,026250
5,508667	0,5	1,027150
5,517000	0,5	1,022400
5,525333	0,5	1,021800
5,533667	0,5	1,024350
5,542000	0,5	1,008900
5,550333	0,5	1,010800
5,558667	0,5	0,987800
5,567000	0,5	0,963550
5,575333	0,5	0,940700
5,583667	0,5	0,926950
5,592000	0,5	0,918750
5,600333	0,5	0,888100
5,608667	0,5	0,853300
5,617000	0,5	0,822200
5,625333	0,5	0,790500
5,633667	0,5	0,760050
5,642000	0,5	0,730000
5,650333	0,5	0,704700
5,658667	0,5	0,677000
5,667000	0,5	0,662800
5,675333	0,5	0,643550
5,683667	0,5	0,632150
5,692000	0,5	0,609400
5,700333	0,5	0,614400
5,708667	0,5	0,591650
5,717000	0,5	0,585400
5,725333	0,5	0,578000
5,733667	0,5	0,583300
5,742000	0,5	0,595650
5,750333	0,5	0,591300
5,758667	0,5	0,592950
5,767000	0,5	0,590350
5,775333	0,5	0,584600
5,783667	0,5	0,575200
5,792000	0,5	0,561850
5,800333	0,5	0,544250
5,808667	0,5	0,533100
5,817000	0,5	0,517850
5,825333	0,5	0,505750
5,833667	0,5	0,488300
5,842000	0,5	0,483000
5,850333	0,5	0,485900
5,858667	0,5	0,480900
5,867000	0,5	0,493200
5,875333	0,5	0,516400
5,883667	0,5	0,554600
5,892000	0,5	0,596450
5,900333	0,5	0,613350
5,908667	0,5	0,625700
5,917000	0,5	0,617650
5,925333	0,5	0,599150
5,933667	0,5	0,565050
5,942000	0,5	0,534450
5,950333	0,5	0,498600
5,958667	0,5	0,468900
5,967000	0,5	0,449350
5,975333	0,5	0,432550
5,983667	0,5	0,429100
5,992000	0,5	0,445050
6,000333	0,5	0,455450
6,008667	0,5	0,469150
6,017000	0,5	0,491500
6,025333	0,5	0,505900
6,033667	0,5	0,520400
6,042000	0,5	0,521550
6,050333	0,5	0,511950
6,058667	0,5	0,490550
6,067000	0,5	0,474150
6,075333	0,5	0,449400
6,083667	0,5	0,438250
6,092000	0,5	0,416800
6,100333	0,5	0,398300
6,108667	0,5	0,379500
6,117000	0,5	0,359900
6,125333	0,5	0,344850
6,133667	0,5	0,329850
6,142000	0,5	0,324600
6,150333	0,5	0,308550
6,158667	0,5	0,293000
6,167000	0,5	0,285600
6,175333	0,5	0,285400
6,183667	0,5	0,285850
6,192000	0,5	0,280250
6,200333	0,5	0,260800
6,208667	0,5	0,256650
6,217000	0,5	0,244650
6,225333	0,5	0,239000
6,233667	0,5	0,231150
6,242000	0,5	0,228050
6,250333	0,5	0,229650
6,258667	0,5	0,232450
6,267000	0,5	0,240000
6,275333	0,5	0,240700
6,283667	0,5	0,245450
6,292000	0,5	0,257650
6,300333	0,5	0,254000
6,308667	0,5	0,251650
6,317000	0,5	0,249650
6,325333	0,5	0,252150
6,333667	0,5	0,255100
6,342000	0,5	0,244000
6,350333	0,5	0,244000
6,358667	0,5	0,242000
6,367000	0,5	0,252200
6,375333	0,5	0,260350
6,383667	0,5	0,278800
6,392000	0,5	0,293500
6,400333	0,5	0,312900
6,408667	0,5	0,321900
6,417000	0,5	0,332350
6,425333	0,5	0,325100
6,433667	0,5	0,328600
6,442000	0,5	0,318100
6,450333	0,5	0,300450
6,458667	0,5	0,281400
6,467000	0,5	0,272550
6,475333	0,5	0,275800
6,483667	0,5	0,271500
6,492000	0,5	0,262850
6,500333	0,5	0,266650
6,508667	0,5	0,265700
6,517000	0,5	0,265550
6,525333	0,5	0,265050
6,533667	0,5	0,267000
6,542000	0,5	0,262850
6,550333	0,5	0,265100
6,558667	0,5	0,266350
6,567000	0,5	0,269400
6,575333	0,5	0,267850
6,583667	0,5	0,277100
6,592000	0,5	0,278150
6,600333	0,5	0,274600
6,608667	0,5	0,278050
6,617000	0,5	0,286300
6,625333	0,5	0,298900
6,633667	0,5	0,305950
6,642000	0,5	0,303800
6,650333	0,5	0,308900
6,658667	0,5	0,313600
6,667000	0,5	0,320850
6,675333	0,5	0,326100
6,683667	0,5	0,332450
6,692000	0,5	0,340050
6,700333	0,5	0,351350
6,708667	0,5	0,354600
6,717000	0,5	0,357850
6,725333	0,5	0,361750
6,733667	0,5	0,381650
6,742000	0,5	0,380400
6,750333	0,5	0,387700
6,758667	0,5	0,389400
6,767000	0,5	0,402300
6,775333	0,5	0,414800
6,783667	0,5	0,412000
6,792000	0,5	0,406600
6,800333	0,5	0,406100
6,808667	0,5	0,408250
6,817000	0,5	0,416850
6,825333	0,5	0,428250
6,833667	0,5	0,456750
6,842000	0,5	0,493100
6,850333	0,5	0,557050
6,858667	0,5	0,641100
6,867000	0,5	0,754900
6,875333	0,5	0,897500
6,883667	0,5	1,062150
6,892000	0,5	1,211100
6,900333	0,5	1,340700
6,908667	0,5	1,428950
6,917000	0,5	1,468350
6,925333	0,5	1,454300
6,933667	0,5	1,376600
6,942000	0,5	1,281300
6,950333	0,5	1,163500
6,958667	0,5	1,050650
6,967000	0,5	0,936250
6,975333	0,5	0,831650
6,983667	0,5	0,733250
6,992000	0,5	0,656600
7,000333	0,5	0,594100
7,008667	0,5	0,543400
7,017000	0,5	0,515200
7,025333	0,5	0,511350
7,033667	0,5	0,507800
7,042000	0,5	0,496500
7,050333	0,5	0,497350
7,058667	0,5	0,488050
7,067000	0,5	0,481850
7,075333	0,5	0,466400
7,083667	0,5	0,451950
7,092000	0,5	0,437750
7,100333	0,5	0,435100
7,108667	0,5	0,426600
7,117000	0,5	0,429300
7,125333	0,5	0,426350
7,133667	0,5	0,429750
7,142000	0,5	0,431250
7,150333	0,5	0,435700
7,158667	0,5	0,442000
7,167000	0,5	0,458650
7,175333	0,5	0,490500
7,183667	0,5	0,519100
7,192000	0,5	0,545650
7,200333	0,5	0,579500
7,208667	0,5	0,604600
7,217000	0,5	0,625950
7,225333	0,5	0,630050
7,233667	0,5	0,621300
7,242000	0,5	0,614550
7,250333	0,5	0,602350
7,258667	0,5	0,604600
7,267000	0,5	0,614450
7,275333	0,5	0,636500
7,283667	0,5	0,665450
7,292000	0,5	0,703800
7,300333	0,5	0,730650
7,308667	0,5	0,742600
7,317000	0,5	0,736050
7,325333	0,5	0,716900
7,333667	0,5	0,669600
7,342000	0,5	0,623200
7,350333	0,5	0,585950
7,358667	0,5	0,562800
7,367000	0,5	0,561550
7,375333	0,5	0,565450
7,383667	0,5	0,601800
7,392000	0,5	0,680500
7,400333	0,5	0,813700
7,408667	0,5	1,018800
7,417000	0,5	1,302850
7,425333	0,5	1,668250
7,433667	0,5	2,099150
7,442000	0,5	2,584050
7,450333	0,5	3,107100
7,458667	0,5	3,657500
7,467000	0,5	4,272350
7,475333	0,5	5,006000
7,483667	0,5	6,013100
7,492000	0,5	7,594300
7,500333	0,5	10,238850
7,508667	0,5	14,642300
7,517000	0,5	21,509850
7,525333	0,5	31,084750
7,533667	0,5	42,713451
7,542000	0,5	54,467051
7,550333	0,5	63,791101
7,558667	0,5	68,457901
7,567000	0,5	67,609401
7,575333	0,5	61,887401
7,583667	0,5	52,918151
7,592000	0,5	42,608501
7,600333	0,5	32,537350
7,608667	0,5	23,783800
7,617000	0,5	16,909500
7,625333	0,5	11,920450
7,633667	0,5	8,513600
7,642000	0,5	6,277500
7,650333	0,5	4,824450
7,658667	0,5	3,860100
7,667000	0,5	3,190950
7,675333	0,5	2,713500
7,683667	0,5	2,361800
7,692000	0,5	2,103450
7,700333	0,5	1,901850
7,708667	0,5	1,752600
7,717000	0,5	1,636750
7,725333	0,5	1,552450
7,733667	0,5	1,476700
7,742000	0,5	1,412100
7,750333	0,5	1,347750
7,758667	0,5	1,295800
7,767000	0,5	1,272700
7,775333	0,5	1,270650
7,783667	0,5	1,286250
7,792000	0,5	1,296350
7,800333	0,5	1,279350
7,808667	0,5	1,238350
7,817000	0,5	1,171500
7,825333	0,5	1,089450
7,833667	0,5	1,012400
7,842000	0,5	0,933600
7,850333	0,5	0,864400
7,858667	0,5	0,800700
7,867000	0,5	0,746950
7,875333	0,5	0,706800
7,883667	0,5	0,690200
7,892000	0,5	0,697250
7,900333	0,5	0,711950
7,908667	0,5	0,741900
7,917000	0,5	0,762250
7,925333	0,5	0,757800
7,933667	0,5	0,732000
7,942000	0,5	0,689350
7,950333	0,5	0,641400
7,958667	0,5	0,598650
7,967000	0,5	0,556750
7,975333	0,5	0,520600
7,983667	0,5	0,496050
7,992000	0,5	0,476000
8,000333	0,5	0,469450
8,008667	0,5	0,478100
8,017000	0,5	0,478450
8,025333	0,5	0,494950
8,033667	0,5	0,503500
8,042000	0,5	0,495750
8,050333	0,5	0,479300
8,058667	0,5	0,477800
8,067000	0,5	0,492250
8,075333	0,5	0,519400
8,083667	0,5	0,568400
8,092000	0,5	0,630400
8,100333	0,5	0,685000
8,108667	0,5	0,707700
8,117000	0,5	0,686750
8,125333	0,5	0,642700
8,133667	0,5	0,582200
8,142000	0,5	0,525200
8,150333	0,5	0,473150
8,158667	0,5	0,429800
8,167000	0,5	0,399600
8,175333	0,5	0,374950
8,183667	0,5	0,367100
8,192000	0,5	0,370600
8,200333	0,5	0,377050
8,208667	0,5	0,392650
8,217000	0,5	0,393450
8,225333	0,5	0,386650
8,233667	0,5	0,376950
8,242000	0,5	0,364950
8,250333	0,5	0,360950
8,258667	0,5	0,351050
8,267000	0,5	0,352300
8,275333	0,5	0,354350
8,283667	0,5	0,361750
8,292000	0,5	0,375000
8,300333	0,5	0,391300
8,308667	0,5	0,398050
8,317000	0,5	0,406200
8,325333	0,5	0,413050
8,333667	0,5	0,401550
8,342000	0,5	0,390550
8,350333	0,5	0,378950
8,358667	0,5	0,359550
8,367000	0,5	0,346600
8,375333	0,5	0,336400
8,383667	0,5	0,334400
8,392000	0,5	0,342750
8,400333	0,5	0,364050
8,408667	0,5	0,389200
8,417000	0,5	0,424550
8,425333	0,5	0,474600
8,433667	0,5	0,532000
8,442000	0,5	0,601150
8,450333	0,5	0,678150
8,458667	0,5	0,743300
8,467000	0,5	0,789000
8,475333	0,5	0,799250
8,483667	0,5	0,771850
8,492000	0,5	0,715600
8,500333	0,5	0,651650
8,508667	0,5	0,594150
8,517000	0,5	0,540300
8,525333	0,5	0,503200
8,533667	0,5	0,485550
8,542000	0,5	0,482350
8,550333	0,5	0,495150
8,558667	0,5	0,528700
8,567000	0,5	0,592250
8,575333	0,5	0,672600
8,583667	0,5	0,772650
8,592000	0,5	0,888050
8,600333	0,5	1,029150
8,608667	0,5	1,203000
8,617000	0,5	1,428700
8,625333	0,5	1,715750
8,633667	0,5	2,074700
8,642000	0,5	2,512200
8,650333	0,5	3,028000
8,658667	0,5	3,599400
8,667000	0,5	4,234850
8,675333	0,5	4,987250
8,683667	0,5	6,025550
8,692000	0,5	7,749700
8,700333	0,5	10,886600
8,708667	0,5	16,513750
8,717000	0,5	25,615050
8,725333	0,5	38,187851
8,733667	0,5	52,355151
8,742000	0,5	64,659151
8,750333	0,5	71,512951
8,758667	0,5	71,034201
8,767000	0,5	63,756951
8,775333	0,5	52,161001
8,783667	0,5	39,318601
8,792000	0,5	27,706050
8,800333	0,5	18,602350
8,808667	0,5	12,192900
8,817000	0,5	8,035750
8,825333	0,5	5,481550
8,833667	0,5	3,956750
8,842000	0,5	3,044150
8,850333	0,5	2,477050
8,858667	0,5	2,107200
8,867000	0,5	1,857600
8,875333	0,5	1,680150
8,883667	0,5	1,551200
8,892000	0,5	1,450350
8,900333	0,5	1,373100
8,908667	0,5	1,307500
8,917000	0,5	1,255050
8,925333	0,5	1,208200
8,933667	0,5	1,172800
8,942000	0,5	1,136550
8,950333	0,5	1,113250
8,958667	0,5	1,089150
8,967000	0,5	1,068350
8,975333	0,5	1,052300
8,983667	0,5	1,035200
8,992000	0,5	1,020400
9,000333	0,5	1,001100
9,008667	0,5	0,976500
9,017000	0,5	0,958450
9,025333	0,5	0,943950
9,033667	0,5	0,940050
9,042000	0,5	0,940750
9,050333	0,5	0,957800
9,058667	0,5	0,975400
9,067000	0,5	0,995050
9,075333	0,5	1,003850
9,083667	0,5	0,994650
9,092000	0,5	0,976550
9,100333	0,5	0,949000
9,108667	0,5	0,911450
9,117000	0,5	0,870750
9,125333	0,5	0,841600
9,133667	0,5	0,826150
9,142000	0,5	0,823700
9,150333	0,5	0,832300
9,158667	0,5	0,848050
9,167000	0,5	0,859150
9,175333	0,5	0,858950
9,183667	0,5	0,848400
9,192000	0,5	0,824950
9,200333	0,5	0,800350
9,208667	0,5	0,777950
9,217000	0,5	0,766150
9,225333	0,5	0,761250
9,233667	0,5	0,755300
9,242000	0,5	0,766600
9,250333	0,5	0,771350
9,258667	0,5	0,778100
9,267000	0,5	0,789000
9,275333	0,5	0,806150
9,283667	0,5	0,827450
9,292000	0,5	0,865000
9,300333	0,5	0,924600
9,308667	0,5	1,000300
9,317000	0,5	1,085300
9,325333	0,5	1,156450
9,333667	0,5	1,184050
9,342000	0,5	1,171950
9,350333	0,5	1,125050
9,358667	0,5	1,063150
9,367000	0,5	1,002200
9,375333	0,5	0,947650
9,383667	0,5	0,904700
9,392000	0,5	0,877950
9,400333	0,5	0,865000
9,408667	0,5	0,854400
9,417000	0,5	0,848850
9,425333	0,5	0,850600
9,433667	0,5	0,854900
9,442000	0,5	0,855050
9,450333	0,5	0,849150
9,458667	0,5	0,844250
9,467000	0,5	0,833450
9,475333	0,5	0,822000
9,483667	0,5	0,813950
9,492000	0,5	0,807200
9,500333	0,5	0,800550
9,508667	0,5	0,796000
9,517000	0,5	0,795250
9,525333	0,5	0,784450
9,533667	0,5	0,777300
9,542000	0,5	0,778250
9,550333	0,5	0,773700
9,558667	0,5	0,774600
9,567000	0,5	0,778550
9,575333	0,5	0,790250
9,583667	0,5	0,802750
9,592000	0,5	0,827150
9,600333	0,5	0,859100
9,608667	0,5	0,901950
9,617000	0,5	0,947950
9,625333	0,5	0,992650
9,633667	0,5	1,017600
9,642000	0,5	1,014800
9,650333	0,5	0,990150
9,658667	0,5	0,947800
9,667000	0,5	0,902500
9,675333	0,5	0,862550
9,683667	0,5	0,835950
9,692000	0,5	0,821350
9,700333	0,5	0,817050
9,708667	0,5	0,824350
9,717000	0,5	0,845250
9,725333	0,5	0,875600
9,733667	0,5	0,922800
9,742000	0,5	0,968650
9,750333	0,5	1,010200
9,758667	0,5	1,049100
9,767000	0,5	1,084600
9,775333	0,5	1,110200
9,783667	0,5	1,131650
9,792000	0,5	1,156750
9,800333	0,5	1,188850
9,808667	0,5	1,234200
9,817000	0,5	1,294200
9,825333	0,5	1,367750
9,833667	0,5	1,442650
9,842000	0,5	1,511150
9,850333	0,5	1,554900
9,858667	0,5	1,568700
9,867000	0,5	1,545100
9,875333	0,5	1,488700
9,883667	0,5	1,413300
9,892000	0,5	1,321000
9,900333	0,5	1,231900
9,908667	0,5	1,150700
9,917000	0,5	1,084700
9,925333	0,5	1,039600
9,933667	0,5	1,007050
9,942000	0,5	0,983200
9,950333	0,5	0,966650
9,958667	0,5	0,959400
9,967000	0,5	0,948200
9,975333	0,5	0,941450
9,983667	0,5	0,939400
9,992000	0,5	0,948200
10,000333	0,5	0,965950
10,008667	0,5	1,003900
10,017000	0,5	1,056250
10,025333	0,5	1,125550
10,033667	0,5	1,190350
10,042000	0,5	1,226750
10,050333	0,5	1,235300
10,058667	0,5	1,211700
10,067000	0,5	1,168400
10,075333	0,5	1,118350
10,083667	0,5	1,072750
10,092000	0,5	1,039100
10,100333	0,5	1,015500
10,108667	0,5	1,003500
10,117000	0,5	0,994300
10,125333	0,5	0,982050
10,133667	0,5	0,977500
10,142000	0,5	0,978800
10,150333	0,5	0,977850
10,158667	0,5	0,988150
10,167000	0,5	0,989900
10,175333	0,5	0,986300
10,183667	0,5	0,973950
10,192000	0,5	0,948900
10,200333	0,5	0,918900
10,208667	0,5	0,888350
10,217000	0,5	0,857850
10,225333	0,5	0,830900
10,233667	0,5	0,815000
10,242000	0,5	0,801000
10,250333	0,5	0,788950
10,258667	0,5	0,789450
10,267000	0,5	0,782150
10,275333	0,5	0,783000
10,283667	0,5	0,793200
10,292000	0,5	0,799100
10,300333	0,5	0,803750
10,308667	0,5	0,810250
10,317000	0,5	0,815500
10,325333	0,5	0,821000
10,333667	0,5	0,824000
10,342000	0,5	0,834600
10,350333	0,5	0,846350
10,358667	0,5	0,879350
10,367000	0,5	0,912700
10,375333	0,5	0,959950
10,383667	0,5	1,000650
10,392000	0,5	1,024750
10,400333	0,5	1,030200
10,408667	0,5	1,015700
10,417000	0,5	0,987650
10,425333	0,5	0,953600
10,433667	0,5	0,919050
10,442000	0,5	0,882900
10,450333	0,5	0,845100
10,458667	0,5	0,819450
10,467000	0,5	0,796200
10,475333	0,5	0,785300
10,483667	0,5	0,778200
10,492000	0,5	0,776700
10,500333	0,5	0,773850
10,508667	0,5	0,771750
10,517000	0,5	0,770200
10,525333	0,5	0,761750
10,533667	0,5	0,752150
10,542000	0,5	0,736750
10,550333	0,5	0,721900
10,558667	0,5	0,709300
10,567000	0,5	0,695650
10,575333	0,5	0,689850
10,583667	0,5	0,688500
10,592000	0,5	0,684800
10,600333	0,5	0,687950
10,608667	0,5	0,697200
10,617000	0,5	0,713000
10,625333	0,5	0,732800
10,633667	0,5	0,752900
10,642000	0,5	0,772400
10,650333	0,5	0,796150
10,658667	0,5	0,821400
10,667000	0,5	0,864400
10,675333	0,5	0,918100
10,683667	0,5	0,973550
10,692000	0,5	1,023600
10,700333	0,5	1,052800
10,708667	0,5	1,053950
10,717000	0,5	1,014850
10,725333	0,5	0,962400
10,733667	0,5	0,897100
10,742000	0,5	0,830250
10,750333	0,5	0,774400
10,758667	0,5	0,741050
10,767000	0,5	0,691900
10,775333	0,5	0,668650
10,783667	0,5	0,650800
10,792000	0,5	0,636550
10,800333	0,5	0,628100
10,808667	0,5	0,622300
10,817000	0,5	0,622400
10,825333	0,5	0,624250
10,833667	0,5	0,629500
10,842000	0,5	0,643200
10,850333	0,5	0,650450
10,858667	0,5	0,659850
10,867000	0,5	0,673400
10,875333	0,5	0,683650
10,883667	0,5	0,690150
10,892000	0,5	0,688600
10,900333	0,5	0,688700
10,908667	0,5	0,682750
10,917000	0,5	0,692650
10,925333	0,5	0,706100
10,933667	0,5	0,735200
10,942000	0,5	0,770250
10,950333	0,5	0,808100
10,958667	0,5	0,834500
10,967000	0,5	0,848000
10,975333	0,5	0,836550
10,983667	0,5	0,810200
10,992000	0,5	0,775450
11,000333	0,5	0,737000
11,008667	0,5	0,700700
11,017000	0,5	0,677800
11,025333	0,5	0,661350
11,033667	0,5	0,648750
11,042000	0,5	0,640100
11,050333	0,5	0,636850
11,058667	0,5	0,652700
11,067000	0,5	0,673800
11,075333	0,5	0,716700
11,083667	0,5	0,766500
11,092000	0,5	0,826850
11,100333	0,5	0,887950
11,108667	0,5	0,943900
11,117000	0,5	0,976600
11,125333	0,5	0,989650
11,133667	0,5	0,982650
11,142000	0,5	0,954100
11,150333	0,5	0,919050
11,158667	0,5	0,883550
11,167000	0,5	0,860400
11,175333	0,5	0,845750
11,183667	0,5	0,835300
11,192000	0,5	0,819500
11,200333	0,5	0,794900
11,208667	0,5	0,768250
11,217000	0,5	0,728350
11,225333	0,5	0,681450
11,233667	0,5	0,643600
11,242000	0,5	0,602950
11,250333	0,5	0,572500
11,258667	0,5	0,550450
11,267000	0,5	0,538250
11,275333	0,5	0,529000
11,283667	0,5	0,526750
11,292000	0,5	0,527950
11,300333	0,5	0,537600
11,308667	0,5	0,539100
11,317000	0,5	0,559400
11,325333	0,5	0,573650
11,333667	0,5	0,582350
11,342000	0,5	0,596250
11,350333	0,5	0,606850
11,358667	0,5	0,624900
11,367000	0,5	0,635950
11,375333	0,5	0,650550
11,383667	0,5	0,659350
11,392000	0,5	0,666400
11,400333	0,5	0,662350
11,408667	0,5	0,656100
11,417000	0,5	0,639600
11,425333	0,5	0,619800
11,433667	0,5	0,598150
11,442000	0,5	0,577950
11,450333	0,5	0,553000
11,458667	0,5	0,538450
11,467000	0,5	0,523700
11,475333	0,5	0,510000
11,483667	0,5	0,504600
11,492000	0,5	0,496550
11,500333	0,5	0,496100
11,508667	0,5	0,505400
11,517000	0,5	0,517250
11,525333	0,5	0,531500
11,533667	0,5	0,551900
11,542000	0,5	0,581950
11,550333	0,5	0,615300
11,558667	0,5	0,656900
11,567000	0,5	0,699200
11,575333	0,5	0,745400
11,583667	0,5	0,796350
11,592000	0,5	0,840150
11,600333	0,5	0,871650
11,608667	0,5	0,890300
11,617000	0,5	0,892550
11,625333	0,5	0,868800
11,633667	0,5	0,829250
11,642000	0,5	0,777950
11,650333	0,5	0,723700
11,658667	0,5	0,677800
11,667000	0,5	0,638000
11,675333	0,5	0,612850
11,683667	0,5	0,596650
11,692000	0,5	0,596450
11,700333	0,5	0,608400
11,708667	0,5	0,626500
11,717000	0,5	0,642200
11,725333	0,5	0,655950
11,733667	0,5	0,657400
11,742000	0,5	0,658850
11,750333	0,5	0,639550
11,758667	0,5	0,624800
11,767000	0,5	0,600500
11,775333	0,5	0,573600
11,783667	0,5	0,547750
11,792000	0,5	0,519350
11,800333	0,5	0,504200
11,808667	0,5	0,498750
11,817000	0,5	0,491250
11,825333	0,5	0,488650
11,833667	0,5	0,486600
11,842000	0,5	0,493800
11,850333	0,5	0,496000
11,858667	0,5	0,498600
11,867000	0,5	0,502750
11,875333	0,5	0,507600
11,883667	0,5	0,511250
11,892000	0,5	0,507500
11,900333	0,5	0,506600
11,908667	0,5	0,505900
11,917000	0,5	0,503250
11,925333	0,5	0,499800
11,933667	0,5	0,506850
11,942000	0,5	0,517000
11,950333	0,5	0,550950
11,958667	0,5	0,592650
11,967000	0,5	0,648600
11,975333	0,5	0,706150
11,983667	0,5	0,763050
11,992000	0,5	0,803500
12,000333	0,5	0,827150
12,008667	0,5	0,822000
12,017000	0,5	0,788550
12,025333	0,5	0,743100
12,033667	0,5	0,677800
12,042000	0,5	0,611400
12,050333	0,5	0,560850
12,058667	0,5	0,517550
12,067000	0,5	0,482650
12,075333	0,5	0,462900
12,083667	0,5	0,447100
12,092000	0,5	0,448300
12,100333	0,5	0,454750
12,108667	0,5	0,468350
12,117000	0,5	0,477400
12,125333	0,5	0,487850
12,133667	0,5	0,488650
12,142000	0,5	0,488350
12,150333	0,5	0,481500
12,158667	0,5	0,473300
12,167000	0,5	0,456050
12,175333	0,5	0,438900
12,183667	0,5	0,427250
12,192000	0,5	0,412900
12,200333	0,5	0,409700
12,208667	0,5	0,405000
12,217000	0,5	0,397500
12,225333	0,5	0,389950
12,233667	0,5	0,383100
12,242000	0,5	0,380650
12,250333	0,5	0,385850
12,258667	0,5	0,385550
12,267000	0,5	0,389000
12,275333	0,5	0,389950
12,283667	0,5	0,398050
12,292000	0,5	0,406600
12,300333	0,5	0,418300
12,308667	0,5	0,425750
12,317000	0,5	0,439650
12,325333	0,5	0,456300
12,333667	0,5	0,477900
12,342000	0,5	0,489550
12,350333	0,5	0,516500
12,358667	0,5	0,530100
12,367000	0,5	0,531250
12,375333	0,5	0,528850
12,383667	0,5	0,512350
12,392000	0,5	0,503450
12,400333	0,5	0,481750
12,408667	0,5	0,457500
12,417000	0,5	0,433550
12,425333	0,5	0,409900
12,433667	0,5	0,391750
12,442000	0,5	0,379500
12,450333	0,5	0,362300
12,458667	0,5	0,349250
12,467000	0,5	0,339700
12,475333	0,5	0,334250
12,483667	0,5	0,319100
12,492000	0,5	0,317650
12,500333	0,5	0,312800
12,508667	0,5	0,310500
12,517000	0,5	0,299900
12,525333	0,5	0,296400
12,533667	0,5	0,294900
12,542000	0,5	0,301900
12,550333	0,5	0,311800
12,558667	0,5	0,321600
12,567000	0,5	0,332450
12,575333	0,5	0,344200
12,583667	0,5	0,344300
12,592000	0,5	0,365900
12,600333	0,5	0,375350
12,608667	0,5	0,369000
12,617000	0,5	0,367750
12,625333	0,5	0,353400
12,633667	0,5	0,331350
12,642000	0,5	0,312600
12,650333	0,5	0,297600
12,658667	0,5	0,276800
12,667000	0,5	0,262050
12,675333	0,5	0,244800
12,683667	0,5	0,238800
12,692000	0,5	0,234600
12,700333	0,5	0,232300
12,708667	0,5	0,227850
12,717000	0,5	0,226450
12,725333	0,5	0,226750
12,733667	0,5	0,231950
12,742000	0,5	0,236950
12,750333	0,5	0,243850
12,758667	0,5	0,247350
12,767000	0,5	0,250450
12,775333	0,5	0,253400
12,783667	0,5	0,252500
12,792000	0,5	0,257050
12,800333	0,5	0,254500
12,808667	0,5	0,254250
12,817000	0,5	0,246700
12,825333	0,5	0,243650
12,833667	0,5	0,246750
12,842000	0,5	0,261100
12,850333	0,5	0,279850
12,858667	0,5	0,296900
12,867000	0,5	0,337300
12,875333	0,5	0,362150
12,883667	0,5	0,387200
12,892000	0,5	0,406350
12,900333	0,5	0,414800
12,908667	0,5	0,414450
12,917000	0,5	0,410700
12,925333	0,5	0,392050
12,933667	0,5	0,380550
12,942000	0,5	0,364950
12,950333	0,5	0,344700
12,958667	0,5	0,322850
12,967000	0,5	0,296700
12,975333	0,5	0,275300
12,983667	0,5	0,259150
12,992000	0,5	0,242300
13,000333	0,5	0,236400
13,008667	0,5	0,227550
13,017000	0,5	0,229200
13,025333	0,5	0,233050
13,033667	0,5	0,240700
13,042000	0,5	0,247800
13,050333	0,5	0,260650
13,058667	0,5	0,272650
13,067000	0,5	0,279150
13,075333	0,5	0,271650
13,083667	0,5	0,278600
13,092000	0,5	0,277000
13,100333	0,5	0,265400
13,108667	0,5	0,249650
13,117000	0,5	0,221200
13,125333	0,5	0,207000
13,133667	0,5	0,185000
13,142000	0,5	0,170550
13,150333	0,5	0,160550
13,158667	0,5	0,166850
13,167000	0,5	0,179950
13,175333	0,5	0,204550
13,183667	0,5	0,223000
13,192000	0,5	0,242400
13,200333	0,5	0,251600
13,208667	0,5	0,249800
13,217000	0,5	0,241800
13,225333	0,5	0,220750
13,233667	0,5	0,214350
13,242000	0,5	0,208050
13,250333	0,5	0,201700
13,258667	0,5	0,203600
13,267000	0,5	0,204500
13,275333	0,5	0,226150
13,283667	0,5	0,247050
13,292000	0,5	0,259900
13,300333	0,5	0,267900
13,308667	0,5	0,263650
13,317000	0,5	0,255950
13,325333	0,5	0,243400
13,333667	0,5	0,236900
13,342000	0,5	0,228100
13,350333	0,5	0,218950
13,358667	0,5	0,213750
13,367000	0,5	0,207100
13,375333	0,5	0,195850
13,383667	0,5	0,203650
13,392000	0,5	0,195350
13,400333	0,5	0,186800
13,408667	0,5	0,179700
13,417000	0,5	0,171100
13,425333	0,5	0,177450
13,433667	0,5	0,173750
13,442000	0,5	0,172950
13,450333	0,5	0,170100
13,458667	0,5	0,173700
13,467000	0,5	0,175100
13,475333	0,5	0,174450
13,483667	0,5	0,171350
13,492000	0,5	0,167100
13,500333	0,5	0,155950
13,508667	0,5	0,146150
13,517000	0,5	0,120350
13,525333	0,5	0,106700
13,533667	0,5	0,094750
13,542000	0,5	0,076200
13,550333	0,5	0,056050
13,558667	0,5	0,037450
13,567000	0,5	0,019450
13,575333	0,5	0,007150
13,583667	0,5	-0,012950
13,592000	0,5	-0,039000
13,600333	0,5	-0,107200
13,608667	0,5	-0,263050
13,617000	0,5	-0,471050
13,625333	0,5	-0,661200
13,633667	0,5	-0,798450
13,642000	0,5	-0,889550
13,650333	0,5	-0,938600
13,658667	0,5	-0,981250
13,667000	0,5	-1,011900
13,675333	0,5	-1,028550
13,683667	0,5	-1,044000
13,692000	0,5	-1,057850
13,700333	0,5	-1,071650
13,708667	0,5	-1,088250
13,717000	0,5	-1,084850
13,725333	0,5	-1,089400
13,733667	0,5	-1,083800
13,742000	0,5	-1,081100
13,750333	0,5	-1,076600
13,758667	0,5	-1,077500
13,767000	0,5	-1,075700
13,775333	0,5	-1,076250
13,783667	0,5	-1,075550
13,792000	0,5	-1,075950
13,800333	0,5	-1,073100
13,808667	0,5	-1,074150
13,817000	0,5	-1,075200
13,825333	0,5	-1,062650
13,833667	0,5	-1,060350
13,842000	0,5	-1,052000
13,850333	0,5	-1,053800
13,858667	0,5	-1,044950
13,867000	0,5	-1,034100
13,875333	0,5	-1,018850
13,883667	0,5	-1,011000
13,892000	0,5	-0,997350
13,900333	0,5	-0,992350
13,908667	0,5	-0,983500
13,917000	0,5	-0,981900
13,925333	0,5	-0,977850
13,933667	0,5	-0,975200
13,942000	0,5	-0,969700
13,950333	0,5	-0,960000
13,958667	0,5	-0,962150
13,967000	0,5	-0,949850
13,975333	0,5	-0,938700
13,983667	0,5	-0,935350
13,992000	0,5	-0,931200
14,000333	0,5	-0,933600
14,008667	0,5	-0,927900
14,017000	0,5	-0,921800
14,025333	0,5	-0,920250
14,033667	0,5	-0,912300
14,042000	0,5	-0,912950
14,050333	0,5	-0,898600
14,058667	0,5	-0,893900
14,067000	0,5	-0,881450
14,075333	0,5	-0,868800
14,083667	0,5	-0,858350
14,092000	0,5	-0,843250
14,100333	0,5	-0,826400
14,108667	0,5	-0,832100
14,117000	0,5	-0,813650
14,125333	0,5	-0,797750
14,133667	0,5	-0,788850
14,142000	0,5	-0,778050
14,150333	0,5	-0,776700
14,158667	0,5	-0,756600
14,167000	0,5	-0,745250
14,175333	0,5	-0,728350
14,183667	0,5	-0,717650
14,192000	0,5	-0,701150
14,200333	0,5	-0,684600
14,208667	0,5	-0,662950
14,217000	0,5	-0,647500
14,225333	0,5	-0,631700
14,233667	0,5	-0,616400
14,242000	0,5	-0,590450
14,250333	0,5	-0,577300
14,258667	0,5	-0,563250
14,267000	0,5	-0,537400
14,275333	0,5	-0,515500
14,283667	0,5	-0,504950
14,292000	0,5	-0,490400
14,300333	0,5	-0,482350
14,308667	0,5	-0,455900
14,317000	0,5	-0,436000
14,325333	0,5	-0,412650
14,333667	0,5	-0,393200
14,342000	0,5	-0,373400
14,350333	0,5	-0,354750
14,358667	0,5	-0,338250
14,367000	0,5	-0,316050
14,375333	0,5	-0,303900
14,383667	0,5	-0,290250
14,392000	0,5	-0,280700
14,400333	0,5	-0,274500
14,408667	0,5	-0,275350
14,417000	0,5	-0,258800
14,425333	0,5	-0,260150
14,433667	0,5	-0,261450
14,442000	0,5	-0,266100
14,450333	0,5	-0,267950
14,458667	0,5	-0,259700
14,467000	0,5	-0,260750
14,475333	0,5	-0,259350
14,483667	0,5	-0,262900
14,492000	0,5	-0,262650
14,500333	0,5	-0,264750
14,508667	0,5	-0,265850
14,517000	0,5	-0,271700
14,525333	0,5	-0,272650
14,533667	0,5	-0,276050
14,542000	0,5	-0,275000
14,550333	0,5	-0,287800
14,558667	0,5	-0,283600
14,567000	0,5	-0,283850
14,575333	0,5	-0,290200
14,583667	0,5	-0,298600
14,592000	0,5	-0,312050
14,600333	0,5	-0,318850
14,608667	0,5	-0,316100
14,617000	0,5	-0,318600
14,625333	0,5	-0,322650
14,633667	0,5	-0,326900
14,642000	0,5	-0,325350
14,650333	0,5	-0,328800
14,658667	0,5	-0,333650
14,667000	0,5	-0,332350
14,675333	0,5	-0,336950
14,683667	0,5	-0,330850
14,692000	0,5	-0,338500
14,700333	0,5	-0,348700
14,708667	0,5	-0,340600
14,717000	0,5	-0,343100
14,725333	0,5	-0,345850
14,733667	0,5	-0,353400
14,742000	0,5	-0,359750
14,750333	0,5	-0,357200
14,758667	0,5	-0,358650
14,767000	0,5	-0,349800
14,775333	0,5	-0,350500
14,783667	0,5	-0,349750
14,792000	0,5	-0,357050
14,800333	0,5	-0,355200
14,808667	0,5	-0,363900
14,817000	0,5	-0,369700
14,825333	0,5	-0,372300
14,833667	0,5	-0,376450
14,842000	0,5	-0,391150
14,850333	0,5	-0,390650
14,858667	0,5	-0,385650
14,867000	0,5	-0,390100
14,875333	0,5	-0,397300
14,883667	0,5	-0,412100
14,892000	0,5	-0,411600
14,900333	0,5	-0,413950
14,908667	0,5	-0,408850
14,917000	0,5	-0,416900
14,925333	0,5	-0,414150
14,933667	0,5	-0,415600
14,942000	0,5	-0,414500
14,950333	0,5	-0,416300
14,958667	0,5	-0,416050
14,967000	0,5	-0,410650
14,975333	0,5	-0,402250
14,983667	0,5	-0,388400
14,992000	0,5	-0,388150
15,000333	0,5	-0,377050
15,008667	0,5	-0,368350
15,017000	0,5	-0,377450
15,025333	0,5	-0,390550
15,033667	0,5	-0,413450
15,042000	0,5	-0,421650
15,050333	0,5	-0,424900
15,058667	0,5	-0,430300
15,067000	0,5	-0,426500
15,075333	0,5	-0,433950
15,083667	0,5	-0,429000
15,092000	0,5	-0,432050
15,100333	0,5	-0,428000
15,108667	0,5	-0,436300
15,117000	0,5	-0,441750
15,125333	0,5	-0,440800
15,133667	0,5	-0,448900
15,142000	0,5	-0,472700
15,150333	0,5	-0,467600
15,158667	0,5	-0,474950
15,167000	0,5	-0,483800
15,175333	0,5	-0,493800
15,183667	0,5	-0,513250
15,192000	0,5	-0,502500
15,200333	0,5	-0,510600
15,208667	0,5	-0,508500
15,217000	0,5	-0,515600
15,225333	0,5	-0,510250
15,233667	0,5	-0,509400
15,242000	0,5	-0,503950
15,250333	0,5	-0,505450
15,258667	0,5	-0,506600
15,267000	0,5	-0,510450
15,275333	0,5	-0,516600
15,283667	0,5	-0,530000
15,292000	0,5	-0,540850
15,300333	0,5	-0,541850
15,308667	0,5	-0,546550
15,317000	0,5	-0,564850
15,325333	0,5	-0,577000
15,333667	0,5	-0,590500
15,342000	0,5	-0,589250
15,350333	0,5	-0,591500
15,358667	0,5	-0,596850
15,367000	0,5	-0,601900
15,375333	0,5	-0,608350
15,383667	0,5	-0,610550
15,392000	0,5	-0,610250
15,400333	0,5	-0,608900
15,408667	0,5	-0,611100
15,417000	0,5	-0,598650
15,425333	0,5	-0,597150
15,433667	0,5	-0,603550
15,442000	0,5	-0,611450
15,450333	0,5	-0,611450
15,458667	0,5	-0,624250
15,467000	0,5	-0,635800
15,475333	0,5	-0,654850
15,483667	0,5	-0,665150
15,492000	0,5	-0,664500
15,500333	0,5	-0,668000
15,508667	0,5	-0,672650
15,517000	0,5	-0,676000
15,525333	0,5	-0,679800
15,533667	0,5	-0,682050
15,542000	0,5	-0,684250
15,550333	0,5	-0,688750
15,558667	0,5	-0,688450
15,567000	0,5	-0,693800
15,575333	0,5	-0,688000
15,583667	0,5	-0,703100
15,592000	0,5	-0,692000
15,600333	0,5	-0,694000
15,608667	0,5	-0,697100
15,617000	0,5	-0,711400
15,625333	0,5	-0,723150
15,633667	0,5	-0,724700
15,642000	0,5	-0,722750
15,650333	0,5	-0,727150
15,658667	0,5	-0,727450
15,667000	0,5	-0,734050
15,675333	0,5	-0,731400
15,683667	0,5	-0,735000
15,692000	0,5	-0,737450
15,700333	0,5	-0,739850
15,708667	0,5	-0,739150
15,717000	0,5	-0,732750
15,725333	0,5	-0,740700
15,733667	0,5	-0,749550
15,742000	0,5	-0,736800
15,750333	0,5	-0,741200
15,758667	0,5	-0,748200
15,767000	0,5	-0,758550
15,775333	0,5	-0,770850
15,783667	0,5	-0,767900
15,792000	0,5	-0,773750
15,800333	0,5	-0,769200
15,808667	0,5	-0,775650
15,817000	0,5	-0,772500
15,825333	0,5	-0,776250
15,833667	0,5	-0,775550
15,842000	0,5	-0,777550
15,850333	0,5	-0,783300
15,858667	0,5	-0,775900
15,867000	0,5	-0,779500
15,875333	0,5	-0,792800
15,883667	0,5	-0,790800
15,892000	0,5	-0,785500
15,900333	0,5	-0,794550
15,908667	0,5	-0,799650
15,917000	0,5	-0,814250
15,925333	0,5	-0,821350
15,933667	0,5	-0,828950
15,942000	0,5	-0,825650
15,950333	0,5	-0,833900
15,958667	0,5	-0,834300
15,967000	0,5	-0,842600
15,975333	0,5	-0,837450
15,983667	0,5	-0,842500
15,992000	0,5	-0,840650
16,000333	0,5	-0,848050
16,008667	0,5	-0,845800
16,017000	0,5	-0,848550
16,025333	0,5	-0,860750
16,033667	0,5	-0,848150
16,042000	0,5	-0,846900
16,050333	0,5	-0,849950
16,058667	0,5	-0,854850
16,067000	0,5	-0,869650
16,075333	0,5	-0,869100
16,083667	0,5	-0,863850
16,092000	0,5	-0,870400
16,100333	0,5	-0,870600
16,108667	0,5	-0,875800
16,117000	0,5	-0,878550
16,125333	0,5	-0,885300
16,133667	0,5	-0,885000
16,142000	0,5	-0,893500
16,150333	0,5	-0,894350
16,158667	0,5	-0,896100
16,167000	0,5	-0,900450
16,175333	0,5	-0,912550
16,183667	0,5	-0,904100
16,192000	0,5	-0,902650
16,200333	0,5	-0,912850
16,208667	0,5	-0,922950
16,217000	0,5	-0,932050
16,225333	0,5	-0,923700
16,233667	0,5	-0,931000
16,242000	0,5	-0,936950
16,250333	0,5	-0,941400
16,258667	0,5	-0,943200
16,267000	0,5	-0,949950
16,275333	0,5	-0,943250
16,283667	0,5	-0,951700
16,292000	0,5	-0,954350
16,300333	0,5	-0,956850
16,308667	0,5	-0,947150
16,317000	0,5	-0,967950
16,325333	0,5	-0,956700
16,333667	0,5	-0,954950
16,342000	0,5	-0,956800
16,350333	0,5	-0,969900
16,358667	0,5	-0,983250
16,367000	0,5	-0,985000
16,375333	0,5	-0,983300
16,383667	0,5	-0,991200
16,392000	0,5	-0,997300
16,400333	0,5	-0,998300
16,408667	0,5	-1,007600
16,417000	0,5	-1,008250
16,425333	0,5	-1,008750
16,433667	0,5	-1,010000
16,442000	0,5	-1,016450
16,450333	0,5	-1,010300
16,458667	0,5	-1,012950
16,467000	0,5	-1,025100
16,475333	0,5	-1,020750
16,483667	0,5	-1,022350
16,492000	0,5	-1,029100
16,500333	0,5	-1,036900
16,508667	0,5	-1,054200
16,517000	0,5	-1,051600
16,525333	0,5	-1,054400
16,533667	0,5	-1,056200
16,542000	0,5	-1,058500
16,550333	0,5	-1,058200
16,558667	0,5	-1,057050
16,567000	0,5	-1,057550
16,575333	0,5	-1,059200
16,583667	0,5	-1,062700
16,592000	0,5	-1,058300
16,600333	0,5	-1,062100
16,608667	0,5	-1,063400
16,617000	0,5	-1,074300
16,625333	0,5	-1,064100
16,633667	0,5	-1,069700
16,642000	0,5	-1,069500
16,650333	0,5	-1,086800
16,658667	0,5	-1,100200
16,667000	0,5	-1,100500
16,675333	0,5	-1,095450
16,683667	0,5	-1,101500
16,692000	0,5	-1,099200
16,700333	0,5	-1,098600
16,708667	0,5	-1,098450
16,717000	0,5	-1,097200
16,725333	0,5	-1,100050
16,733667	0,5	-1,102800
16,742000	0,5	-1,104300
16,750333	0,5	-1,099500
16,758667	0,5	-1,114800
16,767000	0,5	-1,109950
16,775333	0,5	-1,104850
16,783667	0,5	-1,105550
16,792000	0,5	-1,113900
16,800333	0,5	-1,129500
16,808667	0,5	-1,137550
16,817000	0,5	-1,130250
16,825333	0,5	-1,134200
16,833667	0,5	-1,130450
16,842000	0,5	-1,135750
16,850333	0,5	-1,133550
16,858667	0,5	-1,138050
16,867000	0,5	-1,134650
16,875333	0,5	-1,139350
16,883667	0,5	-1,143700
16,892000	0,5	-1,139300
16,900333	0,5	-1,144550
16,908667	0,5	-1,163850
16,917000	0,5	-1,153600
16,925333	0,5	-1,149100
16,933667	0,5	-1,160500
16,942000	0,5	-1,160550
16,950333	0,5	-1,178150
16,958667	0,5	-1,167800
16,967000	0,5	-1,171300
16,975333	0,5	-1,171350
16,983667	0,5	-1,177500
16,992000	0,5	-1,173200
17,000333	0,5	-1,174300
17,008667	0,5	-1,173900
17,017000	0,5	-1,177000
17,025333	0,5	-1,181350
17,033667	0,5	-1,185250
17,042000	0,5	-1,176650
17,050333	0,5	-1,184650
17,058667	0,5	-1,188500
17,067000	0,5	-1,174550
17,075333	0,5	-1,166650
17,083667	0,5	-1,168500
17,092000	0,5	-1,174150
17,100333	0,5	-1,178500
17,108667	0,5	-1,173800
17,117000	0,5	-1,169850
17,125333	0,5	-1,176850
17,133667	0,5	-1,177050
17,142000	0,5	-1,181100
17,150333	0,5	-1,176750
17,158667	0,5	-1,175250
17,167000	0,5	-1,173650
17,175333	0,5	-1,175550
17,183667	0,5	-1,176050
17,192000	0,5	-1,174600
17,200333	0,5	-1,190100
17,208667	0,5	-1,191900
17,217000	0,5	-1,201700
17,225333	0,5	-1,206050
17,233667	0,5	-1,219000
17,242000	0,5	-1,236950
17,250333	0,5	-1,242400
17,258667	0,5	-1,235100
17,267000	0,5	-1,242400
17,275333	0,5	-1,240200
17,283667	0,5	-1,241500
17,292000	0,5	-1,240600
17,300333	0,5	-1,239950
17,308667	0,5	-1,234050
17,317000	0,5	-1,235750
17,325333	0,5	-1,229900
17,333667	0,5	-1,231350
17,342000	0,5	-1,221850
17,350333	0,5	-1,241100
17,358667	0,5	-1,224200
17,367000	0,5	-1,222700
17,375333	0,5	-1,222300
17,383667	0,5	-1,232550
17,392000	0,5	-1,245850
17,400333	0,5	-1,238850
17,408667	0,5	-1,236550
17,417000	0,5	-1,236050
17,425333	0,5	-1,236950
17,433667	0,5	-1,231400
17,442000	0,5	-1,228100
17,450333	0,5	-1,224850
17,458667	0,5	-1,227700
17,467000	0,5	-1,224250
17,475333	0,5	-1,219000
17,483667	0,5	-1,206550
17,492000	0,5	-1,209700
17,500333	0,5	-1,213900
17,508667	0,5	-1,204050
17,517000	0,5	-1,205000
17,525333	0,5	-1,206850
17,533667	0,5	-1,215300
17,542000	0,5	-1,222400
17,550333	0,5	-1,219600
17,558667	0,5	-1,211600
17,567000	0,5	-1,206600
17,575333	0,5	-1,207100
17,583667	0,5	-1,202600
17,592000	0,5	-1,200100
17,600333	0,5	-1,196050
17,608667	0,5	-1,189050
17,617000	0,5	-1,190950
17,625333	0,5	-1,181300
17,633667	0,5	-1,182050
17,642000	0,5	-1,183400
17,650333	0,5	-1,180550
17,658667	0,5	-1,165350
17,667000	0,5	-1,170400
17,675333	0,5	-1,169000
17,683667	0,5	-1,181150
17,692000	0,5	-1,180300
17,700333	0,5	-1,177000
17,708667	0,5	-1,164750
17,717000	0,5	-1,162400
17,725333	0,5	-1,152750
17,733667	0,5	-1,154050
17,742000	0,5	-1,149550
17,750333	0,5	-1,148200
17,758667	0,5	-1,150550
17,767000	0,5	-1,146250
17,775333	0,5	-1,143550
17,783667	0,5	-1,144100
17,792000	0,5	-1,160600
17,800333	0,5	-1,146600
17,808667	0,5	-1,142550
17,817000	0,5	-1,146100
17,825333	0,5	-1,159100
17,833667	0,5	-1,171000
17,842000	0,5	-1,171700
17,850333	0,5	-1,168200
17,858667	0,5	-1,173750
17,867000	0,5	-1,170950
17,875333	0,5	-1,173850
17,883667	0,5	-1,169750
17,892000	0,5	-1,171450
17,900333	0,5	-1,170150
17,908667	0,5	-1,175550
17,917000	0,5	-1,173050
17,925333	0,5	-1,161800
17,933667	0,5	-1,170800
17,942000	0,5	-1,180450
17,950333	0,5	-1,175300
17,958667	0,5	-1,173000
17,967000	0,5	-1,181150
17,975333	0,5	-1,196200
17,983667	0,5	-1,202400
17,992000	0,5	-1,199400
18,000333	0,5	-1,204200
18,008667	0,5	-1,202850
18,017000	0,5	-1,213650
18,025333	0,5	-1,211450
18,033667	0,5	-1,213900
18,042000	0,5	-1,211200
18,050333	0,5	-1,215300
18,058667	0,5	-1,221050
18,067000	0,5	-1,218100
18,075333	0,5	-1,218750
18,083667	0,5	-1,244100
18,092000	0,5	-1,228900
18,100333	0,5	-1,225000
18,108667	0,5	-1,234150
18,117000	0,5	-1,238450
18,125333	0,5	-1,263100
18,133667	0,5	-1,259800
18,142000	0,5	-1,263150
18,150333	0,5	-1,263750
18,158667	0,5	-1,269800
18,167000	0,5	-1,268550
18,175333	0,5	-1,277050
18,183667	0,5	-1,277250
18,192000	0,5	-1,282750
18,200333	0,5	-1,285150
18,208667	0,5	-1,289050
18,217000	0,5	-1,292500
18,225333	0,5	-1,286350
18,233667	0,5	-1,308550
18,242000	0,5	-1,298550
18,250333	0,5	-1,296350
18,258667	0,5	-1,302900
18,267000	0,5	-1,319550
18,275333	0,5	-1,342850
18,283667	0,5	-1,336300
18,292000	0,5	-1,327950
18,300333	0,5	-1,343300
18,308667	0,5	-1,343100
18,317000	0,5	-1,352550
18,325333	0,5	-1,349900
18,333667	0,5	-1,357700
18,342000	0,5	-1,356650
18,350333	0,5	-1,362950
18,358667	0,5	-1,364150
18,367000	0,5	-1,361050
18,375333	0,5	-1,366600
18,383667	0,5	-1,384200
18,392000	0,5	-1,372500
18,400333	0,5	-1,379400
18,408667	0,5	-1,390150
18,417000	0,5	-1,407200
18,425333	0,5	-1,427050
18,433667	0,5	-1,419000
18,442000	0,5	-1,426800
18,450333	0,5	-1,424950
18,458667	0,5	-1,435100
18,467000	0,5	-1,431500
18,475333	0,5	-1,438900
18,483667	0,5	-1,442750
18,492000	0,5	-1,449850
18,500333	0,5	-1,454300
18,508667	0,5	-1,449950
18,517000	0,5	-1,450150
18,525333	0,5	-1,466200
18,533667	0,5	-1,467550
18,542000	0,5	-1,469550
18,550333	0,5	-1,478850
18,558667	0,5	-1,494550
18,567000	0,5	-1,509650
18,575333	0,5	-1,518100
18,583667	0,5	-1,518700
18,592000	0,5	-1,519350
18,600333	0,5	-1,524250
18,608667	0,5	-1,523350
18,617000	0,5	-1,526000
18,625333	0,5	-1,527150
18,633667	0,5	-1,531100
18,642000	0,5	-1,527550
18,650333	0,5	-1,531500
18,658667	0,5	-1,523550
18,667000	0,5	-1,528250
18,675333	0,5	-1,533750
18,683667	0,5	-1,528500
18,692000	0,5	-1,523150
18,700333	0,5	-1,529650
18,708667	0,5	-1,540000
18,717000	0,5	-1,555900
18,725333	0,5	-1,564150
18,733667	0,5	-1,563600
18,742000	0,5	-1,569400
18,750333	0,5	-1,576800
18,758667	0,5	-1,577900
18,767000	0,5	-1,579550
18,775333	0,5	-1,584600
18,783667	0,5	-1,587200
18,792000	0,5	-1,595150
18,800333	0,5	-1,590550
18,808667	0,5	-1,588250
18,817000	0,5	-1,600400
18,825333	0,5	-1,607700
18,833667	0,5	-1,604350
18,842000	0,5	-1,610850
18,850333	0,5	-1,621300
18,858667	0,5	-1,645700
18,867000	0,5	-1,654900
18,875333	0,5	-1,652900
18,883667	0,5	-1,656200
18,892000	0,5	-1,663050
18,900333	0,5	-1,666550
18,908667	0,5	-1,672550
18,917000	0,5	-1,675700
18,925333	0,5	-1,680800
18,933667	0,5	-1,685500
18,942000	0,5	-1,684950
18,950333	0,5	-1,690700
18,958667	0,5	-1,689600
18,967000	0,5	-1,713250
18,975333	0,5	-1,704750
18,983667	0,5	-1,702050
18,992000	0,5	-1,707550
19,000333	0,5	-1,716600
19,008667	0,5	-1,737200
19,017000	0,5	-1,732550
19,025333	0,5	-1,731500
19,033667	0,5	-1,736700
19,042000	0,5	-1,734700
19,050333	0,5	-1,744050
19,058667	0,5	-1,744050
19,067000	0,5	-1,753800
19,075333	0,5	-1,758500
19,083667	0,5	-1,764300
19,092000	0,5	-1,775150
19,100333	0,5	-1,764900
19,108667	0,5	-1,769400
19,117000	0,5	-1,786500
19,125333	0,5	-1,773500
19,133667	0,5	-1,774900
19,142000	0,5	-1,781800
19,150333	0,5	-1,791800
19,158667	0,5	-1,811250
19,167000	0,5	-1,806700
19,175333	0,5	-1,814350
19,183667	0,5	-1,818650
19,192000	0,5	-1,828000
19,200333	0,5	-1,830850
19,208667	0,5	-1,835300
19,217000	0,5	-1,839250
19,225333	0,5	-1,838500
19,233667	0,5	-1,846800
19,242000	0,5	-1,841600
19,250333	0,5	-1,839650
19,258667	0,5	-1,850700
19,267000	0,5	-1,861950
19,275333	0,5	-1,853350
19,283667	0,5	-1,859050
19,292000	0,5	-1,870850
19,300333	0,5	-1,893350
19,308667	0,5	-1,898450
19,317000	0,5	-1,899250
19,325333	0,5	-1,896450
19,333667	0,5	-1,902700
19,342000	0,5	-1,900700
19,350333	0,5	-1,905950
19,358667	0,5	-1,897950
19,367000	0,5	-1,892200
19,375333	0,5	-1,882200
19,383667	0,5	-1,874900
19,392000	0,5	-1,872150
19,400333	0,5	-1,869800
19,408667	0,5	-1,893850
19,417000	0,5	-1,902900
19,425333	0,5	-1,920050
19,433667	0,5	-1,936800
19,442000	0,5	-1,961800
19,450333	0,5	-1,986150
19,458667	0,5	-2,001400
19,467000	0,5	-2,001450
19,475333	0,5	-2,011850
19,483667	0,5	-2,012000
19,492000	0,5	-2,020150
19,500333	0,5	-2,016050
19,508667	0,5	-2,025800
19,517000	0,5	-2,028100
19,525333	0,5	-2,032550
19,533667	0,5	-2,033450
19,542000	0,5	-2,026950
19,550333	0,5	-2,029550
19,558667	0,5	-2,039800
19,567000	0,5	-2,034350
19,575333	0,5	-2,035300
19,583667	0,5	-2,037100
19,592000	0,5	-2,058250
19,600333	0,5	-2,072250
19,608667	0,5	-2,073550
19,617000	0,5	-2,078750
19,625333	0,5	-2,079900
19,633667	0,5	-2,086900
19,642000	0,5	-2,084800
19,650333	0,5	-2,095400
19,658667	0,5	-2,090450
19,667000	0,5	-2,097200
19,675333	0,5	-2,098350
19,683667	0,5	-2,087850
19,692000	0,5	-2,080750
19,700333	0,5	-2,088700
19,708667	0,5	-2,079000
19,717000	0,5	-2,058400
19,725333	0,5	-2,054450
19,733667	0,5	-2,047500
19,742000	0,5	-2,071000
19,750333	0,5	-2,078350
19,758667	0,5	-2,091350
19,767000	0,5	-2,092650
19,775333	0,5	-2,102400
19,783667	0,5	-2,112550
19,792000	0,5	-2,122300
19,800333	0,5	-2,121450
19,808667	0,5	-2,129350
19,817000	0,5	-2,126700
19,825333	0,5	-2,136550
19,833667	0,5	-2,129050
19,842000	0,5	-2,130950
19,850333	0,5	-2,149500
19,858667	0,5	-2,146100
19,867000	0,5	-2,136350
19,875333	0,5	-2,146850
19,883667	0,5	-2,161750
19,892000	0,5	-2,175800
19,900333	0,5	-2,178850
19,908667	0,5	-2,176950
19,917000	0,5	-2,180100
19,925333	0,5	-2,180150
19,933667	0,5	-2,182000
19,942000	0,5	-2,183250
19,950333	0,5	-2,191700
19,958667	0,5	-2,189150
19,967000	0,5	-2,198450
19,975333	0,5	-2,196650
19,983667	0,5	-2,194500
19,992000	0,5	-2,202050
20,000333	0,5	-2,216400
20,008667	0,5	-2,207650
20,017000	0,5	-2,216300
20,025333	0,5	-2,227650
20,033667	0,5	-2,242450
20,042000	0,5	-2,251950
20,050333	0,5	-2,243950
20,058667	0,5	-2,247700
20,067000	0,5	-2,255050
20,075333	0,5	-2,259100
20,083667	0,5	-2,257150
20,092000	0,5	-2,264150
20,100333	0,5	-2,259300
20,108667	0,5	-2,262150
20,117000	0,5	-2,260900
20,125333	0,5	-2,257700
20,133667	0,5	-2,245300
20,142000	0,5	-2,261300
20,150333	0,5	-2,256700
20,158667	0,5	-2,253050
20,167000	0,5	-2,249800
20,175333	0,5	-2,258450
20,183667	0,5	-2,275250
20,192000	0,5	-2,273050
20,200333	0,5	-2,271300
20,208667	0,5	-2,269300
20,217000	0,5	-2,268700
20,225333	0,5	-2,270650
20,233667	0,5	-2,272450
20,242000	0,5	-2,269850
20,250333	0,5	-2,272750
20,258667	0,5	-2,270500
20,267000	0,5	-2,271850
20,275333	0,5	-2,261450
20,283667	0,5	-2,259400
20,292000	0,5	-2,272100
20,300333	0,5	-2,262300
20,308667	0,5	-2,265900
20,317000	0,5	-2,271250
20,325333	0,5	-2,282400
20,333667	0,5	-2,297950
20,342000	0,5	-2,289850
20,350333	0,5	-2,283700
20,358667	0,5	-2,286700
20,367000	0,5	-2,286550
20,375333	0,5	-2,281850
20,383667	0,5	-2,280600
20,392000	0,5	-2,279500
20,400333	0,5	-2,273100
20,408667	0,5	-2,271050
20,417000	0,5	-2,264050
20,425333	0,5	-2,250300
20,433667	0,5	-2,248800
20,442000	0,5	-2,252550
20,450333	0,5	-2,241150
20,458667	0,5	-2,242300
20,467000	0,5	-2,244300
20,475333	0,5	-2,264250
20,483667	0,5	-2,271150
20,492000	0,5	-2,266850
20,500333	0,5	-2,261250
20,508667	0,5	-2,263200
20,517000	0,5	-2,259700
20,525333	0,5	-2,258100
20,533667	0,5	-2,257500
20,542000	0,5	-2,257550
20,550333	0,5	-2,261800
20,558667	0,5	-2,259050
20,567000	0,5	-2,239400
20,575333	0,5	-2,238950
20,583667	0,5	-2,248400
20,592000	0,5	-2,246250
20,600333	0,5	-2,249700
20,608667	0,5	-2,258700
20,617000	0,5	-2,275800
20,625333	0,5	-2,283700
20,633667	0,5	-2,291550
20,642000	0,5	-2,288300
20,650333	0,5	-2,291400
20,658667	0,5	-2,290150
20,667000	0,5	-2,292600
20,675333	0,5	-2,293850
20,683667	0,5	-2,291850
20,692000	0,5	-2,291650
20,700333	0,5	-2,290150
20,708667	0,5	-2,291100
20,717000	0,5	-2,273700
20,725333	0,5	-2,266900
20,733667	0,5	-2,275300
20,742000	0,5	-2,278800
20,750333	0,5	-2,283150
20,758667	0,5	-2,292450
20,767000	0,5	-2,306100
20,775333	0,5	-2,315700
20,783667	0,5	-2,312900
20,792000	0,5	-2,314100
20,800333	0,5	-2,312100
20,808667	0,5	-2,312050
20,817000	0,5	-2,307650
20,825333	0,5	-2,306650
20,833667	0,5	-2,301950
20,842000	0,5	-2,301350
20,850333	0,5	-2,300350
20,858667	0,5	-2,281600
20,867000	0,5	-2,262000
20,875333	0,5	-2,264800
20,883667	0,5	-2,266100
20,892000	0,5	-2,262950
20,900333	0,5	-2,271600
20,908667	0,5	-2,275000
20,917000	0,5	-2,298800
20,925333	0,5	-2,285950
20,933667	0,5	-2,286050
20,942000	0,5	-2,277950
20,950333	0,5	-2,277450
20,958667	0,5	-2,269600
20,967000	0,5	-2,268500
20,975333	0,5	-2,262900
20,983667	0,5	-2,256900
20,992000	0,5	-2,258600
21,000333	0,5	-2,246850
21,008667	0,5	-2,224750
21,017000	0,5	-2,205350
21,025333	0,5	-2,215900
21,033667	0,5	-2,215650
21,042000	0,5	-2,220100
21,050333	0,5	-2,224450
21,058667	0,5	-2,239200
21,067000	0,5	-2,241450
21,075333	0,5	-2,235000
21,083667	0,5	-2,228000
21,092000	0,5	-2,233150
21,100333	0,5	-2,227300
21,108667	0,5	-2,229550
21,117000	0,5	-2,222550
21,125333	0,5	-2,220200
21,133667	0,5	-2,213700
21,142000	0,5	-2,210150
21,150333	0,5	-2,197700
21,158667	0,5	-2,171000
21,167000	0,5	-2,157600
21,175333	0,5	-2,164700
21,183667	0,5	-2,161700
21,192000	0,5	-2,164200
21,200333	0,5	-2,168500
21,208667	0,5	-2,178150
21,217000	0,5	-2,174100
21,225333	0,5	-2,164700
21,233667	0,5	-2,165400
21,242000	0,5	-2,149800
21,250333	0,5	-2,151200
21,258667	0,5	-2,139800
21,267000	0,5	-2,134200
21,275333	0,5	-2,124000
21,283667	0,5	-2,116750
21,292000	0,5	-2,111250
21,300333	0,5	-2,080150
21,308667	0,5	-2,055650
21,317000	0,5	-2,057200
21,325333	0,5	-2,054750
21,333667	0,5	-2,054350
21,342000	0,5	-2,058450
21,350333	0,5	-2,063850
21,358667	0,5	-2,075200
21,367000	0,5	-2,059700
21,375333	0,5	-2,053200
21,383667	0,5	-2,037550
21,392000	0,5	-2,041800
21,400333	0,5	-2,030400
21,408667	0,5	-2,020450
21,417000	0,5	-2,010250
21,425333	0,5	-2,002800
21,433667	0,5	-1,995850
21,442000	0,5	-1,979150
21,450333	0,5	-1,952200
21,458667	0,5	-1,935850
21,467000	0,5	-1,939450
21,475333	0,5	-1,928500
21,483667	0,5	-1,933550
21,492000	0,5	-1,927900
21,500333	0,5	-1,932550
21,508667	0,5	-1,929550
21,517000	0,5	-1,913100
21,525333	0,5	-1,885550
21,533667	0,5	-1,872600
21,542000	0,5	-1,837750
21,550333	0,5	-1,814450
21,558667	0,5	-1,771050
21,567000	0,5	-1,732150
21,575333	0,5	-1,705150
21,583667	0,5	-1,694250
21,592000	0,5	-1,675800
21,600333	0,5	-1,674600
21,608667	0,5	-1,684700
21,617000	0,5	-1,694850
21,625333	0,5	-1,700700
21,633667	0,5	-1,708100
21,642000	0,5	-1,715150
21,650333	0,5	-1,713400
21,658667	0,5	-1,704850
21,667000	0,5	-1,689800
21,675333	0,5	-1,680950
21,683667	0,5	-1,667250
21,692000	0,5	-1,654500
21,700333	0,5	-1,638950
21,708667	0,5	-1,625250
21,717000	0,5	-1,608250
21,725333	0,5	-1,592900
21,733667	0,5	-1,568400
21,742000	0,5	-1,523850
21,750333	0,5	-1,498800
21,758667	0,5	-1,487650
21,767000	0,5	-1,471600
21,775333	0,5	-1,458150
21,783667	0,5	-1,448800
21,792000	0,5	-1,443550
21,800333	0,5	-1,429900
21,808667	0,5	-1,408200
21,817000	0,5	-1,393950
21,825333	0,5	-1,367800
21,833667	0,5	-1,356250
21,842000	0,5	-1,336300
21,850333	0,5	-1,324350
21,858667	0,5	-1,307950
21,867000	0,5	-1,289850
21,875333	0,5	-1,280400
21,883667	0,5	-1,244400
21,892000	0,5	-1,217400
21,900333	0,5	-1,210950
21,908667	0,5	-1,187500
21,917000	0,5	-1,164050
21,925333	0,5	-1,154850
21,933667	0,5	-1,137450
21,942000	0,5	-1,136300
21,950333	0,5	-1,098850
21,958667	0,5	-1,080300
21,967000	0,5	-1,051050
21,975333	0,5	-1,031300
21,983667	0,5	-0,994900
21,992000	0,5	-0,972050
22,000333	0,5	-0,945400
22,008667	0,5	-0,916350
22,017000	0,5	-0,891250
22,025333	0,5	-0,866450
22,033667	0,5	-0,824150
22,042000	0,5	-0,800850
22,050333	0,5	-0,780400
22,058667	0,5	-0,740500
22,067000	0,5	-0,715250
22,075333	0,5	-0,685450
22,083667	0,5	-0,666700
22,092000	0,5	-0,624600
22,100333	0,5	-0,585650
22,108667	0,5	-0,535900
22,117000	0,5	-0,495650
22,125333	0,5	-0,446850
22,133667	0,5	-0,410900
22,142000	0,5	-0,367700
22,150333	0,5	-0,325300
22,158667	0,5	-0,287950
22,167000	0,5	-0,252350
22,175333	0,5	-0,216150
22,183667	0,5	-0,170650
22,192000	0,5	-0,145500
22,200333	0,5	-0,087250
22,208667	0,5	-0,048000
22,217000	0,5	-0,001950
22,225333	0,5	0,032700
22,233667	0,5	0,061600
22,242000	0,5	0,110900
22,250333	0,5	0,161750
22,258667	0,5	0,205150
22,267000	0,5	0,256050
22,275333	0,5	0,300600
22,283667	0,5	0,351300
22,292000	0,5	0,394750
22,300333	0,5	0,442350
22,308667	0,5	0,487800
22,317000	0,5	0,535600
22,325333	0,5	0,577650
22,333667	0,5	0,627200
22,342000	0,5	0,680800
22,350333	0,5	0,742350
22,358667	0,5	0,791400
22,367000	0,5	0,833850
22,375333	0,5	0,879600
22,383667	0,5	0,923400
22,392000	0,5	0,988200
22,400333	0,5	1,042900
22,408667	0,5	1,107450
22,417000	0,5	1,163700
22,425333	0,5	1,229550
22,433667	0,5	1,285150
22,442000	0,5	1,343150
22,450333	0,5	1,403100
22,458667	0,5	1,459000
22,467000	0,5	1,518500
22,475333	0,5	1,568450
22,483667	0,5	1,633100
22,492000	0,5	1,710250
22,500333	0,5	1,787000
22,508667	0,5	1,839000
22,517000	0,5	1,897600
22,525333	0,5	1,948450
22,533667	0,5	2,010350
22,542000	0,5	2,068900
22,550333	0,5	2,127700
22,558667	0,5	2,173450
22,567000	0,5	2,223750
22,575333	0,5	2,261300
22,583667	0,5	2,300550
22,592000	0,5	2,325850
22,600333	0,5	2,345900
22,608667	0,5	2,372200
22,617000	0,5	2,351050
22,625333	0,5	2,363600
22,633667	0,5	2,374350
22,642000	0,5	2,384800
22,650333	0,5	2,374100
22,658667	0,5	2,350300
22,667000	0,5	2,308300
22,675333	0,5	2,271200
22,683667	0,5	2,229850
22,692000	0,5	2,197800
22,700333	0,5	2,146250
22,708667	0,5	2,095850
22,717000	0,5	2,035450
22,725333	0,5	1,979600
22,733667	0,5	1,910500
22,742000	0,5	1,844600
22,750333	0,5	1,764600
22,758667	0,5	1,671350
22,767000	0,5	1,558800
22,775333	0,5	1,469950
22,783667	0,5	1,397800
22,792000	0,5	1,296000
22,800333	0,5	1,179050
22,808667	0,5	1,053450
22,817000	0,5	0,922750
22,825333	0,5	0,788000
22,833667	0,5	0,658600
22,842000	0,5	0,523900
22,850333	0,5	0,388000
22,858667	0,5	0,259600
22,867000	0,5	0,131800
22,875333	0,5	-0,005300
22,883667	0,5	-0,137450
22,892000	0,5	-0,271450
22,900333	0,5	-0,400100
22,908667	0,5	-0,530100
22,917000	0,5	-0,670300
22,925333	0,5	-0,802400
22,933667	0,5	-0,939500
22,942000	0,5	-1,085050
22,950333	0,5	-1,201500
22,958667	0,5	-1,323100
22,967000	0,5	-1,428250
22,975333	0,5	-1,553150
22,983667	0,5	-1,649050
22,992000	0,5	-1,755800
23,000333	0,5	-1,843600
23,008667	0,5	-1,936800
23,017000	0,5	-2,018550
23,025333	0,5	-2,106500
23,033667	0,5	-2,186200
23,042000	0,5	-2,262350
23,050333	0,5	-2,333450
23,058667	0,5	-2,399250
23,067000	0,5	-2,472300
23,075333	0,5	-2,558400
23,083667	0,5	-2,650750
23,092000	0,5	-2,711600
23,100333	0,5	-2,764550
23,108667	0,5	-2,803900
23,117000	0,5	-2,847300
23,125333	0,5	-2,886300
23,133667	0,5	-2,922400
23,142000	0,5	-2,939600
23,150333	0,5	-2,964400
23,158667	0,5	-2,979200
23,167000	0,5	-3,001100
23,175333	0,5	-3,015600
23,183667	0,5	-3,035700
23,192000	0,5	-3,050000
23,200333	0,5	-3,044300
23,208667	0,5	-3,073450
23,217000	0,5	-3,071950
23,225333	0,5	-3,105250
23,233667	0,5	-3,138100
23,242000	0,5	-3,144950
23,250333	0,5	-3,145150
23,258667	0,5	-3,136500
23,267000	0,5	-3,125800
23,275333	0,5	-3,122450
23,283667	0,5	-3,104300
23,292000	0,5	-3,085450
23,300333	0,5	-3,064900
23,308667	0,5	-3,046300
23,317000	0,5	-3,019050
23,325333	0,5	-3,003450
23,333667	0,5	-2,976450
23,342000	0,5	-2,961100
23,350333	0,5	-2,965900
23,358667	0,5	-2,927150
23,367000	0,5	-2,897600
23,375333	0,5	-2,895350
23,383667	0,5	-2,896500
23,392000	0,5	-2,887250
23,400333	0,5	-2,866750
23,408667	0,5	-2,839500
23,417000	0,5	-2,822500
23,425333	0,5	-2,806050
23,433667	0,5	-2,779750
23,442000	0,5	-2,751750
23,450333	0,5	-2,722700
23,458667	0,5	-2,690650
23,467000	0,5	-2,663500
23,475333	0,5	-2,633800
23,483667	0,5	-2,607850
23,492000	0,5	-2,578800
23,500333	0,5	-2,615050
23,508667	0,5	-2,575350
23,517000	0,5	-2,508150
23,525333	0,5	-2,486650
23,533667	0,5	-2,481400
23,542000	0,5	-2,468250
23,550333	0,5	-2,454500
23,558667	0,5	-2,438500
23,567000	0,5	-2,421550
23,575333	0,5	-2,406400
23,583667	0,5	-2,393600
23,592000	0,5	-2,376100
23,600333	0,5	-2,360400
23,608667	0,5	-2,343150
23,617000	0,5	-2,326450
23,625333	0,5	-2,313350
23,633667	0,5	-2,295000
23,642000	0,5	-2,321050
23,650333	0,5	-2,358350
23,658667	0,5	-2,308000
23,667000	0,5	-2,249400
23,675333	0,5	-2,223800
23,683667	0,5	-2,216650
23,692000	0,5	-2,205750
23,700333	0,5	-2,200800
23,708667	0,5	-2,186400
23,717000	0,5	-2,171550
23,725333	0,5	-2,159800
23,733667	0,5	-2,146100
23,742000	0,5	-2,132900
23,750333	0,5	-2,116550
23,758667	0,5	-2,106650
23,767000	0,5	-2,095700
23,775333	0,5	-2,088450
23,783667	0,5	-2,081850
23,792000	0,5	-2,198500
23,800333	0,5	-2,159900
23,808667	0,5	-2,139550
23,817000	0,5	-2,083200
23,825333	0,5	-2,066700
23,833667	0,5	-2,061600
23,842000	0,5	-2,057250
23,850333	0,5	-2,058700
23,858667	0,5	-2,044700
23,867000	0,5	-2,028200
23,875333	0,5	-2,020250
23,883667	0,5	-2,004700
23,892000	0,5	-1,995450
23,900333	0,5	-1,975950
23,908667	0,5	-1,960050
23,917000	0,5	-1,947450
23,925333	0,5	-1,932800
23,933667	0,5	-1,954000
23,942000	0,5	-2,030100
23,950333	0,5	-1,997950
23,958667	0,5	-1,965400
23,967000	0,5	-1,908750
23,975333	0,5	-1,885400
23,983667	0,5	-1,879600
23,992000	0,5	-1,875450
24,000333	0,5	-1,886500
24,008667	0,5	-1,861650
24,017000	0,5	-1,856400
24,025333	0,5	-1,841700
24,033667	0,5	-1,835400
24,042000	0,5	-1,818250
24,050333	0,5	-1,810350
24,058667	0,5	-1,791400
24,067000	0,5	-1,778150
24,075333	0,5	-1,769100
24,083667	0,5	-1,846200
24,092000	0,5	-1,846350
24,100333	0,5	-1,820250
24,108667	0,5	-1,761750
24,117000	0,5	-1,723550
24,125333	0,5	-1,704400
24,133667	0,5	-1,693550
24,142000	0,5	-1,694600
24,150333	0,5	-1,676250
24,158667	0,5	-1,655500
24,167000	0,5	-1,632800
24,175333	0,5	-1,620650
24,183667	0,5	-1,596200
24,192000	0,5	-1,586400
24,200333	0,5	-1,565750
24,208667	0,5	-1,549750
24,217000	0,5	-1,530600
24,225333	0,5	-1,518150
24,233667	0,5	-1,614800
24,242000	0,5	-1,582750
24,250333	0,5	-1,555350
24,258667	0,5	-1,511050
24,267000	0,5	-1,480650
24,275333	0,5	-1,467100
24,283667	0,5	-1,460900
24,292000	0,5	-1,459750
24,300333	0,5	-1,452050
24,308667	0,5	-1,430650
24,317000	0,5	-1,419250
24,325333	0,5	-1,398200
24,333667	0,5	-1,384250
24,342000	0,5	-1,361400
24,350333	0,5	-1,342100
24,358667	0,5	-1,321150
24,367000	0,5	-1,308550
24,375333	0,5	-1,303850
24,383667	0,5	-1,357100
24,392000	0,5	-1,318700
24,400333	0,5	-1,296400
24,408667	0,5	-1,251600
24,417000	0,5	-1,231250
24,425333	0,5	-1,214650
24,433667	0,5	-1,214350
24,442000	0,5	-1,213150
24,450333	0,5	-1,199400
24,458667	0,5	-1,185600
24,467000	0,5	-1,167750
24,475333	0,5	-1,156300
24,483667	0,5	-1,142900
24,492000	0,5	-1,129000
24,500333	0,5	-1,113100
24,508667	0,5	-1,102450
24,517000	0,5	-1,087550
24,525333	0,5	-1,116350
24,533667	0,5	-1,114850
24,542000	0,5	-1,104200
24,550333	0,5	-1,068050
24,558667	0,5	-1,041250
24,567000	0,5	-1,024300
24,575333	0,5	-1,013200
24,583667	0,5	-1,010750
24,592000	0,5	-1,001100
24,600333	0,5	-0,985350
24,608667	0,5	-0,972850
24,617000	0,5	-0,956850
24,625333	0,5	-0,943000
24,633667	0,5	-0,927550
24,642000	0,5	-0,918850
24,650333	0,5	-0,904300
24,658667	0,5	-0,889450
24,667000	0,5	-0,880850
24,675333	0,5	-0,907150
24,683667	0,5	-0,903650
24,692000	0,5	-0,888000
24,700333	0,5	-0,862100
24,708667	0,5	-0,843550
24,717000	0,5	-0,834950
24,725333	0,5	-0,828550
24,733667	0,5	-0,836250
24,742000	0,5	-0,823500
24,750333	0,5	-0,815250
24,758667	0,5	-0,802050
24,767000	0,5	-0,792350
24,775333	0,5	-0,780650
24,783667	0,5	-0,769300
24,792000	0,5	-0,756300
24,800333	0,5	-0,745150
24,808667	0,5	-0,737450
24,817000	0,5	-0,729850
24,825333	0,5	-0,745250
24,833667	0,5	-0,729700
24,842000	0,5	-0,717350
24,850333	0,5	-0,698650
24,858667	0,5	-0,688050
24,867000	0,5	-0,680300
24,875333	0,5	-0,675550
24,883667	0,5	-0,676150
24,892000	0,5	-0,666200
24,900333	0,5	-0,656950
24,908667	0,5	-0,653400
24,917000	0,5	-0,646200
24,925333	0,5	-0,641400
24,933667	0,5	-0,634650
24,942000	0,5	-0,627700
24,950333	0,5	-0,620650
24,958667	0,5	-0,613850
24,967000	0,5	-0,621200
24,975333	0,5	-0,617000
24,983667	0,5	-0,608150
24,992000	0,5	-0,598250
25,000333	0,5	-0,585300
25,008667	0,5	-0,578450
25,017000	0,5	-0,571750
25,025333	0,5	-0,568900
25,033667	0,5	-0,568100
25,042000	0,5	-0,557550
25,050333	0,5	-0,551900
25,058667	0,5	-0,546200
25,067000	0,5	-0,539800
25,075333	0,5	-0,533350
25,083667	0,5	-0,530350
25,092000	0,5	-0,522650
25,100333	0,5	-0,519350
25,108667	0,5	-0,513450
25,117000	0,5	-0,520400
25,125333	0,5	-0,512450
25,133667	0,5	-0,513050
25,142000	0,5	-0,506750
25,150333	0,5	-0,499400
25,158667	0,5	-0,497900
25,167000	0,5	-0,495750
25,175333	0,5	-0,497200
25,183667	0,5	-0,494250
25,192000	0,5	-0,486950
25,200333	0,5	-0,483350
25,208667	0,5	-0,482150
25,217000	0,5	-0,476650
25,225333	0,5	-0,472700
25,233667	0,5	-0,467200
25,242000	0,5	-0,461450
25,250333	0,5	-0,453700
25,258667	0,5	-0,450900
25,267000	0,5	-0,450100
25,275333	0,5	-0,443500
25,283667	0,5	-0,445750
25,292000	0,5	-0,442600
25,300333	0,5	-0,437650
25,308667	0,5	-0,437950
25,317000	0,5	-0,437000
25,325333	0,5	-0,437550
25,333667	0,5	-0,435050
25,342000	0,5	-0,434650
25,350333	0,5	-0,436450
25,358667	0,5	-0,433700
25,367000	0,5	-0,430400
25,375333	0,5	-0,430850
25,383667	0,5	-0,427600
25,392000	0,5	-0,423600
25,400333	0,5	-0,421900
25,408667	0,5	-0,418450
25,417000	0,5	-0,412850
25,425333	0,5	-0,414100
25,433667	0,5	-0,410750
25,442000	0,5	-0,409300
25,450333	0,5	-0,407050
25,458667	0,5	-0,402450
25,467000	0,5	-0,402000
25,475333	0,5	-0,399800
25,483667	0,5	-0,398850
25,492000	0,5	-0,398900
25,500333	0,5	-0,399800
25,508667	0,5	-0,396350
25,517000	0,5	-0,401200
25,525333	0,5	-0,396800
25,533667	0,5	-0,395150
25,542000	0,5	-0,395850
25,550333	0,5	-0,393450
25,558667	0,5	-0,389800
25,567000	0,5	-0,391150
25,575333	0,5	-0,385850
25,583667	0,5	-0,388200
25,592000	0,5	-0,389300
25,600333	0,5	-0,389900
25,608667	0,5	-0,384600
25,617000	0,5	-0,382400
25,625333	0,5	-0,378600
25,633667	0,5	-0,380500
25,642000	0,5	-0,375250
25,650333	0,5	-0,377400
25,658667	0,5	-0,376650
25,667000	0,5	-0,374850
25,675333	0,5	-0,376150
25,683667	0,5	-0,374450
25,692000	0,5	-0,374050
25,700333	0,5	-0,370050
25,708667	0,5	-0,371100
25,717000	0,5	-0,372450
25,725333	0,5	-0,363250
25,733667	0,5	-0,371950
25,742000	0,5	-0,374250
25,750333	0,5	-0,372300
25,758667	0,5	-0,371100
25,767000	0,5	-0,363150
25,775333	0,5	-0,365600
25,783667	0,5	-0,359150
25,792000	0,5	-0,361550
25,800333	0,5	-0,358250
25,808667	0,5	-0,360300
25,817000	0,5	-0,358100
25,825333	0,5	-0,355950
25,833667	0,5	-0,352400
25,842000	0,5	-0,347600
25,850333	0,5	-0,345700
25,858667	0,5	-0,346900
25,867000	0,5	-0,341550
25,875333	0,5	-0,337600
25,883667	0,5	-0,344750
25,892000	0,5	-0,342500
25,900333	0,5	-0,341600
25,908667	0,5	-0,335900
25,917000	0,5	-0,329950
25,925333	0,5	-0,331450
25,933667	0,5	-0,333850
25,942000	0,5	-0,330400
25,950333	0,5	-0,331500
25,958667	0,5	-0,328600
25,967000	0,5	-0,330650
25,975333	0,5	-0,328050
25,983667	0,5	-0,330050
25,992000	0,5	-0,325400
26,000333	0,5	-0,324800
