File Path	chrom://chromeleon01/ikbm_chromeleon/2022/ICS-5000/ED1/Esteban/20220612_Cell_7_4_eg.seq/716.smp/ED_1.channel/ED_1.chm
Channel	ED_1

Injection Information:
Data Vault	ikbm_chromeleon
Injection	CelS2_24h-EGI_3
Injection Number	66
Position	GB6
Comment	
Processing Method	Stop sequence after Cell Death
Instrument Method	ICS5000_PA200_FullNative_Ox_26min_ED1
Type	Unknown
Status	Finished
Injection Date	13.06.2022
Injection Time	23:01:30
Injection Volume (µl)	5,0
Dilution Factor	1,0000
Weight	1,0000

Chromatogram Data Information:
Time Min. (min)	0,000167
Time Max. (min)	26,000167
Data Points	3121
Detector	EDet1
Generating Data System	Chromeleon 7.2.9.11323
Exporting Data System	Chromeleon 7.2.9.0
Operator	Instrument Controller
Signal Quantity	
Signal Unit	nC
Signal Min.	-2,189850
Signal Max.	590,311809
Channel	ED_1
Driver Name	DC-5000
Channel Type	Evaluation
Min. Step (s)	0,5
Max. Step (s)	0,5
Average Step (s)	0,5

Signal Parameter Information:
Signal Info	

Chromatogram Data:
Time (min)	Step (s)	Value (nC)
0,000167	n.a.	-0,008100
0,008500	0,5	-0,067200
0,016833	0,5	-0,055950
0,025167	0,5	-0,056250
0,033500	0,5	-0,046150
0,041833	0,5	-0,025000
0,050167	0,5	-0,045850
0,058500	0,5	-0,041900
0,066833	0,5	-0,034000
0,075167	0,5	-0,021950
0,083500	0,5	0,002300
0,091833	0,5	-0,000800
0,100167	0,5	0,001200
0,108500	0,5	-0,005450
0,116833	0,5	0,000550
0,125167	0,5	-0,008900
0,133500	0,5	-0,011000
0,141833	0,5	-0,008100
0,150167	0,5	-0,017050
0,158500	0,5	-0,012850
0,166833	0,5	-0,031500
0,175167	0,5	-0,041100
0,183500	0,5	-0,031500
0,191833	0,5	-0,027600
0,200167	0,5	-0,050050
0,208500	0,5	-0,040550
0,216833	0,5	-0,044000
0,225167	0,5	-0,014000
0,233500	0,5	-0,005100
0,241833	0,5	0,003050
0,250167	0,5	-0,012250
0,258500	0,5	-0,009850
0,266833	0,5	-0,020250
0,275167	0,5	-0,020600
0,283500	0,5	-0,028250
0,291833	0,5	-0,029050
0,300167	0,5	-0,017100
0,308500	0,5	-0,015700
0,316833	0,5	-0,045900
0,325167	0,5	-0,063300
0,333500	0,5	-0,050050
0,341833	0,5	-0,053450
0,350167	0,5	-0,066700
0,358500	0,5	-0,065150
0,366833	0,5	-0,059900
0,375167	0,5	-0,041150
0,383500	0,5	-0,033200
0,391833	0,5	-0,048850
0,400167	0,5	-0,041200
0,408500	0,5	-0,048800
0,416833	0,5	-0,045900
0,425167	0,5	-0,051600
0,433500	0,5	-0,048250
0,441833	0,5	-0,062950
0,450167	0,5	-0,059200
0,458500	0,5	-0,059850
0,466833	0,5	-0,075300
0,475167	0,5	-0,077850
0,483500	0,5	-0,056550
0,491833	0,5	-0,079900
0,500167	0,5	-0,083100
0,508500	0,5	-0,080650
0,516833	0,5	-0,072550
0,525167	0,5	-0,046300
0,533500	0,5	-0,060300
0,541833	0,5	-0,056800
0,550167	0,5	-0,065300
0,558500	0,5	-0,058200
0,566833	0,5	-0,069000
0,575167	0,5	-0,066450
0,583500	0,5	-0,074300
0,591833	0,5	-0,072500
0,600167	0,5	-0,075100
0,608500	0,5	-0,081750
0,616833	0,5	-0,096500
0,625167	0,5	-0,081000
0,633500	0,5	-0,077500
0,641833	0,5	-0,092050
0,650167	0,5	-0,097250
0,658500	0,5	-0,087800
0,666833	0,5	-0,070750
0,675167	0,5	-0,057700
0,683500	0,5	-0,066550
0,691833	0,5	-0,072950
0,700167	0,5	-0,065850
0,708500	0,5	-0,070900
0,716833	0,5	-0,063550
0,725167	0,5	-0,068200
0,733500	0,5	-0,073150
0,741833	0,5	-0,080650
0,750167	0,5	-0,072550
0,758500	0,5	-0,078950
0,766833	0,5	-0,086700
0,775167	0,5	-0,077500
0,783500	0,5	-0,079600
0,791833	0,5	-0,088450
0,800167	0,5	-0,093450
0,808500	0,5	-0,086300
0,816833	0,5	-0,057150
0,825167	0,5	-0,051050
0,833500	0,5	-0,060800
0,841833	0,5	-0,062750
0,850167	0,5	-0,055600
0,858500	0,5	-0,065400
0,866833	0,5	-0,063550
0,875167	0,5	-0,065950
0,883500	0,5	-0,072500
0,891833	0,5	-0,067100
0,900167	0,5	-0,070250
0,908500	0,5	-0,058900
0,916833	0,5	-0,076250
0,925167	0,5	-0,055900
0,933500	0,5	-0,079850
0,941833	0,5	-0,081550
0,950167	0,5	-0,079150
0,958500	0,5	-0,061900
0,966833	0,5	-0,044350
0,975167	0,5	-0,042150
0,983500	0,5	-0,051250
0,991833	0,5	-0,047250
1,000167	0,5	-0,054200
1,008500	0,5	-0,043000
1,016833	0,5	-0,048650
1,025167	0,5	-0,051650
1,033500	0,5	-0,056200
1,041833	0,5	-0,058250
1,050167	0,5	-0,057050
1,058500	0,5	-0,064300
1,066833	0,5	-0,060400
1,075167	0,5	-0,050050
1,083500	0,5	-0,068650
1,091833	0,5	-0,070850
1,100167	0,5	-0,062500
1,108500	0,5	-0,051500
1,116833	0,5	-0,029000
1,125167	0,5	-0,030900
1,133500	0,5	-0,031150
1,141833	0,5	-0,040650
1,150167	0,5	-0,031300
1,158500	0,5	-0,038350
1,166833	0,5	-0,036100
1,175167	0,5	-0,046400
1,183500	0,5	-0,043200
1,191833	0,5	-0,038050
1,200167	0,5	-0,039950
1,208500	0,5	-0,044800
1,216833	0,5	-0,029850
1,225167	0,5	-0,041850
1,233500	0,5	-0,054600
1,241833	0,5	-0,051950
1,250167	0,5	-0,052950
1,258500	0,5	-0,029750
1,266833	0,5	-0,020600
1,275167	0,5	-0,013900
1,283500	0,5	-0,023850
1,291833	0,5	-0,012700
1,300167	0,5	-0,023800
1,308500	0,5	-0,022650
1,316833	0,5	-0,029200
1,325167	0,5	-0,025850
1,333500	0,5	-0,032850
1,341833	0,5	-0,031000
1,350167	0,5	-0,030400
1,358500	0,5	-0,033350
1,366833	0,5	-0,023200
1,375167	0,5	-0,033500
1,383500	0,5	-0,045850
1,391833	0,5	-0,036850
1,400167	0,5	-0,032500
1,408500	0,5	-0,012500
1,416833	0,5	-0,012600
1,425167	0,5	-0,027500
1,433500	0,5	-0,018000
1,441833	0,5	-0,024350
1,450167	0,5	-0,019400
1,458500	0,5	-0,026250
1,466833	0,5	-0,024200
1,475167	0,5	-0,033200
1,483500	0,5	-0,022300
1,491833	0,5	-0,026900
1,500167	0,5	-0,037100
1,508500	0,5	-0,042000
1,516833	0,5	-0,020750
1,525167	0,5	-0,045650
1,533500	0,5	-0,054600
1,541833	0,5	-0,054900
1,550167	0,5	-0,049550
1,558500	0,5	-0,046700
1,566833	0,5	-0,123450
1,575167	0,5	-0,343050
1,583500	0,5	-0,758450
1,591833	0,5	-0,740050
1,600167	0,5	1,598450
1,608500	0,5	11,014300
1,616833	0,5	38,745151
1,625167	0,5	99,323551
1,633500	0,5	184,472103
1,641833	0,5	250,499804
1,650167	0,5	259,227654
1,658500	0,5	219,143803
1,666833	0,5	164,477902
1,675167	0,5	117,929752
1,683500	0,5	84,827051
1,691833	0,5	62,964751
1,700167	0,5	48,987001
1,708500	0,5	40,549201
1,716833	0,5	35,784001
1,725167	0,5	32,585400
1,733500	0,5	29,188050
1,741833	0,5	25,403700
1,750167	0,5	21,952350
1,758500	0,5	19,332500
1,766833	0,5	17,642050
1,775167	0,5	16,793850
1,783500	0,5	16,565500
1,791833	0,5	16,685350
1,800167	0,5	16,944000
1,808500	0,5	17,217100
1,816833	0,5	17,315750
1,825167	0,5	17,064100
1,833500	0,5	16,383150
1,841833	0,5	15,409750
1,850167	0,5	14,414200
1,858500	0,5	13,508100
1,866833	0,5	12,734050
1,875167	0,5	12,096500
1,883500	0,5	11,614900
1,891833	0,5	11,275750
1,900167	0,5	11,137400
1,908500	0,5	11,188400
1,916833	0,5	11,290200
1,925167	0,5	11,223350
1,933500	0,5	11,151000
1,941833	0,5	11,738000
1,950167	0,5	13,960650
1,958500	0,5	19,728000
1,966833	0,5	33,354800
1,975167	0,5	61,324351
1,983500	0,5	101,571002
1,991833	0,5	133,376252
2,000167	0,5	135,225552
2,008500	0,5	111,190652
2,016833	0,5	81,228351
2,025167	0,5	57,700651
2,033500	0,5	41,953851
2,041833	0,5	31,940050
2,050167	0,5	25,857900
2,058500	0,5	22,730350
2,066833	0,5	21,889300
2,075167	0,5	22,243600
2,083500	0,5	22,167000
2,091833	0,5	20,891950
2,100167	0,5	18,920250
2,108500	0,5	16,986850
2,116833	0,5	15,359950
2,125167	0,5	14,179150
2,133500	0,5	13,422050
2,141833	0,5	12,987600
2,150167	0,5	12,739300
2,158500	0,5	12,583300
2,166833	0,5	12,438250
2,175167	0,5	12,192600
2,183500	0,5	11,867900
2,191833	0,5	11,522050
2,200167	0,5	11,222850
2,208500	0,5	10,955650
2,216833	0,5	10,782500
2,225167	0,5	10,709200
2,233500	0,5	10,693400
2,241833	0,5	10,663000
2,250167	0,5	10,620750
2,258500	0,5	10,533050
2,266833	0,5	10,469550
2,275167	0,5	10,453700
2,283500	0,5	10,460100
2,291833	0,5	10,494600
2,300167	0,5	10,538500
2,308500	0,5	10,619500
2,316833	0,5	10,745400
2,325167	0,5	10,907350
2,333500	0,5	11,079550
2,341833	0,5	11,296550
2,350167	0,5	11,566900
2,358500	0,5	11,935650
2,366833	0,5	12,352150
2,375167	0,5	12,695500
2,383500	0,5	12,909800
2,391833	0,5	13,178150
2,400167	0,5	13,596800
2,408500	0,5	14,073000
2,416833	0,5	14,492450
2,425167	0,5	14,777550
2,433500	0,5	14,881550
2,441833	0,5	14,849250
2,450167	0,5	14,669050
2,458500	0,5	14,441250
2,466833	0,5	14,217000
2,475167	0,5	14,060000
2,483500	0,5	14,032300
2,491833	0,5	14,257950
2,500167	0,5	14,795700
2,508500	0,5	15,529850
2,516833	0,5	16,114850
2,525167	0,5	16,275100
2,533500	0,5	16,168900
2,541833	0,5	16,346300
2,550167	0,5	17,655350
2,558500	0,5	20,821950
2,566833	0,5	26,493050
2,575167	0,5	35,128401
2,583500	0,5	48,335451
2,591833	0,5	71,506551
2,600167	0,5	118,295052
2,608500	0,5	210,346603
2,616833	0,5	353,352105
2,625167	0,5	502,592257
2,633500	0,5	590,311809
2,641833	0,5	588,888709
2,650167	0,5	518,768358
2,658500	0,5	417,570806
2,666833	0,5	316,882155
2,675167	0,5	233,711103
2,683500	0,5	172,034053
2,691833	0,5	129,274002
2,700167	0,5	100,699002
2,708500	0,5	81,963151
2,716833	0,5	69,650151
2,725167	0,5	61,228601
2,733500	0,5	54,832901
2,741833	0,5	49,323801
2,750167	0,5	44,122051
2,758500	0,5	39,208201
2,766833	0,5	34,718451
2,775167	0,5	30,836450
2,783500	0,5	27,606850
2,791833	0,5	25,017400
2,800167	0,5	22,948350
2,808500	0,5	21,283400
2,816833	0,5	19,917850
2,825167	0,5	18,752800
2,833500	0,5	17,742200
2,841833	0,5	16,884100
2,850167	0,5	16,114850
2,858500	0,5	15,440200
2,866833	0,5	14,880750
2,875167	0,5	14,433300
2,883500	0,5	14,104850
2,891833	0,5	13,827350
2,900167	0,5	13,556950
2,908500	0,5	13,232350
2,916833	0,5	12,844100
2,925167	0,5	12,359750
2,933500	0,5	11,851850
2,941833	0,5	11,352000
2,950167	0,5	10,914350
2,958500	0,5	10,544900
2,966833	0,5	10,261150
2,975167	0,5	10,047500
2,983500	0,5	9,923900
2,991833	0,5	9,931950
3,000167	0,5	10,076100
3,008500	0,5	10,404350
3,016833	0,5	10,873750
3,025167	0,5	11,335050
3,033500	0,5	11,583600
3,041833	0,5	11,466750
3,050167	0,5	10,971050
3,058500	0,5	10,260200
3,066833	0,5	9,491000
3,075167	0,5	8,813800
3,083500	0,5	8,280600
3,091833	0,5	7,895700
3,100167	0,5	7,605300
3,108500	0,5	7,388650
3,116833	0,5	7,199350
3,125167	0,5	7,023850
3,133500	0,5	6,853600
3,141833	0,5	6,698750
3,150167	0,5	6,522950
3,158500	0,5	6,377300
3,166833	0,5	6,245600
3,175167	0,5	6,146150
3,183500	0,5	6,057650
3,191833	0,5	5,967450
3,200167	0,5	5,884100
3,208500	0,5	5,802550
3,216833	0,5	5,712700
3,225167	0,5	5,611400
3,233500	0,5	5,513300
3,241833	0,5	5,418050
3,250167	0,5	5,332900
3,258500	0,5	5,262150
3,266833	0,5	5,198800
3,275167	0,5	5,142200
3,283500	0,5	5,116150
3,291833	0,5	5,073200
3,300167	0,5	5,043100
3,308500	0,5	5,025950
3,316833	0,5	5,019200
3,325167	0,5	5,029850
3,333500	0,5	5,033900
3,341833	0,5	5,016000
3,350167	0,5	4,984450
3,358500	0,5	4,926950
3,366833	0,5	4,866500
3,375167	0,5	4,801650
3,383500	0,5	4,744150
3,391833	0,5	4,708100
3,400167	0,5	4,694800
3,408500	0,5	4,708650
3,416833	0,5	4,733100
3,425167	0,5	4,790150
3,433500	0,5	4,887900
3,441833	0,5	5,010800
3,450167	0,5	5,209450
3,458500	0,5	5,527900
3,466833	0,5	5,976500
3,475167	0,5	6,557400
3,483500	0,5	7,169100
3,491833	0,5	7,731150
3,500167	0,5	8,102050
3,508500	0,5	8,185400
3,516833	0,5	7,941600
3,525167	0,5	7,440550
3,533500	0,5	6,788000
3,541833	0,5	6,122450
3,550167	0,5	5,526200
3,558500	0,5	5,046650
3,566833	0,5	4,693250
3,575167	0,5	4,420350
3,583500	0,5	4,234750
3,591833	0,5	4,075700
3,600167	0,5	3,962400
3,608500	0,5	3,886200
3,616833	0,5	3,836200
3,625167	0,5	3,807200
3,633500	0,5	3,775650
3,641833	0,5	3,750750
3,650167	0,5	3,746900
3,658500	0,5	3,735350
3,666833	0,5	3,736800
3,675167	0,5	3,728850
3,683500	0,5	3,731750
3,691833	0,5	3,730400
3,700167	0,5	3,728300
3,708500	0,5	3,729800
3,716833	0,5	3,711000
3,725167	0,5	3,699950
3,733500	0,5	3,687700
3,741833	0,5	3,653700
3,750167	0,5	3,636500
3,758500	0,5	3,622700
3,766833	0,5	3,616050
3,775167	0,5	3,615350
3,783500	0,5	3,592300
3,791833	0,5	3,581900
3,800167	0,5	3,551550
3,808500	0,5	3,527200
3,816833	0,5	3,492150
3,825167	0,5	3,461800
3,833500	0,5	3,432200
3,841833	0,5	3,422350
3,850167	0,5	3,432800
3,858500	0,5	3,468400
3,866833	0,5	3,529550
3,875167	0,5	3,658700
3,883500	0,5	3,814200
3,891833	0,5	4,025750
3,900167	0,5	4,294950
3,908500	0,5	4,612550
3,916833	0,5	4,963400
3,925167	0,5	5,305600
3,933500	0,5	5,627900
3,941833	0,5	5,929850
3,950167	0,5	6,240950
3,958500	0,5	6,587450
3,966833	0,5	7,005000
3,975167	0,5	7,494250
3,983500	0,5	8,018150
3,991833	0,5	8,496800
4,000167	0,5	8,848950
4,008500	0,5	8,985000
4,016833	0,5	8,861950
4,025167	0,5	8,492200
4,033500	0,5	7,906250
4,041833	0,5	7,210500
4,050167	0,5	6,491350
4,058500	0,5	5,823050
4,066833	0,5	5,258950
4,075167	0,5	4,824500
4,083500	0,5	4,507700
4,091833	0,5	4,330100
4,100167	0,5	4,263750
4,108500	0,5	4,275350
4,116833	0,5	4,330900
4,125167	0,5	4,397300
4,133500	0,5	4,433400
4,141833	0,5	4,434150
4,150167	0,5	4,384200
4,158500	0,5	4,306050
4,166833	0,5	4,215150
4,175167	0,5	4,151850
4,183500	0,5	4,113850
4,191833	0,5	4,160950
4,200167	0,5	4,268250
4,208500	0,5	4,442050
4,216833	0,5	4,626650
4,225167	0,5	4,785350
4,233500	0,5	4,878800
4,241833	0,5	4,885650
4,250167	0,5	4,795700
4,258500	0,5	4,615900
4,266833	0,5	4,366750
4,275167	0,5	4,080400
4,283500	0,5	3,790250
4,291833	0,5	3,520300
4,300167	0,5	3,292800
4,308500	0,5	3,099300
4,316833	0,5	2,971750
4,325167	0,5	2,857550
4,333500	0,5	2,769850
4,341833	0,5	2,717450
4,350167	0,5	2,683600
4,358500	0,5	2,664900
4,366833	0,5	2,652750
4,375167	0,5	2,626050
4,383500	0,5	2,610050
4,391833	0,5	2,585200
4,400167	0,5	2,563050
4,408500	0,5	2,540350
4,416833	0,5	2,522200
4,425167	0,5	2,503250
4,433500	0,5	2,484800
4,441833	0,5	2,475550
4,450167	0,5	2,459650
4,458500	0,5	2,457100
4,466833	0,5	2,471700
4,475167	0,5	2,462350
4,483500	0,5	2,460650
4,491833	0,5	2,473750
4,500167	0,5	2,486950
4,508500	0,5	2,522700
4,516833	0,5	2,527850
4,525167	0,5	2,540650
4,533500	0,5	2,538650
4,541833	0,5	2,542250
4,550167	0,5	2,527900
4,558500	0,5	2,517800
4,566833	0,5	2,493250
4,575167	0,5	2,467200
4,583500	0,5	2,440900
4,591833	0,5	2,420800
4,600167	0,5	2,404250
4,608500	0,5	2,394200
4,616833	0,5	2,398850
4,625167	0,5	2,394550
4,633500	0,5	2,411550
4,641833	0,5	2,441400
4,650167	0,5	2,492050
4,658500	0,5	2,568850
4,666833	0,5	2,647950
4,675167	0,5	2,756050
4,683500	0,5	2,915650
4,691833	0,5	3,117200
4,700167	0,5	3,399650
4,708500	0,5	3,757600
4,716833	0,5	4,199300
4,725167	0,5	4,693650
4,733500	0,5	5,221950
4,741833	0,5	5,721250
4,750167	0,5	6,117200
4,758500	0,5	6,383750
4,766833	0,5	6,474850
4,775167	0,5	6,368100
4,783500	0,5	6,117150
4,791833	0,5	5,760300
4,800167	0,5	5,346000
4,808500	0,5	4,913300
4,816833	0,5	4,483100
4,825167	0,5	4,100900
4,833500	0,5	3,768250
4,841833	0,5	3,489800
4,850167	0,5	3,257950
4,858500	0,5	3,075250
4,866833	0,5	2,916700
4,875167	0,5	2,798000
4,883500	0,5	2,703000
4,891833	0,5	2,632200
4,900167	0,5	2,570250
4,908500	0,5	2,549700
4,916833	0,5	2,527700
4,925167	0,5	2,521900
4,933500	0,5	2,530250
4,941833	0,5	2,558250
4,950167	0,5	2,599350
4,958500	0,5	2,633950
4,966833	0,5	2,653600
4,975167	0,5	2,662650
4,983500	0,5	2,661600
4,991833	0,5	2,639300
5,000167	0,5	2,603800
5,008500	0,5	2,556850
5,016833	0,5	2,510400
5,025167	0,5	2,458500
5,033500	0,5	2,409150
5,041833	0,5	2,347200
5,050167	0,5	2,303350
5,058500	0,5	2,261650
5,066833	0,5	2,209450
5,075167	0,5	2,164650
5,083500	0,5	2,123550
5,091833	0,5	2,095100
5,100167	0,5	2,073800
5,108500	0,5	2,048100
5,116833	0,5	2,020700
5,125167	0,5	1,997200
5,133500	0,5	1,980250
5,141833	0,5	1,965550
5,150167	0,5	1,955050
5,158500	0,5	1,945050
5,166833	0,5	1,939150
5,175167	0,5	1,938550
5,183500	0,5	1,936300
5,191833	0,5	1,931850
5,200167	0,5	1,934800
5,208500	0,5	1,940150
5,216833	0,5	1,928050
5,225167	0,5	1,924250
5,233500	0,5	1,916550
5,241833	0,5	1,924300
5,250167	0,5	1,915450
5,258500	0,5	1,905550
5,266833	0,5	1,887750
5,275167	0,5	1,868400
5,283500	0,5	1,851400
5,291833	0,5	1,836850
5,300167	0,5	1,817900
5,308500	0,5	1,804500
5,316833	0,5	1,793100
5,325167	0,5	1,783550
5,333500	0,5	1,771800
5,341833	0,5	1,764300
5,350167	0,5	1,772550
5,358500	0,5	1,765350
5,366833	0,5	1,758850
5,375167	0,5	1,760250
5,383500	0,5	1,772650
5,391833	0,5	1,791850
5,400167	0,5	1,809450
5,408500	0,5	1,821900
5,416833	0,5	1,846950
5,425167	0,5	1,869050
5,433500	0,5	1,901450
5,441833	0,5	1,933500
5,450167	0,5	1,971400
5,458500	0,5	1,994700
5,466833	0,5	2,016350
5,475167	0,5	2,026950
5,483500	0,5	2,014350
5,491833	0,5	1,988500
5,500167	0,5	1,979650
5,508500	0,5	1,947300
5,516833	0,5	1,929650
5,525167	0,5	1,920800
5,533500	0,5	1,927850
5,541833	0,5	1,952650
5,550167	0,5	1,959050
5,558500	0,5	1,964450
5,566833	0,5	1,960650
5,575167	0,5	1,962300
5,583500	0,5	1,954150
5,591833	0,5	1,956900
5,600167	0,5	1,951750
5,608500	0,5	1,952900
5,616833	0,5	1,948000
5,625167	0,5	1,937750
5,633500	0,5	1,909050
5,641833	0,5	1,871150
5,650167	0,5	1,821050
5,658500	0,5	1,750300
5,666833	0,5	1,688250
5,675167	0,5	1,630250
5,683500	0,5	1,585450
5,691833	0,5	1,557250
5,700167	0,5	1,525400
5,708500	0,5	1,506200
5,716833	0,5	1,497050
5,725167	0,5	1,487300
5,733500	0,5	1,486200
5,741833	0,5	1,479900
5,750167	0,5	1,474600
5,758500	0,5	1,467700
5,766833	0,5	1,462700
5,775167	0,5	1,460400
5,783500	0,5	1,459200
5,791833	0,5	1,461200
5,800167	0,5	1,468300
5,808500	0,5	1,459750
5,816833	0,5	1,461100
5,825167	0,5	1,462900
5,833500	0,5	1,466400
5,841833	0,5	1,465600
5,850167	0,5	1,448850
5,858500	0,5	1,430500
5,866833	0,5	1,414200
5,875167	0,5	1,400900
5,883500	0,5	1,382750
5,891833	0,5	1,367300
5,900167	0,5	1,350250
5,908500	0,5	1,338200
5,916833	0,5	1,322100
5,925167	0,5	1,318850
5,933500	0,5	1,304950
5,941833	0,5	1,309650
5,950167	0,5	1,310600
5,958500	0,5	1,318750
5,966833	0,5	1,337450
5,975167	0,5	1,372750
5,983500	0,5	1,418450
5,991833	0,5	1,467700
6,000167	0,5	1,503350
6,008500	0,5	1,538750
6,016833	0,5	1,551450
6,025167	0,5	1,551400
6,033500	0,5	1,535850
6,041833	0,5	1,499100
6,050167	0,5	1,451600
6,058500	0,5	1,403550
6,066833	0,5	1,355850
6,075167	0,5	1,307500
6,083500	0,5	1,270000
6,091833	0,5	1,244150
6,100167	0,5	1,215700
6,108500	0,5	1,197100
6,116833	0,5	1,187800
6,125167	0,5	1,188800
6,133500	0,5	1,201250
6,141833	0,5	1,205100
6,150167	0,5	1,215750
6,158500	0,5	1,214500
6,166833	0,5	1,221000
6,175167	0,5	1,220450
6,183500	0,5	1,227050
6,191833	0,5	1,228900
6,200167	0,5	1,230450
6,208500	0,5	1,234550
6,216833	0,5	1,234300
6,225167	0,5	1,238250
6,233500	0,5	1,247150
6,241833	0,5	1,249000
6,250167	0,5	1,246400
6,258500	0,5	1,243050
6,266833	0,5	1,240700
6,275167	0,5	1,242200
6,283500	0,5	1,236500
6,291833	0,5	1,224100
6,300167	0,5	1,202850
6,308500	0,5	1,192900
6,316833	0,5	1,185800
6,325167	0,5	1,185450
6,333500	0,5	1,191550
6,341833	0,5	1,215800
6,350167	0,5	1,254500
6,358500	0,5	1,330050
6,366833	0,5	1,418600
6,375167	0,5	1,533100
6,383500	0,5	1,670800
6,391833	0,5	1,798500
6,400167	0,5	1,910300
6,408500	0,5	1,988700
6,416833	0,5	2,028400
6,425167	0,5	2,022050
6,433500	0,5	1,966050
6,441833	0,5	1,875700
6,450167	0,5	1,768200
6,458500	0,5	1,659800
6,466833	0,5	1,556250
6,475167	0,5	1,462850
6,483500	0,5	1,383250
6,491833	0,5	1,309800
6,500167	0,5	1,252750
6,508500	0,5	1,204750
6,516833	0,5	1,165250
6,525167	0,5	1,131450
6,533500	0,5	1,119300
6,541833	0,5	1,088100
6,550167	0,5	1,071900
6,558500	0,5	1,056100
6,566833	0,5	1,050700
6,575167	0,5	1,052800
6,583500	0,5	1,046400
6,591833	0,5	1,047600
6,600167	0,5	1,051800
6,608500	0,5	1,066150
6,616833	0,5	1,092250
6,625167	0,5	1,128400
6,633500	0,5	1,173000
6,641833	0,5	1,235550
6,650167	0,5	1,300100
6,658500	0,5	1,372850
6,666833	0,5	1,426300
6,675167	0,5	1,472050
6,683500	0,5	1,498000
6,691833	0,5	1,485400
6,700167	0,5	1,458100
6,708500	0,5	1,416550
6,716833	0,5	1,371950
6,725167	0,5	1,329850
6,733500	0,5	1,278900
6,741833	0,5	1,239750
6,750167	0,5	1,217500
6,758500	0,5	1,202900
6,766833	0,5	1,197850
6,775167	0,5	1,200000
6,783500	0,5	1,202750
6,791833	0,5	1,206650
6,800167	0,5	1,218450
6,808500	0,5	1,228850
6,816833	0,5	1,247100
6,825167	0,5	1,288450
6,833500	0,5	1,347650
6,841833	0,5	1,426700
6,850167	0,5	1,542550
6,858500	0,5	1,684900
6,866833	0,5	1,849550
6,875167	0,5	2,018600
6,883500	0,5	2,164750
6,891833	0,5	2,284750
6,900167	0,5	2,369300
6,908500	0,5	2,418350
6,916833	0,5	2,441850
6,925167	0,5	2,437900
6,933500	0,5	2,440900
6,941833	0,5	2,462450
6,950167	0,5	2,523600
6,958500	0,5	2,660850
6,966833	0,5	2,876550
6,975167	0,5	3,197600
6,983500	0,5	3,602900
6,991833	0,5	4,080350
7,000167	0,5	4,622550
7,008500	0,5	5,217050
7,016833	0,5	5,856200
7,025167	0,5	6,554950
7,033500	0,5	7,359600
7,041833	0,5	8,374200
7,050167	0,5	9,769650
7,058500	0,5	11,885300
7,066833	0,5	15,234550
7,075167	0,5	20,595950
7,083500	0,5	28,838800
7,091833	0,5	40,621701
7,100167	0,5	55,730701
7,108500	0,5	72,621451
7,116833	0,5	88,699801
7,125167	0,5	101,058402
7,133500	0,5	107,457852
7,141833	0,5	107,323752
7,150167	0,5	101,516502
7,158500	0,5	91,714801
7,166833	0,5	79,785001
7,175167	0,5	67,185051
7,183500	0,5	54,959051
7,191833	0,5	43,700401
7,200167	0,5	33,810701
7,208500	0,5	25,576550
7,216833	0,5	19,104950
7,225167	0,5	14,268550
7,233500	0,5	10,806450
7,241833	0,5	8,386800
7,250167	0,5	6,718550
7,258500	0,5	5,563800
7,266833	0,5	4,770150
7,275167	0,5	4,206950
7,283500	0,5	3,797700
7,291833	0,5	3,502600
7,300167	0,5	3,291250
7,308500	0,5	3,144400
7,316833	0,5	3,032200
7,325167	0,5	2,939700
7,333500	0,5	2,852550
7,341833	0,5	2,767750
7,350167	0,5	2,677400
7,358500	0,5	2,597300
7,366833	0,5	2,537950
7,375167	0,5	2,505300
7,383500	0,5	2,505100
7,391833	0,5	2,528450
7,400167	0,5	2,561450
7,408500	0,5	2,569900
7,416833	0,5	2,542200
7,425167	0,5	2,455250
7,433500	0,5	2,321450
7,441833	0,5	2,169150
7,450167	0,5	2,007200
7,458500	0,5	1,871900
7,466833	0,5	1,756550
7,475167	0,5	1,661400
7,483500	0,5	1,594250
7,491833	0,5	1,550850
7,500167	0,5	1,527950
7,508500	0,5	1,527950
7,516833	0,5	1,547750
7,525167	0,5	1,593400
7,533500	0,5	1,655200
7,541833	0,5	1,724850
7,550167	0,5	1,782300
7,558500	0,5	1,807500
7,566833	0,5	1,811250
7,575167	0,5	1,783600
7,583500	0,5	1,747500
7,591833	0,5	1,717050
7,600167	0,5	1,704750
7,608500	0,5	1,715800
7,616833	0,5	1,728700
7,625167	0,5	1,758650
7,633500	0,5	1,790450
7,641833	0,5	1,825350
7,650167	0,5	1,845150
7,658500	0,5	1,835450
7,666833	0,5	1,802700
7,675167	0,5	1,740350
7,683500	0,5	1,679750
7,691833	0,5	1,628950
7,700167	0,5	1,586500
7,708500	0,5	1,551550
7,716833	0,5	1,526200
7,725167	0,5	1,489150
7,733500	0,5	1,445400
7,741833	0,5	1,402400
7,750167	0,5	1,367350
7,758500	0,5	1,342400
7,766833	0,5	1,318050
7,775167	0,5	1,295450
7,783500	0,5	1,277900
7,791833	0,5	1,266750
7,800167	0,5	1,270950
7,808500	0,5	1,293600
7,816833	0,5	1,336650
7,825167	0,5	1,395000
7,833500	0,5	1,446700
7,841833	0,5	1,468000
7,850167	0,5	1,447450
7,858500	0,5	1,394250
7,866833	0,5	1,329900
7,875167	0,5	1,259900
7,883500	0,5	1,202400
7,891833	0,5	1,163650
7,900167	0,5	1,142550
7,908500	0,5	1,130750
7,916833	0,5	1,115750
7,925167	0,5	1,104700
7,933500	0,5	1,098300
7,941833	0,5	1,090550
7,950167	0,5	1,094050
7,958500	0,5	1,104800
7,966833	0,5	1,136650
7,975167	0,5	1,192700
7,983500	0,5	1,275450
7,991833	0,5	1,379600
8,000167	0,5	1,492600
8,008500	0,5	1,609300
8,016833	0,5	1,698050
8,025167	0,5	1,745150
8,033500	0,5	1,749300
8,041833	0,5	1,715900
8,050167	0,5	1,657750
8,058500	0,5	1,597000
8,066833	0,5	1,536100
8,075167	0,5	1,489650
8,083500	0,5	1,450500
8,091833	0,5	1,420350
8,100167	0,5	1,401300
8,108500	0,5	1,394150
8,116833	0,5	1,399300
8,125167	0,5	1,417000
8,133500	0,5	1,422300
8,141833	0,5	1,399450
8,150167	0,5	1,352250
8,158500	0,5	1,289700
8,166833	0,5	1,223750
8,175167	0,5	1,171650
8,183500	0,5	1,139700
8,191833	0,5	1,119600
8,200167	0,5	1,114800
8,208500	0,5	1,107250
8,216833	0,5	1,099150
8,225167	0,5	1,095500
8,233500	0,5	1,091900
8,241833	0,5	1,088350
8,250167	0,5	1,098900
8,258500	0,5	1,107250
8,266833	0,5	1,117400
8,275167	0,5	1,132100
8,283500	0,5	1,135450
8,291833	0,5	1,130750
8,300167	0,5	1,123300
8,308500	0,5	1,113750
8,316833	0,5	1,100350
8,325167	0,5	1,084600
8,333500	0,5	1,077850
8,341833	0,5	1,080650
8,350167	0,5	1,090450
8,358500	0,5	1,106800
8,366833	0,5	1,138900
8,375167	0,5	1,181950
8,383500	0,5	1,232900
8,391833	0,5	1,294550
8,400167	0,5	1,343400
8,408500	0,5	1,375150
8,416833	0,5	1,386100
8,425167	0,5	1,372750
8,433500	0,5	1,345300
8,441833	0,5	1,316350
8,450167	0,5	1,307350
8,458500	0,5	1,316250
8,466833	0,5	1,346400
8,475167	0,5	1,397400
8,483500	0,5	1,468950
8,491833	0,5	1,560150
8,500167	0,5	1,686900
8,508500	0,5	1,874800
8,516833	0,5	2,161950
8,525167	0,5	2,576500
8,533500	0,5	3,139450
8,541833	0,5	3,842150
8,550167	0,5	4,665700
8,558500	0,5	5,603550
8,566833	0,5	6,678350
8,575167	0,5	7,967800
8,583500	0,5	9,696650
8,591833	0,5	12,311650
8,600167	0,5	16,691500
8,608500	0,5	24,079000
8,616833	0,5	35,818751
8,625167	0,5	52,338551
8,633500	0,5	72,213101
8,641833	0,5	92,003051
8,650167	0,5	107,555502
8,658500	0,5	115,828552
8,666833	0,5	115,748252
8,675167	0,5	107,913802
8,683500	0,5	94,205251
8,691833	0,5	77,217501
8,700167	0,5	59,748351
8,708500	0,5	44,053451
8,716833	0,5	31,363850
8,725167	0,5	21,950650
8,733500	0,5	15,421750
8,741833	0,5	11,126450
8,750167	0,5	8,397450
8,758500	0,5	6,678100
8,766833	0,5	5,573250
8,775167	0,5	4,832750
8,783500	0,5	4,301850
8,791833	0,5	3,907900
8,800167	0,5	3,604600
8,808500	0,5	3,383600
8,816833	0,5	3,218450
8,825167	0,5	3,109150
8,833500	0,5	3,027200
8,841833	0,5	2,961750
8,850167	0,5	2,896000
8,858500	0,5	2,824950
8,866833	0,5	2,745600
8,875167	0,5	2,659100
8,883500	0,5	2,561950
8,891833	0,5	2,456450
8,900167	0,5	2,344350
8,908500	0,5	2,236250
8,916833	0,5	2,126150
8,925167	0,5	2,036200
8,933500	0,5	1,965050
8,941833	0,5	1,909500
8,950167	0,5	1,861400
8,958500	0,5	1,817850
8,966833	0,5	1,775500
8,975167	0,5	1,736700
8,983500	0,5	1,703050
8,991833	0,5	1,676350
9,000167	0,5	1,652450
9,008500	0,5	1,629050
9,016833	0,5	1,600300
9,025167	0,5	1,576400
9,033500	0,5	1,549900
9,041833	0,5	1,522850
9,050167	0,5	1,503600
9,058500	0,5	1,484300
9,066833	0,5	1,464550
9,075167	0,5	1,442400
9,083500	0,5	1,427450
9,091833	0,5	1,411100
9,100167	0,5	1,396900
9,108500	0,5	1,380300
9,116833	0,5	1,368200
9,125167	0,5	1,360300
9,133500	0,5	1,352450
9,141833	0,5	1,345850
9,150167	0,5	1,342200
9,158500	0,5	1,345150
9,166833	0,5	1,364200
9,175167	0,5	1,374000
9,183500	0,5	1,404950
9,191833	0,5	1,447100
9,200167	0,5	1,490950
9,208500	0,5	1,529300
9,216833	0,5	1,557650
9,225167	0,5	1,576250
9,233500	0,5	1,579100
9,241833	0,5	1,580100
9,250167	0,5	1,571550
9,258500	0,5	1,559800
9,266833	0,5	1,548300
9,275167	0,5	1,531050
9,283500	0,5	1,509050
9,291833	0,5	1,475500
9,300167	0,5	1,435900
9,308500	0,5	1,393100
9,316833	0,5	1,355200
9,325167	0,5	1,319900
9,333500	0,5	1,285000
9,341833	0,5	1,264550
9,350167	0,5	1,245900
9,358500	0,5	1,232650
9,366833	0,5	1,224650
9,375167	0,5	1,221600
9,383500	0,5	1,224200
9,391833	0,5	1,223100
9,400167	0,5	1,227200
9,408500	0,5	1,231100
9,416833	0,5	1,235350
9,425167	0,5	1,237950
9,433500	0,5	1,240450
9,441833	0,5	1,238000
9,450167	0,5	1,231850
9,458500	0,5	1,221400
9,466833	0,5	1,207200
9,475167	0,5	1,193750
9,483500	0,5	1,184900
9,491833	0,5	1,183900
9,500167	0,5	1,184700
9,508500	0,5	1,184750
9,516833	0,5	1,187750
9,525167	0,5	1,193150
9,533500	0,5	1,200200
9,541833	0,5	1,205750
9,550167	0,5	1,210050
9,558500	0,5	1,211550
9,566833	0,5	1,211550
9,575167	0,5	1,206250
9,583500	0,5	1,203050
9,591833	0,5	1,195500
9,600167	0,5	1,192250
9,608500	0,5	1,188500
9,616833	0,5	1,193900
9,625167	0,5	1,190050
9,633500	0,5	1,188300
9,641833	0,5	1,183350
9,650167	0,5	1,175500
9,658500	0,5	1,161350
9,666833	0,5	1,151950
9,675167	0,5	1,148000
9,683500	0,5	1,152600
9,691833	0,5	1,157500
9,700167	0,5	1,167850
9,708500	0,5	1,185600
9,716833	0,5	1,212600
9,725167	0,5	1,248600
9,733500	0,5	1,305600
9,741833	0,5	1,377550
9,750167	0,5	1,464500
9,758500	0,5	1,556550
9,766833	0,5	1,632450
9,775167	0,5	1,683350
9,783500	0,5	1,690000
9,791833	0,5	1,649250
9,800167	0,5	1,571100
9,808500	0,5	1,472800
9,816833	0,5	1,370600
9,825167	0,5	1,280650
9,833500	0,5	1,212750
9,841833	0,5	1,160200
9,850167	0,5	1,127600
9,858500	0,5	1,101650
9,866833	0,5	1,084550
9,875167	0,5	1,075050
9,883500	0,5	1,065450
9,891833	0,5	1,057950
9,900167	0,5	1,056500
9,908500	0,5	1,056050
9,916833	0,5	1,055500
9,925167	0,5	1,055950
9,933500	0,5	1,063100
9,941833	0,5	1,063400
9,950167	0,5	1,061000
9,958500	0,5	1,058750
9,966833	0,5	1,054900
9,975167	0,5	1,053550
9,983500	0,5	1,051050
9,991833	0,5	1,059150
10,000167	0,5	1,073750
10,008500	0,5	1,088050
10,016833	0,5	1,105950
10,025167	0,5	1,125800
10,033500	0,5	1,140500
10,041833	0,5	1,154550
10,050167	0,5	1,168000
10,058500	0,5	1,180550
10,066833	0,5	1,193750
10,075167	0,5	1,206550
10,083500	0,5	1,213650
10,091833	0,5	1,218300
10,100167	0,5	1,206800
10,108500	0,5	1,193150
10,116833	0,5	1,170700
10,125167	0,5	1,147250
10,133500	0,5	1,127800
10,141833	0,5	1,116650
10,150167	0,5	1,116600
10,158500	0,5	1,135250
10,166833	0,5	1,172500
10,175167	0,5	1,215600
10,183500	0,5	1,263050
10,191833	0,5	1,304400
10,200167	0,5	1,345850
10,208500	0,5	1,389850
10,216833	0,5	1,445600
10,225167	0,5	1,519650
10,233500	0,5	1,610850
10,241833	0,5	1,691550
10,250167	0,5	1,744450
10,258500	0,5	1,737100
10,266833	0,5	1,682800
10,275167	0,5	1,580150
10,283500	0,5	1,445100
10,291833	0,5	1,309700
10,300167	0,5	1,192600
10,308500	0,5	1,101850
10,316833	0,5	1,038250
10,325167	0,5	0,997000
10,333500	0,5	0,975800
10,341833	0,5	0,966900
10,350167	0,5	0,969700
10,358500	0,5	0,970200
10,366833	0,5	0,972750
10,375167	0,5	0,988500
10,383500	0,5	0,986600
10,391833	0,5	0,980000
10,400167	0,5	0,969450
10,408500	0,5	0,959800
10,416833	0,5	0,950450
10,425167	0,5	0,943200
10,433500	0,5	0,932900
10,441833	0,5	0,923750
10,450167	0,5	0,917300
10,458500	0,5	0,913350
10,466833	0,5	0,906400
10,475167	0,5	0,904000
10,483500	0,5	0,907850
10,491833	0,5	0,914950
10,500167	0,5	0,936050
10,508500	0,5	0,963750
10,516833	0,5	0,995300
10,525167	0,5	1,039150
10,533500	0,5	1,073300
10,541833	0,5	1,098300
10,550167	0,5	1,111000
10,558500	0,5	1,106800
10,566833	0,5	1,098900
10,575167	0,5	1,086000
10,583500	0,5	1,073050
10,591833	0,5	1,068650
10,600167	0,5	1,082550
10,608500	0,5	1,118800
10,616833	0,5	1,184400
10,625167	0,5	1,267500
10,633500	0,5	1,372250
10,641833	0,5	1,468950
10,650167	0,5	1,537850
10,658500	0,5	1,569750
10,666833	0,5	1,562200
10,675167	0,5	1,533650
10,683500	0,5	1,492500
10,691833	0,5	1,455200
10,700167	0,5	1,436250
10,708500	0,5	1,433050
10,716833	0,5	1,439300
10,725167	0,5	1,436950
10,733500	0,5	1,416750
10,741833	0,5	1,379050
10,750167	0,5	1,326400
10,758500	0,5	1,266700
10,766833	0,5	1,203100
10,775167	0,5	1,142950
10,783500	0,5	1,092800
10,791833	0,5	1,055050
10,800167	0,5	1,030600
10,808500	0,5	1,021700
10,816833	0,5	1,022600
10,825167	0,5	1,044550
10,833500	0,5	1,074250
10,841833	0,5	1,109500
10,850167	0,5	1,148800
10,858500	0,5	1,194000
10,866833	0,5	1,242500
10,875167	0,5	1,288350
10,883500	0,5	1,332150
10,891833	0,5	1,373850
10,900167	0,5	1,411400
10,908500	0,5	1,440000
10,916833	0,5	1,475200
10,925167	0,5	1,508150
10,933500	0,5	1,547400
10,941833	0,5	1,597250
10,950167	0,5	1,652900
10,958500	0,5	1,705850
10,966833	0,5	1,753050
10,975167	0,5	1,765400
10,983500	0,5	1,736750
10,991833	0,5	1,661300
11,000167	0,5	1,553500
11,008500	0,5	1,426350
11,016833	0,5	1,304350
11,025167	0,5	1,202000
11,033500	0,5	1,120750
11,041833	0,5	1,059750
11,050167	0,5	1,014800
11,058500	0,5	0,981900
11,066833	0,5	0,948950
11,075167	0,5	0,917900
11,083500	0,5	0,889300
11,091833	0,5	0,863800
11,100167	0,5	0,837700
11,108500	0,5	0,825600
11,116833	0,5	0,823500
11,125167	0,5	0,826500
11,133500	0,5	0,833150
11,141833	0,5	0,837800
11,150167	0,5	0,842500
11,158500	0,5	0,844550
11,166833	0,5	0,841900
11,175167	0,5	0,837450
11,183500	0,5	0,828800
11,191833	0,5	0,822100
11,200167	0,5	0,815450
11,208500	0,5	0,807650
11,216833	0,5	0,801950
11,225167	0,5	0,799300
11,233500	0,5	0,804400
11,241833	0,5	0,817450
11,250167	0,5	0,841550
11,258500	0,5	0,872600
11,266833	0,5	0,907750
11,275167	0,5	0,926350
11,283500	0,5	0,934450
11,291833	0,5	0,922850
11,300167	0,5	0,906100
11,308500	0,5	0,883450
11,316833	0,5	0,852500
11,325167	0,5	0,824700
11,333500	0,5	0,800550
11,341833	0,5	0,773800
11,350167	0,5	0,759350
11,358500	0,5	0,747050
11,366833	0,5	0,742000
11,375167	0,5	0,739450
11,383500	0,5	0,737350
11,391833	0,5	0,745100
11,400167	0,5	0,739250
11,408500	0,5	0,741700
11,416833	0,5	0,731200
11,425167	0,5	0,721050
11,433500	0,5	0,710850
11,441833	0,5	0,689800
11,450167	0,5	0,688650
11,458500	0,5	0,690850
11,466833	0,5	0,702350
11,475167	0,5	0,720500
11,483500	0,5	0,746200
11,491833	0,5	0,778150
11,500167	0,5	0,810900
11,508500	0,5	0,838700
11,516833	0,5	0,856250
11,525167	0,5	0,859300
11,533500	0,5	0,849500
11,541833	0,5	0,820950
11,550167	0,5	0,774050
11,558500	0,5	0,735950
11,566833	0,5	0,692950
11,575167	0,5	0,656550
11,583500	0,5	0,630000
11,591833	0,5	0,606550
11,600167	0,5	0,606950
11,608500	0,5	0,606050
11,616833	0,5	0,611700
11,625167	0,5	0,618500
11,633500	0,5	0,627100
11,641833	0,5	0,634350
11,650167	0,5	0,645150
11,658500	0,5	0,649400
11,666833	0,5	0,652000
11,675167	0,5	0,649350
11,683500	0,5	0,645750
11,691833	0,5	0,645500
11,700167	0,5	0,651900
11,708500	0,5	0,677800
11,716833	0,5	0,715500
11,725167	0,5	0,772650
11,733500	0,5	0,840650
11,741833	0,5	0,918750
11,750167	0,5	0,993200
11,758500	0,5	1,045000
11,766833	0,5	1,060950
11,775167	0,5	1,051050
11,783500	0,5	1,000950
11,791833	0,5	0,933900
11,800167	0,5	0,856450
11,808500	0,5	0,784050
11,816833	0,5	0,716750
11,825167	0,5	0,670650
11,833500	0,5	0,634850
11,841833	0,5	0,611900
11,850167	0,5	0,598850
11,858500	0,5	0,597550
11,866833	0,5	0,594700
11,875167	0,5	0,590650
11,883500	0,5	0,588850
11,891833	0,5	0,588650
11,900167	0,5	0,597400
11,908500	0,5	0,605700
11,916833	0,5	0,618850
11,925167	0,5	0,640550
11,933500	0,5	0,663250
11,941833	0,5	0,697550
11,950167	0,5	0,736200
11,958500	0,5	0,766750
11,966833	0,5	0,791850
11,975167	0,5	0,804900
11,983500	0,5	0,808550
11,991833	0,5	0,795400
12,000167	0,5	0,782950
12,008500	0,5	0,765550
12,016833	0,5	0,746700
12,025167	0,5	0,723950
12,033500	0,5	0,695400
12,041833	0,5	0,673450
12,050167	0,5	0,652000
12,058500	0,5	0,624150
12,066833	0,5	0,598500
12,075167	0,5	0,572950
12,083500	0,5	0,547450
12,091833	0,5	0,527350
12,100167	0,5	0,515400
12,108500	0,5	0,502250
12,116833	0,5	0,492150
12,125167	0,5	0,489550
12,133500	0,5	0,473850
12,141833	0,5	0,473950
12,150167	0,5	0,467600
12,158500	0,5	0,461300
12,166833	0,5	0,456650
12,175167	0,5	0,454850
12,183500	0,5	0,460650
12,191833	0,5	0,473400
12,200167	0,5	0,485000
12,208500	0,5	0,500850
12,216833	0,5	0,512300
12,225167	0,5	0,513300
12,233500	0,5	0,511900
12,241833	0,5	0,506250
12,250167	0,5	0,492550
12,258500	0,5	0,476350
12,266833	0,5	0,465200
12,275167	0,5	0,449050
12,283500	0,5	0,429100
12,291833	0,5	0,423300
12,300167	0,5	0,421700
12,308500	0,5	0,415400
12,316833	0,5	0,413450
12,325167	0,5	0,399950
12,333500	0,5	0,404700
12,341833	0,5	0,405700
12,350167	0,5	0,406250
12,358500	0,5	0,402600
12,366833	0,5	0,406450
12,375167	0,5	0,406850
12,383500	0,5	0,414300
12,391833	0,5	0,416450
12,400167	0,5	0,423100
12,408500	0,5	0,431200
12,416833	0,5	0,436650
12,425167	0,5	0,432900
12,433500	0,5	0,425700
12,441833	0,5	0,423800
12,450167	0,5	0,412550
12,458500	0,5	0,397000
12,466833	0,5	0,374900
12,475167	0,5	0,358250
12,483500	0,5	0,349800
12,491833	0,5	0,345400
12,500167	0,5	0,338350
12,508500	0,5	0,340800
12,516833	0,5	0,343150
12,525167	0,5	0,335250
12,533500	0,5	0,338450
12,541833	0,5	0,337950
12,550167	0,5	0,336050
12,558500	0,5	0,329800
12,566833	0,5	0,335400
12,575167	0,5	0,332800
12,583500	0,5	0,323950
12,591833	0,5	0,331200
12,600167	0,5	0,332800
12,608500	0,5	0,337600
12,616833	0,5	0,347800
12,625167	0,5	0,352250
12,633500	0,5	0,380950
12,641833	0,5	0,404600
12,650167	0,5	0,424750
12,658500	0,5	0,443300
12,666833	0,5	0,454900
12,675167	0,5	0,466950
12,683500	0,5	0,479950
12,691833	0,5	0,480250
12,700167	0,5	0,480600
12,708500	0,5	0,477400
12,716833	0,5	0,466900
12,725167	0,5	0,436950
12,733500	0,5	0,407950
12,741833	0,5	0,374800
12,750167	0,5	0,343650
12,758500	0,5	0,314200
12,766833	0,5	0,291900
12,775167	0,5	0,291450
12,783500	0,5	0,323200
12,791833	0,5	0,365500
12,800167	0,5	0,337850
12,808500	0,5	0,208900
12,816833	0,5	-0,003900
12,825167	0,5	-0,205100
12,833500	0,5	-0,363350
12,841833	0,5	-0,470250
12,850167	0,5	-0,540750
12,858500	0,5	-0,576500
12,866833	0,5	-0,609250
12,875167	0,5	-0,636900
12,883500	0,5	-0,649350
12,891833	0,5	-0,666100
12,900167	0,5	-0,681050
12,908500	0,5	-0,694400
12,916833	0,5	-0,710400
12,925167	0,5	-0,719400
12,933500	0,5	-0,717950
12,941833	0,5	-0,720250
12,950167	0,5	-0,724950
12,958500	0,5	-0,725600
12,966833	0,5	-0,726100
12,975167	0,5	-0,724650
12,983500	0,5	-0,723150
12,991833	0,5	-0,723000
13,000167	0,5	-0,717050
13,008500	0,5	-0,712300
13,016833	0,5	-0,707150
13,025167	0,5	-0,705550
13,033500	0,5	-0,690100
13,041833	0,5	-0,680150
13,050167	0,5	-0,669600
13,058500	0,5	-0,664050
13,066833	0,5	-0,646200
13,075167	0,5	-0,627300
13,083500	0,5	-0,601150
13,091833	0,5	-0,578200
13,100167	0,5	-0,547200
13,108500	0,5	-0,521550
13,116833	0,5	-0,494300
13,125167	0,5	-0,471500
13,133500	0,5	-0,449200
13,141833	0,5	-0,428250
13,150167	0,5	-0,414950
13,158500	0,5	-0,397750
13,166833	0,5	-0,397350
13,175167	0,5	-0,380950
13,183500	0,5	-0,367600
13,191833	0,5	-0,354800
13,200167	0,5	-0,342800
13,208500	0,5	-0,331800
13,216833	0,5	-0,320400
13,225167	0,5	-0,292650
13,233500	0,5	-0,273450
13,241833	0,5	-0,253600
13,250167	0,5	-0,237300
13,258500	0,5	-0,221800
13,266833	0,5	-0,209550
13,275167	0,5	-0,201200
13,283500	0,5	-0,196500
13,291833	0,5	-0,195200
13,300167	0,5	-0,187000
13,308500	0,5	-0,185800
13,316833	0,5	-0,197050
13,325167	0,5	-0,179600
13,333500	0,5	-0,161400
13,341833	0,5	-0,145250
13,350167	0,5	-0,122400
13,358500	0,5	-0,101750
13,366833	0,5	-0,069550
13,375167	0,5	-0,043100
13,383500	0,5	-0,019950
13,391833	0,5	-0,009700
13,400167	0,5	0,000250
13,408500	0,5	-0,000850
13,416833	0,5	-0,013100
13,425167	0,5	-0,024550
13,433500	0,5	-0,036250
13,441833	0,5	-0,053000
13,450167	0,5	-0,062800
13,458500	0,5	-0,071050
13,466833	0,5	-0,082900
13,475167	0,5	-0,075650
13,483500	0,5	-0,069900
13,491833	0,5	-0,059200
13,500167	0,5	-0,047550
13,508500	0,5	-0,027700
13,516833	0,5	0,009750
13,525167	0,5	0,058050
13,533500	0,5	0,101450
13,541833	0,5	0,151100
13,550167	0,5	0,193650
13,558500	0,5	0,223950
13,566833	0,5	0,239650
13,575167	0,5	0,243800
13,583500	0,5	0,244500
13,591833	0,5	0,232650
13,600167	0,5	0,222900
13,608500	0,5	0,199500
13,616833	0,5	0,176650
13,625167	0,5	0,176100
13,633500	0,5	0,173300
13,641833	0,5	0,182450
13,650167	0,5	0,201000
13,658500	0,5	0,231000
13,666833	0,5	0,285050
13,675167	0,5	0,328050
13,683500	0,5	0,369800
13,691833	0,5	0,396650
13,700167	0,5	0,413050
13,708500	0,5	0,408750
13,716833	0,5	0,403300
13,725167	0,5	0,393700
13,733500	0,5	0,379750
13,741833	0,5	0,368700
13,750167	0,5	0,355250
13,758500	0,5	0,340200
13,766833	0,5	0,336800
13,775167	0,5	0,339050
13,783500	0,5	0,347550
13,791833	0,5	0,358550
13,800167	0,5	0,366500
13,808500	0,5	0,370050
13,816833	0,5	0,379050
13,825167	0,5	0,380100
13,833500	0,5	0,371650
13,841833	0,5	0,360700
13,850167	0,5	0,348350
13,858500	0,5	0,342500
13,866833	0,5	0,327050
13,875167	0,5	0,319150
13,883500	0,5	0,310750
13,891833	0,5	0,312400
13,900167	0,5	0,310650
13,908500	0,5	0,305600
13,916833	0,5	0,308050
13,925167	0,5	0,306150
13,933500	0,5	0,296100
13,941833	0,5	0,285050
13,950167	0,5	0,270350
13,958500	0,5	0,263100
13,966833	0,5	0,254150
13,975167	0,5	0,247900
13,983500	0,5	0,237650
13,991833	0,5	0,233250
14,000167	0,5	0,229700
14,008500	0,5	0,220750
14,016833	0,5	0,220000
14,025167	0,5	0,215200
14,033500	0,5	0,216000
14,041833	0,5	0,211700
14,050167	0,5	0,205450
14,058500	0,5	0,197750
14,066833	0,5	0,197200
14,075167	0,5	0,192900
14,083500	0,5	0,190050
14,091833	0,5	0,176000
14,100167	0,5	0,170900
14,108500	0,5	0,161950
14,116833	0,5	0,162950
14,125167	0,5	0,160650
14,133500	0,5	0,158250
14,141833	0,5	0,156350
14,150167	0,5	0,153350
14,158500	0,5	0,147350
14,166833	0,5	0,141750
14,175167	0,5	0,135400
14,183500	0,5	0,129050
14,191833	0,5	0,126800
14,200167	0,5	0,108600
14,208500	0,5	0,111700
14,216833	0,5	0,111750
14,225167	0,5	0,108300
14,233500	0,5	0,100600
14,241833	0,5	0,091450
14,250167	0,5	0,088750
14,258500	0,5	0,093250
14,266833	0,5	0,092950
14,275167	0,5	0,096350
14,283500	0,5	0,091400
14,291833	0,5	0,092800
14,300167	0,5	0,086900
14,308500	0,5	0,086300
14,316833	0,5	0,089700
14,325167	0,5	0,084250
14,333500	0,5	0,090400
14,341833	0,5	0,085600
14,350167	0,5	0,075250
14,358500	0,5	0,078400
14,366833	0,5	0,075350
14,375167	0,5	0,069700
14,383500	0,5	0,060900
14,391833	0,5	0,040150
14,400167	0,5	0,039650
14,408500	0,5	0,037250
14,416833	0,5	0,037700
14,425167	0,5	0,034750
14,433500	0,5	0,040500
14,441833	0,5	0,035650
14,450167	0,5	0,037850
14,458500	0,5	0,032450
14,466833	0,5	0,031950
14,475167	0,5	0,029800
14,483500	0,5	0,032750
14,491833	0,5	0,028350
14,500167	0,5	0,012050
14,508500	0,5	0,018600
14,516833	0,5	0,015200
14,525167	0,5	0,007500
14,533500	0,5	-0,004150
14,541833	0,5	-0,016900
14,550167	0,5	-0,015500
14,558500	0,5	-0,012400
14,566833	0,5	-0,017100
14,575167	0,5	-0,014850
14,583500	0,5	-0,016500
14,591833	0,5	-0,015000
14,600167	0,5	-0,024200
14,608500	0,5	-0,027750
14,616833	0,5	-0,032350
14,625167	0,5	-0,042350
14,633500	0,5	-0,041950
14,641833	0,5	-0,050600
14,650167	0,5	-0,057600
14,658500	0,5	-0,056000
14,666833	0,5	-0,061000
14,675167	0,5	-0,067850
14,683500	0,5	-0,072500
14,691833	0,5	-0,085250
14,700167	0,5	-0,083750
14,708500	0,5	-0,086300
14,716833	0,5	-0,089000
14,725167	0,5	-0,091500
14,733500	0,5	-0,092850
14,741833	0,5	-0,098350
14,750167	0,5	-0,096400
14,758500	0,5	-0,105550
14,766833	0,5	-0,102550
14,775167	0,5	-0,110000
14,783500	0,5	-0,106600
14,791833	0,5	-0,118300
14,800167	0,5	-0,115500
14,808500	0,5	-0,115450
14,816833	0,5	-0,118650
14,825167	0,5	-0,129150
14,833500	0,5	-0,138850
14,841833	0,5	-0,142550
14,850167	0,5	-0,141850
14,858500	0,5	-0,144350
14,866833	0,5	-0,149250
14,875167	0,5	-0,150450
14,883500	0,5	-0,150100
14,891833	0,5	-0,151600
14,900167	0,5	-0,157900
14,908500	0,5	-0,158900
14,916833	0,5	-0,163400
14,925167	0,5	-0,159100
14,933500	0,5	-0,165600
14,941833	0,5	-0,169000
14,950167	0,5	-0,167450
14,958500	0,5	-0,167950
14,966833	0,5	-0,175100
14,975167	0,5	-0,182750
14,983500	0,5	-0,191250
14,991833	0,5	-0,195000
15,000167	0,5	-0,194000
15,008500	0,5	-0,189100
15,016833	0,5	-0,189100
15,025167	0,5	-0,187500
15,033500	0,5	-0,186750
15,041833	0,5	-0,186650
15,050167	0,5	-0,178250
15,058500	0,5	-0,175550
15,066833	0,5	-0,165250
15,075167	0,5	-0,156050
15,083500	0,5	-0,158850
15,091833	0,5	-0,155550
15,100167	0,5	-0,144600
15,108500	0,5	-0,144100
15,116833	0,5	-0,149200
15,125167	0,5	-0,169200
15,133500	0,5	-0,174650
15,141833	0,5	-0,183550
15,150167	0,5	-0,186800
15,158500	0,5	-0,194550
15,166833	0,5	-0,198200
15,175167	0,5	-0,202650
15,183500	0,5	-0,201250
15,191833	0,5	-0,204700
15,200167	0,5	-0,207300
15,208500	0,5	-0,207800
15,216833	0,5	-0,213400
15,225167	0,5	-0,217350
15,233500	0,5	-0,237600
15,241833	0,5	-0,233600
15,250167	0,5	-0,238950
15,258500	0,5	-0,246050
15,266833	0,5	-0,255850
15,275167	0,5	-0,265100
15,283500	0,5	-0,263850
15,291833	0,5	-0,267450
15,300167	0,5	-0,264100
15,308500	0,5	-0,256500
15,316833	0,5	-0,255600
15,325167	0,5	-0,252650
15,333500	0,5	-0,252750
15,341833	0,5	-0,254550
15,350167	0,5	-0,254750
15,358500	0,5	-0,260800
15,366833	0,5	-0,254600
15,375167	0,5	-0,258000
15,383500	0,5	-0,269450
15,391833	0,5	-0,258400
15,400167	0,5	-0,252750
15,408500	0,5	-0,252500
15,416833	0,5	-0,250450
15,425167	0,5	-0,260650
15,433500	0,5	-0,242050
15,441833	0,5	-0,242000
15,450167	0,5	-0,236550
15,458500	0,5	-0,236050
15,466833	0,5	-0,239400
15,475167	0,5	-0,250850
15,483500	0,5	-0,259650
15,491833	0,5	-0,272500
15,500167	0,5	-0,290650
15,508500	0,5	-0,309700
15,516833	0,5	-0,317900
15,525167	0,5	-0,334750
15,533500	0,5	-0,338250
15,541833	0,5	-0,338050
15,550167	0,5	-0,341650
15,558500	0,5	-0,348550
15,566833	0,5	-0,366350
15,575167	0,5	-0,366950
15,583500	0,5	-0,372900
15,591833	0,5	-0,368500
15,600167	0,5	-0,368150
15,608500	0,5	-0,361300
15,616833	0,5	-0,359150
15,625167	0,5	-0,358450
15,633500	0,5	-0,362250
15,641833	0,5	-0,362500
15,650167	0,5	-0,363150
15,658500	0,5	-0,369050
15,666833	0,5	-0,367900
15,675167	0,5	-0,375400
15,683500	0,5	-0,379000
15,691833	0,5	-0,375850
15,700167	0,5	-0,380050
15,708500	0,5	-0,389700
15,716833	0,5	-0,399650
15,725167	0,5	-0,403450
15,733500	0,5	-0,399350
15,741833	0,5	-0,404250
15,750167	0,5	-0,403400
15,758500	0,5	-0,405450
15,766833	0,5	-0,400800
15,775167	0,5	-0,403650
15,783500	0,5	-0,412650
15,791833	0,5	-0,419150
15,800167	0,5	-0,419650
15,808500	0,5	-0,425650
15,816833	0,5	-0,424750
15,825167	0,5	-0,437250
15,833500	0,5	-0,423050
15,841833	0,5	-0,432550
15,850167	0,5	-0,427200
15,858500	0,5	-0,436450
15,866833	0,5	-0,447650
15,875167	0,5	-0,442800
15,883500	0,5	-0,444050
15,891833	0,5	-0,445050
15,900167	0,5	-0,447800
15,908500	0,5	-0,448700
15,916833	0,5	-0,453350
15,925167	0,5	-0,451800
15,933500	0,5	-0,456650
15,941833	0,5	-0,451650
15,950167	0,5	-0,451650
15,958500	0,5	-0,445650
15,966833	0,5	-0,452600
15,975167	0,5	-0,448400
15,983500	0,5	-0,454850
15,991833	0,5	-0,460800
16,000167	0,5	-0,468500
16,008500	0,5	-0,486100
16,016833	0,5	-0,498750
16,025167	0,5	-0,497800
16,033500	0,5	-0,502300
16,041833	0,5	-0,503150
16,050167	0,5	-0,507000
16,058500	0,5	-0,504550
16,066833	0,5	-0,503900
16,075167	0,5	-0,511000
16,083500	0,5	-0,511200
16,091833	0,5	-0,509300
16,100167	0,5	-0,504400
16,108500	0,5	-0,508050
16,116833	0,5	-0,515950
16,125167	0,5	-0,510500
16,133500	0,5	-0,507800
16,141833	0,5	-0,511700
16,150167	0,5	-0,517600
16,158500	0,5	-0,529800
16,166833	0,5	-0,527950
16,175167	0,5	-0,531700
16,183500	0,5	-0,530600
16,191833	0,5	-0,534100
16,200167	0,5	-0,529950
16,208500	0,5	-0,531800
16,216833	0,5	-0,531300
16,225167	0,5	-0,532650
16,233500	0,5	-0,539000
16,241833	0,5	-0,542050
16,250167	0,5	-0,544400
16,258500	0,5	-0,547650
16,266833	0,5	-0,563200
16,275167	0,5	-0,559100
16,283500	0,5	-0,558900
16,291833	0,5	-0,564000
16,300167	0,5	-0,571400
16,308500	0,5	-0,584400
16,316833	0,5	-0,579300
16,325167	0,5	-0,576550
16,333500	0,5	-0,581150
16,341833	0,5	-0,577850
16,350167	0,5	-0,582500
16,358500	0,5	-0,581450
16,366833	0,5	-0,577250
16,375167	0,5	-0,584300
16,383500	0,5	-0,586050
16,391833	0,5	-0,585950
16,400167	0,5	-0,578550
16,408500	0,5	-0,586650
16,416833	0,5	-0,590650
16,425167	0,5	-0,585550
16,433500	0,5	-0,585650
16,441833	0,5	-0,592700
16,450167	0,5	-0,602450
16,458500	0,5	-0,612500
16,466833	0,5	-0,599600
16,475167	0,5	-0,618200
16,483500	0,5	-0,617500
16,491833	0,5	-0,623400
16,500167	0,5	-0,619250
16,508500	0,5	-0,621950
16,516833	0,5	-0,616300
16,525167	0,5	-0,615050
16,533500	0,5	-0,612500
16,541833	0,5	-0,609650
16,550167	0,5	-0,601350
16,558500	0,5	-0,614400
16,566833	0,5	-0,603850
16,575167	0,5	-0,606550
16,583500	0,5	-0,606050
16,591833	0,5	-0,611150
16,600167	0,5	-0,629800
16,608500	0,5	-0,626450
16,616833	0,5	-0,631650
16,625167	0,5	-0,629300
16,633500	0,5	-0,635000
16,641833	0,5	-0,631300
16,650167	0,5	-0,635750
16,658500	0,5	-0,631950
16,666833	0,5	-0,637900
16,675167	0,5	-0,639050
16,683500	0,5	-0,637850
16,691833	0,5	-0,631350
16,700167	0,5	-0,633900
16,708500	0,5	-0,644250
16,716833	0,5	-0,637100
16,725167	0,5	-0,639750
16,733500	0,5	-0,646100
16,741833	0,5	-0,654600
16,750167	0,5	-0,669400
16,758500	0,5	-0,668200
16,766833	0,5	-0,661850
16,775167	0,5	-0,666250
16,783500	0,5	-0,662200
16,791833	0,5	-0,661800
16,800167	0,5	-0,660750
16,808500	0,5	-0,655200
16,816833	0,5	-0,649300
16,825167	0,5	-0,651300
16,833500	0,5	-0,646450
16,841833	0,5	-0,643800
16,850167	0,5	-0,646750
16,858500	0,5	-0,646100
16,866833	0,5	-0,640050
16,875167	0,5	-0,647700
16,883500	0,5	-0,643350
16,891833	0,5	-0,657350
16,900167	0,5	-0,658800
16,908500	0,5	-0,649450
16,916833	0,5	-0,640050
16,925167	0,5	-0,625050
16,933500	0,5	-0,609600
16,941833	0,5	-0,585850
16,950167	0,5	-0,558000
16,958500	0,5	-0,529250
16,966833	0,5	-0,509250
16,975167	0,5	-0,474000
16,983500	0,5	-0,438950
16,991833	0,5	-0,413350
17,000167	0,5	-0,409600
17,008500	0,5	-0,392350
17,016833	0,5	-0,393500
17,025167	0,5	-0,409050
17,033500	0,5	-0,436900
17,041833	0,5	-0,475350
17,050167	0,5	-0,509550
17,058500	0,5	-0,534500
17,066833	0,5	-0,559500
17,075167	0,5	-0,572700
17,083500	0,5	-0,581450
17,091833	0,5	-0,587950
17,100167	0,5	-0,586100
17,108500	0,5	-0,585850
17,116833	0,5	-0,583250
17,125167	0,5	-0,588150
17,133500	0,5	-0,582250
17,141833	0,5	-0,591750
17,150167	0,5	-0,599700
17,158500	0,5	-0,597100
17,166833	0,5	-0,597350
17,175167	0,5	-0,605750
17,183500	0,5	-0,607500
17,191833	0,5	-0,616650
17,200167	0,5	-0,607100
17,208500	0,5	-0,601950
17,216833	0,5	-0,599200
17,225167	0,5	-0,594700
17,233500	0,5	-0,586500
17,241833	0,5	-0,583600
17,250167	0,5	-0,579050
17,258500	0,5	-0,572450
17,266833	0,5	-0,579650
17,275167	0,5	-0,574700
17,283500	0,5	-0,560100
17,291833	0,5	-0,571850
17,300167	0,5	-0,566400
17,308500	0,5	-0,557650
17,316833	0,5	-0,554450
17,325167	0,5	-0,548450
17,333500	0,5	-0,563000
17,341833	0,5	-0,559950
17,350167	0,5	-0,557000
17,358500	0,5	-0,553600
17,366833	0,5	-0,553900
17,375167	0,5	-0,551400
17,383500	0,5	-0,552300
17,391833	0,5	-0,553800
17,400167	0,5	-0,550800
17,408500	0,5	-0,554350
17,416833	0,5	-0,556600
17,425167	0,5	-0,559850
17,433500	0,5	-0,553100
17,441833	0,5	-0,572100
17,450167	0,5	-0,558800
17,458500	0,5	-0,561650
17,466833	0,5	-0,562250
17,475167	0,5	-0,573000
17,483500	0,5	-0,582850
17,491833	0,5	-0,583550
17,500167	0,5	-0,574700
17,508500	0,5	-0,580800
17,516833	0,5	-0,582700
17,525167	0,5	-0,585950
17,533500	0,5	-0,583800
17,541833	0,5	-0,585650
17,550167	0,5	-0,584800
17,558500	0,5	-0,590950
17,566833	0,5	-0,596600
17,575167	0,5	-0,586700
17,583500	0,5	-0,587350
17,591833	0,5	-0,599000
17,600167	0,5	-0,590350
17,608500	0,5	-0,589750
17,616833	0,5	-0,597100
17,625167	0,5	-0,602700
17,633500	0,5	-0,624150
17,641833	0,5	-0,614500
17,650167	0,5	-0,619000
17,658500	0,5	-0,622050
17,666833	0,5	-0,625600
17,675167	0,5	-0,623100
17,683500	0,5	-0,624950
17,691833	0,5	-0,624500
17,700167	0,5	-0,622900
17,708500	0,5	-0,626350
17,716833	0,5	-0,627700
17,725167	0,5	-0,628550
17,733500	0,5	-0,632650
17,741833	0,5	-0,633800
17,750167	0,5	-0,622800
17,758500	0,5	-0,636500
17,766833	0,5	-0,639500
17,775167	0,5	-0,650450
17,783500	0,5	-0,658150
17,791833	0,5	-0,660850
17,800167	0,5	-0,657400
17,808500	0,5	-0,657500
17,816833	0,5	-0,655250
17,825167	0,5	-0,659800
17,833500	0,5	-0,656000
17,841833	0,5	-0,658050
17,850167	0,5	-0,659000
17,858500	0,5	-0,663000
17,866833	0,5	-0,660850
17,875167	0,5	-0,667800
17,883500	0,5	-0,674750
17,891833	0,5	-0,669050
17,900167	0,5	-0,666950
17,908500	0,5	-0,672750
17,916833	0,5	-0,682850
17,925167	0,5	-0,699250
17,933500	0,5	-0,710300
17,941833	0,5	-0,707200
17,950167	0,5	-0,713700
17,958500	0,5	-0,718950
17,966833	0,5	-0,720000
17,975167	0,5	-0,721650
17,983500	0,5	-0,729950
17,991833	0,5	-0,733950
18,000167	0,5	-0,741700
18,008500	0,5	-0,745450
18,016833	0,5	-0,746500
18,025167	0,5	-0,757650
18,033500	0,5	-0,767150
18,041833	0,5	-0,762500
18,050167	0,5	-0,768600
18,058500	0,5	-0,779650
18,066833	0,5	-0,794150
18,075167	0,5	-0,808900
18,083500	0,5	-0,807000
18,091833	0,5	-0,814450
18,100167	0,5	-0,815300
18,108500	0,5	-0,821200
18,116833	0,5	-0,824100
18,125167	0,5	-0,831200
18,133500	0,5	-0,831550
18,141833	0,5	-0,839950
18,150167	0,5	-0,844500
18,158500	0,5	-0,848400
18,166833	0,5	-0,843850
18,175167	0,5	-0,865400
18,183500	0,5	-0,860050
18,191833	0,5	-0,866950
18,200167	0,5	-0,872500
18,208500	0,5	-0,882050
18,216833	0,5	-0,901400
18,225167	0,5	-0,899850
18,233500	0,5	-0,902150
18,241833	0,5	-0,907950
18,250167	0,5	-0,916200
18,258500	0,5	-0,918100
18,266833	0,5	-0,922250
18,275167	0,5	-0,919700
18,283500	0,5	-0,922800
18,291833	0,5	-0,925050
18,300167	0,5	-0,933900
18,308500	0,5	-0,931200
18,316833	0,5	-0,932950
18,325167	0,5	-0,947300
18,333500	0,5	-0,941050
18,341833	0,5	-0,935250
18,350167	0,5	-0,949450
18,358500	0,5	-0,955300
18,366833	0,5	-0,973900
18,375167	0,5	-0,967950
18,383500	0,5	-0,971850
18,391833	0,5	-0,972750
18,400167	0,5	-0,977100
18,408500	0,5	-0,979550
18,416833	0,5	-0,980300
18,425167	0,5	-0,982200
18,433500	0,5	-0,981000
18,441833	0,5	-0,985400
18,450167	0,5	-0,993850
18,458500	0,5	-0,990300
18,466833	0,5	-0,989150
18,475167	0,5	-1,004300
18,483500	0,5	-0,994750
18,491833	0,5	-1,000750
18,500167	0,5	-1,007850
18,508500	0,5	-1,020350
18,516833	0,5	-1,029000
18,525167	0,5	-1,025300
18,533500	0,5	-1,024950
18,541833	0,5	-1,031550
18,550167	0,5	-1,038350
18,558500	0,5	-1,038100
18,566833	0,5	-1,035550
18,575167	0,5	-1,034550
18,583500	0,5	-1,038950
18,591833	0,5	-1,036750
18,600167	0,5	-1,038750
18,608500	0,5	-1,028400
18,616833	0,5	-1,034500
18,625167	0,5	-1,031600
18,633500	0,5	-1,025250
18,641833	0,5	-1,027800
18,650167	0,5	-1,042400
18,658500	0,5	-1,052950
18,666833	0,5	-1,063550
18,675167	0,5	-1,060950
18,683500	0,5	-1,068650
18,691833	0,5	-1,065850
18,700167	0,5	-1,069400
18,708500	0,5	-1,056950
18,716833	0,5	-1,054150
18,725167	0,5	-1,050650
18,733500	0,5	-1,045900
18,741833	0,5	-1,048350
18,750167	0,5	-1,039450
18,758500	0,5	-1,044650
18,766833	0,5	-1,061600
18,775167	0,5	-1,065650
18,783500	0,5	-1,073100
18,791833	0,5	-1,085150
18,800167	0,5	-1,095300
18,808500	0,5	-1,112900
18,816833	0,5	-1,120150
18,825167	0,5	-1,123650
18,833500	0,5	-1,113350
18,841833	0,5	-1,123300
18,850167	0,5	-1,123350
18,858500	0,5	-1,125250
18,866833	0,5	-1,124800
18,875167	0,5	-1,122450
18,883500	0,5	-1,126400
18,891833	0,5	-1,119900
18,900167	0,5	-1,120350
18,908500	0,5	-1,125650
18,916833	0,5	-1,130300
18,925167	0,5	-1,127400
18,933500	0,5	-1,131000
18,941833	0,5	-1,135000
18,950167	0,5	-1,152550
18,958500	0,5	-1,155700
18,966833	0,5	-1,158100
18,975167	0,5	-1,141550
18,983500	0,5	-1,145600
18,991833	0,5	-1,137600
19,000167	0,5	-1,140100
19,008500	0,5	-1,137900
19,016833	0,5	-1,142400
19,025167	0,5	-1,143100
19,033500	0,5	-1,148900
19,041833	0,5	-1,157700
19,050167	0,5	-1,154700
19,058500	0,5	-1,169900
19,066833	0,5	-1,174600
19,075167	0,5	-1,169850
19,083500	0,5	-1,173300
19,091833	0,5	-1,186450
19,100167	0,5	-1,201100
19,108500	0,5	-1,203300
19,116833	0,5	-1,199050
19,125167	0,5	-1,207500
19,133500	0,5	-1,198950
19,141833	0,5	-1,209000
19,150167	0,5	-1,199200
19,158500	0,5	-1,196400
19,166833	0,5	-1,185000
19,175167	0,5	-1,189200
19,183500	0,5	-1,185500
19,191833	0,5	-1,179600
19,200167	0,5	-1,186250
19,208500	0,5	-1,209650
19,216833	0,5	-1,204000
19,225167	0,5	-1,209250
19,233500	0,5	-1,218650
19,241833	0,5	-1,238050
19,250167	0,5	-1,252350
19,258500	0,5	-1,235950
19,266833	0,5	-1,234450
19,275167	0,5	-1,218100
19,283500	0,5	-1,208800
19,291833	0,5	-1,194950
19,300167	0,5	-1,190800
19,308500	0,5	-1,189850
19,316833	0,5	-1,201000
19,325167	0,5	-1,216250
19,333500	0,5	-1,241400
19,341833	0,5	-1,244600
19,350167	0,5	-1,265750
19,358500	0,5	-1,265700
19,366833	0,5	-1,261900
19,375167	0,5	-1,259900
19,383500	0,5	-1,267850
19,391833	0,5	-1,279100
19,400167	0,5	-1,278800
19,408500	0,5	-1,273200
19,416833	0,5	-1,250700
19,425167	0,5	-1,220050
19,433500	0,5	-1,170750
19,441833	0,5	-1,118850
19,450167	0,5	-1,063700
19,458500	0,5	-1,044700
19,466833	0,5	-1,050250
19,475167	0,5	-1,093350
19,483500	0,5	-1,147650
19,491833	0,5	-1,193650
19,500167	0,5	-1,252650
19,508500	0,5	-1,278650
19,516833	0,5	-1,295000
19,525167	0,5	-1,309250
19,533500	0,5	-1,327850
19,541833	0,5	-1,346000
19,550167	0,5	-1,338900
19,558500	0,5	-1,335950
19,566833	0,5	-1,336050
19,575167	0,5	-1,339750
19,583500	0,5	-1,342300
19,591833	0,5	-1,340950
19,600167	0,5	-1,347850
19,608500	0,5	-1,348850
19,616833	0,5	-1,355950
19,625167	0,5	-1,354250
19,633500	0,5	-1,353150
19,641833	0,5	-1,349250
19,650167	0,5	-1,366100
19,658500	0,5	-1,343650
19,666833	0,5	-1,345350
19,675167	0,5	-1,340000
19,683500	0,5	-1,343300
19,691833	0,5	-1,341750
19,700167	0,5	-1,306600
19,708500	0,5	-1,274750
19,716833	0,5	-1,235350
19,725167	0,5	-1,205650
19,733500	0,5	-1,202850
19,741833	0,5	-1,216100
19,750167	0,5	-1,234500
19,758500	0,5	-1,270000
19,766833	0,5	-1,297800
19,775167	0,5	-1,322450
19,783500	0,5	-1,336300
19,791833	0,5	-1,361850
19,800167	0,5	-1,374950
19,808500	0,5	-1,381500
19,816833	0,5	-1,396600
19,825167	0,5	-1,406900
19,833500	0,5	-1,435250
19,841833	0,5	-1,442200
19,850167	0,5	-1,443950
19,858500	0,5	-1,439850
19,866833	0,5	-1,443100
19,875167	0,5	-1,437500
19,883500	0,5	-1,438150
19,891833	0,5	-1,436050
19,900167	0,5	-1,435500
19,908500	0,5	-1,432200
19,916833	0,5	-1,432350
19,925167	0,5	-1,423900
19,933500	0,5	-1,425850
19,941833	0,5	-1,435200
19,950167	0,5	-1,428800
19,958500	0,5	-1,420100
19,966833	0,5	-1,427650
19,975167	0,5	-1,432400
19,983500	0,5	-1,446650
19,991833	0,5	-1,442900
20,000167	0,5	-1,440100
20,008500	0,5	-1,437300
20,016833	0,5	-1,439000
20,025167	0,5	-1,437400
20,033500	0,5	-1,441150
20,041833	0,5	-1,441700
20,050167	0,5	-1,439400
20,058500	0,5	-1,439950
20,066833	0,5	-1,436750
20,075167	0,5	-1,428300
20,083500	0,5	-1,431700
20,091833	0,5	-1,440200
20,100167	0,5	-1,430750
20,108500	0,5	-1,427600
20,116833	0,5	-1,430050
20,125167	0,5	-1,450800
20,133500	0,5	-1,456650
20,141833	0,5	-1,453000
20,150167	0,5	-1,449000
20,158500	0,5	-1,449950
20,166833	0,5	-1,445300
20,175167	0,5	-1,442650
20,183500	0,5	-1,439750
20,191833	0,5	-1,435850
20,200167	0,5	-1,435000
20,208500	0,5	-1,433300
20,216833	0,5	-1,424700
20,225167	0,5	-1,414000
20,233500	0,5	-1,428350
20,241833	0,5	-1,412500
20,250167	0,5	-1,413650
20,258500	0,5	-1,411200
20,266833	0,5	-1,422300
20,275167	0,5	-1,434900
20,283500	0,5	-1,427600
20,291833	0,5	-1,422050
20,300167	0,5	-1,425450
20,308500	0,5	-1,424000
20,316833	0,5	-1,426300
20,325167	0,5	-1,425500
20,333500	0,5	-1,423650
20,341833	0,5	-1,420100
20,350167	0,5	-1,415200
20,358500	0,5	-1,418550
20,366833	0,5	-1,407400
20,375167	0,5	-1,406800
20,383500	0,5	-1,422400
20,391833	0,5	-1,416500
20,400167	0,5	-1,413900
20,408500	0,5	-1,424800
20,416833	0,5	-1,429300
20,425167	0,5	-1,458350
20,433500	0,5	-1,447500
20,441833	0,5	-1,449100
20,450167	0,5	-1,447450
20,458500	0,5	-1,448050
20,466833	0,5	-1,446350
20,475167	0,5	-1,447600
20,483500	0,5	-1,441550
20,491833	0,5	-1,444700
20,500167	0,5	-1,447650
20,508500	0,5	-1,439300
20,516833	0,5	-1,428450
20,525167	0,5	-1,431750
20,533500	0,5	-1,436900
20,541833	0,5	-1,433400
20,550167	0,5	-1,437000
20,558500	0,5	-1,441600
20,566833	0,5	-1,454950
20,575167	0,5	-1,462950
20,583500	0,5	-1,459300
20,591833	0,5	-1,452050
20,600167	0,5	-1,455500
20,608500	0,5	-1,452800
20,616833	0,5	-1,453100
20,625167	0,5	-1,455250
20,633500	0,5	-1,449400
20,641833	0,5	-1,446400
20,650167	0,5	-1,442700
20,658500	0,5	-1,427050
20,666833	0,5	-1,418450
20,675167	0,5	-1,424200
20,683500	0,5	-1,423000
20,691833	0,5	-1,425350
20,700167	0,5	-1,427350
20,708500	0,5	-1,437950
20,716833	0,5	-1,444350
20,725167	0,5	-1,455350
20,733500	0,5	-1,440200
20,741833	0,5	-1,439100
20,750167	0,5	-1,425800
20,758500	0,5	-1,423750
20,766833	0,5	-1,418350
20,775167	0,5	-1,416700
20,783500	0,5	-1,414850
20,791833	0,5	-1,411300
20,800167	0,5	-1,406750
20,808500	0,5	-1,389350
20,816833	0,5	-1,376750
20,825167	0,5	-1,389600
20,833500	0,5	-1,381300
20,841833	0,5	-1,383500
20,850167	0,5	-1,393650
20,858500	0,5	-1,398950
20,866833	0,5	-1,407300
20,875167	0,5	-1,402150
20,883500	0,5	-1,402350
20,891833	0,5	-1,390350
20,900167	0,5	-1,390550
20,908500	0,5	-1,384250
20,916833	0,5	-1,382700
20,925167	0,5	-1,386350
20,933500	0,5	-1,379800
20,941833	0,5	-1,378800
20,950167	0,5	-1,359850
20,958500	0,5	-1,343600
20,966833	0,5	-1,345050
20,975167	0,5	-1,346250
20,983500	0,5	-1,341250
20,991833	0,5	-1,348350
21,000167	0,5	-1,344200
21,008500	0,5	-1,362500
21,016833	0,5	-1,361600
21,025167	0,5	-1,366150
21,033500	0,5	-1,353550
21,041833	0,5	-1,353300
21,050167	0,5	-1,350050
21,058500	0,5	-1,345550
21,066833	0,5	-1,333300
21,075167	0,5	-1,328900
21,083500	0,5	-1,320450
21,091833	0,5	-1,313550
21,100167	0,5	-1,287550
21,108500	0,5	-1,272800
21,116833	0,5	-1,278600
21,125167	0,5	-1,281500
21,133500	0,5	-1,275800
21,141833	0,5	-1,278500
21,150167	0,5	-1,294850
21,158500	0,5	-1,297350
21,166833	0,5	-1,293900
21,175167	0,5	-1,285800
21,183500	0,5	-1,288300
21,191833	0,5	-1,274950
21,200167	0,5	-1,275300
21,208500	0,5	-1,267650
21,216833	0,5	-1,266300
21,225167	0,5	-1,257450
21,233500	0,5	-1,250450
21,241833	0,5	-1,228200
21,250167	0,5	-1,206750
21,258500	0,5	-1,196050
21,266833	0,5	-1,195600
21,275167	0,5	-1,191100
21,283500	0,5	-1,186400
21,291833	0,5	-1,197300
21,300167	0,5	-1,202850
21,308500	0,5	-1,194800
21,316833	0,5	-1,182600
21,325167	0,5	-1,186650
21,333500	0,5	-1,176350
21,341833	0,5	-1,173400
21,350167	0,5	-1,166550
21,358500	0,5	-1,161200
21,366833	0,5	-1,153900
21,375167	0,5	-1,143650
21,383500	0,5	-1,137200
21,391833	0,5	-1,107700
21,400167	0,5	-1,084200
21,408500	0,5	-1,082750
21,416833	0,5	-1,076600
21,425167	0,5	-1,077950
21,433500	0,5	-1,073900
21,441833	0,5	-1,063550
21,450167	0,5	-1,065450
21,458500	0,5	-1,033350
21,466833	0,5	-1,017500
21,475167	0,5	-0,980800
21,483500	0,5	-0,962100
21,491833	0,5	-0,930950
21,500167	0,5	-0,926300
21,508500	0,5	-0,915300
21,516833	0,5	-0,920500
21,525167	0,5	-0,919300
21,533500	0,5	-0,905050
21,541833	0,5	-0,890100
21,550167	0,5	-0,884200
21,558500	0,5	-0,890000
21,566833	0,5	-0,885250
21,575167	0,5	-0,887500
21,583500	0,5	-0,891600
21,591833	0,5	-0,896050
21,600167	0,5	-0,886200
21,608500	0,5	-0,871100
21,616833	0,5	-0,860250
21,625167	0,5	-0,851400
21,633500	0,5	-0,830900
21,641833	0,5	-0,817200
21,650167	0,5	-0,803950
21,658500	0,5	-0,787950
21,666833	0,5	-0,770900
21,675167	0,5	-0,752300
21,683500	0,5	-0,718850
21,691833	0,5	-0,690600
21,700167	0,5	-0,685150
21,708500	0,5	-0,667950
21,716833	0,5	-0,664500
21,725167	0,5	-0,653500
21,733500	0,5	-0,649850
21,741833	0,5	-0,641050
21,750167	0,5	-0,627500
21,758500	0,5	-0,602600
21,766833	0,5	-0,589250
21,775167	0,5	-0,564250
21,783500	0,5	-0,547550
21,791833	0,5	-0,522700
21,800167	0,5	-0,509300
21,808500	0,5	-0,493750
21,816833	0,5	-0,484650
21,825167	0,5	-0,459250
21,833500	0,5	-0,419600
21,841833	0,5	-0,401050
21,850167	0,5	-0,387600
21,858500	0,5	-0,360400
21,866833	0,5	-0,348000
21,875167	0,5	-0,335200
21,883500	0,5	-0,324650
21,891833	0,5	-0,309300
21,900167	0,5	-0,284100
21,908500	0,5	-0,262050
21,916833	0,5	-0,238300
21,925167	0,5	-0,215850
21,933500	0,5	-0,188900
21,941833	0,5	-0,168000
21,950167	0,5	-0,140400
21,958500	0,5	-0,118550
21,966833	0,5	-0,097350
21,975167	0,5	-0,057300
21,983500	0,5	-0,026650
21,991833	0,5	-0,010800
22,000167	0,5	0,025600
22,008500	0,5	0,054200
22,016833	0,5	0,068300
22,025167	0,5	0,100500
22,033500	0,5	0,120400
22,041833	0,5	0,160650
22,050167	0,5	0,189750
22,058500	0,5	0,226900
22,066833	0,5	0,242450
22,075167	0,5	0,275200
22,083500	0,5	0,290500
22,091833	0,5	0,315400
22,100167	0,5	0,335900
22,108500	0,5	0,355650
22,116833	0,5	0,377250
22,125167	0,5	0,409150
22,133500	0,5	0,428600
22,141833	0,5	0,468550
22,150167	0,5	0,507400
22,158500	0,5	0,539250
22,166833	0,5	0,572700
22,175167	0,5	0,591850
22,183500	0,5	0,632800
22,191833	0,5	0,673800
22,200167	0,5	0,717650
22,208500	0,5	0,751750
22,216833	0,5	0,803800
22,225167	0,5	0,846450
22,233500	0,5	0,894100
22,241833	0,5	0,933000
22,250167	0,5	0,977850
22,258500	0,5	1,016400
22,266833	0,5	1,050000
22,275167	0,5	1,098750
22,283500	0,5	1,132300
22,291833	0,5	1,197550
22,300167	0,5	1,244700
22,308500	0,5	1,289950
22,316833	0,5	1,333100
22,325167	0,5	1,374200
22,333500	0,5	1,436200
22,341833	0,5	1,492550
22,350167	0,5	1,534600
22,358500	0,5	1,586950
22,366833	0,5	1,630200
22,375167	0,5	1,682850
22,383500	0,5	1,728250
22,391833	0,5	1,783450
22,400167	0,5	1,834850
22,408500	0,5	1,877850
22,416833	0,5	1,925800
22,425167	0,5	1,981900
22,433500	0,5	2,053400
22,441833	0,5	2,126800
22,450167	0,5	2,195650
22,458500	0,5	2,257350
22,466833	0,5	2,323850
22,475167	0,5	2,384600
22,483500	0,5	2,471950
22,491833	0,5	2,543700
22,500167	0,5	2,612000
22,508500	0,5	2,679500
22,516833	0,5	2,756500
22,525167	0,5	2,825000
22,533500	0,5	2,893650
22,541833	0,5	2,950950
22,550167	0,5	3,011600
22,558500	0,5	3,051300
22,566833	0,5	3,105600
22,575167	0,5	3,169900
22,583500	0,5	3,247750
22,591833	0,5	3,303000
22,600167	0,5	3,346900
22,608500	0,5	3,387700
22,616833	0,5	3,416650
22,625167	0,5	3,464700
22,633500	0,5	3,507650
22,641833	0,5	3,551200
22,650167	0,5	3,580850
22,658500	0,5	3,617250
22,666833	0,5	3,637600
22,675167	0,5	3,667450
22,683500	0,5	3,675850
22,691833	0,5	3,681900
22,700167	0,5	3,669600
22,708500	0,5	3,609500
22,716833	0,5	3,603600
22,725167	0,5	3,578850
22,733500	0,5	3,543650
22,741833	0,5	3,479950
22,750167	0,5	3,408500
22,758500	0,5	3,320400
22,766833	0,5	3,224800
22,775167	0,5	3,132750
22,783500	0,5	3,045350
22,791833	0,5	2,938200
22,800167	0,5	2,835300
22,808500	0,5	2,731150
22,816833	0,5	2,618300
22,825167	0,5	2,499550
22,833500	0,5	2,374500
22,841833	0,5	2,244700
22,850167	0,5	2,085200
22,858500	0,5	1,923850
22,866833	0,5	1,791550
22,875167	0,5	1,656800
22,883500	0,5	1,498600
22,891833	0,5	1,338050
22,900167	0,5	1,177300
22,908500	0,5	1,022800
22,916833	0,5	0,867300
22,925167	0,5	0,712350
22,933500	0,5	0,571200
22,941833	0,5	0,420200
22,950167	0,5	0,286150
22,958500	0,5	0,149400
22,966833	0,5	0,022250
22,975167	0,5	-0,112550
22,983500	0,5	-0,236350
22,991833	0,5	-0,362100
23,000167	0,5	-0,471050
23,008500	0,5	-0,595150
23,016833	0,5	-0,722800
23,025167	0,5	-0,864650
23,033500	0,5	-0,981300
23,041833	0,5	-1,076550
23,050167	0,5	-1,165100
23,058500	0,5	-1,250150
23,066833	0,5	-1,346600
23,075167	0,5	-1,417750
23,083500	0,5	-1,487000
23,091833	0,5	-1,546700
23,100167	0,5	-1,611650
23,108500	0,5	-1,664700
23,116833	0,5	-1,724500
23,125167	0,5	-1,770200
23,133500	0,5	-1,823700
23,141833	0,5	-1,850000
23,150167	0,5	-1,899300
23,158500	0,5	-1,937400
23,166833	0,5	-2,004000
23,175167	0,5	-2,060900
23,183500	0,5	-2,098550
23,191833	0,5	-2,128700
23,200167	0,5	-2,137650
23,208500	0,5	-2,160300
23,216833	0,5	-2,175450
23,225167	0,5	-2,188150
23,233500	0,5	-2,186500
23,241833	0,5	-2,189850
23,250167	0,5	-2,181600
23,258500	0,5	-2,182500
23,266833	0,5	-2,176750
23,275167	0,5	-2,177350
23,283500	0,5	-2,166450
23,291833	0,5	-2,163450
23,300167	0,5	-2,161850
23,308500	0,5	-2,145250
23,316833	0,5	-2,166500
23,325167	0,5	-2,181350
23,333500	0,5	-2,179350
23,341833	0,5	-2,172400
23,350167	0,5	-2,154350
23,358500	0,5	-2,148550
23,366833	0,5	-2,137800
23,375167	0,5	-2,111700
23,383500	0,5	-2,089600
23,391833	0,5	-2,066350
23,400167	0,5	-2,044050
23,408500	0,5	-2,014650
23,416833	0,5	-1,994100
23,425167	0,5	-1,962450
23,433500	0,5	-1,936600
23,441833	0,5	-1,968850
23,450167	0,5	-1,904650
23,458500	0,5	-1,871750
23,466833	0,5	-1,853150
23,475167	0,5	-1,848650
23,483500	0,5	-1,840950
23,491833	0,5	-1,822000
23,500167	0,5	-1,804150
23,508500	0,5	-1,787600
23,516833	0,5	-1,772350
23,525167	0,5	-1,752150
23,533500	0,5	-1,729350
23,541833	0,5	-1,707000
23,550167	0,5	-1,683000
23,558500	0,5	-1,664550
23,566833	0,5	-1,633400
23,575167	0,5	-1,610100
23,583500	0,5	-1,613300
23,591833	0,5	-1,644950
23,600167	0,5	-1,589750
23,608500	0,5	-1,525800
23,616833	0,5	-1,498850
23,625167	0,5	-1,485050
23,633500	0,5	-1,471400
23,641833	0,5	-1,452350
23,650167	0,5	-1,436150
23,658500	0,5	-1,413300
23,666833	0,5	-1,396300
23,675167	0,5	-1,376000
23,683500	0,5	-1,359900
23,691833	0,5	-1,341450
23,700167	0,5	-1,325000
23,708500	0,5	-1,307400
23,716833	0,5	-1,285100
23,725167	0,5	-1,274800
23,733500	0,5	-1,358750
23,741833	0,5	-1,347750
23,750167	0,5	-1,295050
23,758500	0,5	-1,234050
23,766833	0,5	-1,207200
23,775167	0,5	-1,196300
23,783500	0,5	-1,181750
23,791833	0,5	-1,169400
23,800167	0,5	-1,152300
23,808500	0,5	-1,130750
23,816833	0,5	-1,111700
23,825167	0,5	-1,091450
23,833500	0,5	-1,068500
23,841833	0,5	-1,044100
23,850167	0,5	-1,023950
23,858500	0,5	-1,006400
23,866833	0,5	-0,990700
23,875167	0,5	-0,984600
23,883500	0,5	-1,101950
23,891833	0,5	-1,052700
23,900167	0,5	-1,000650
23,908500	0,5	-0,947950
23,916833	0,5	-0,922800
23,925167	0,5	-0,912100
23,933500	0,5	-0,909250
23,941833	0,5	-0,902450
23,950167	0,5	-0,891100
23,958500	0,5	-0,873950
23,966833	0,5	-0,864200
23,975167	0,5	-0,840100
23,983500	0,5	-0,822100
23,991833	0,5	-0,801150
24,000167	0,5	-0,784400
24,008500	0,5	-0,764200
24,016833	0,5	-0,748700
24,025167	0,5	-0,800350
24,033500	0,5	-0,829750
24,041833	0,5	-0,801500
24,050167	0,5	-0,737650
24,058500	0,5	-0,696550
24,066833	0,5	-0,673650
24,075167	0,5	-0,658500
24,083500	0,5	-0,654900
24,091833	0,5	-0,645150
24,100167	0,5	-0,618150
24,108500	0,5	-0,605350
24,116833	0,5	-0,587250
24,125167	0,5	-0,575700
24,133500	0,5	-0,558550
24,141833	0,5	-0,543850
24,150167	0,5	-0,526200
24,158500	0,5	-0,520150
24,166833	0,5	-0,508750
24,175167	0,5	-0,602550
24,183500	0,5	-0,573900
24,191833	0,5	-0,558850
24,200167	0,5	-0,500300
24,208500	0,5	-0,468600
24,216833	0,5	-0,448050
24,225167	0,5	-0,435900
24,233500	0,5	-0,438700
24,241833	0,5	-0,412400
24,250167	0,5	-0,401050
24,258500	0,5	-0,385000
24,266833	0,5	-0,372650
24,275167	0,5	-0,347400
24,283500	0,5	-0,334850
24,291833	0,5	-0,316400
24,300167	0,5	-0,303700
24,308500	0,5	-0,290300
24,316833	0,5	-0,293400
24,325167	0,5	-0,365150
24,333500	0,5	-0,334750
24,341833	0,5	-0,311400
24,350167	0,5	-0,270300
24,358500	0,5	-0,254250
24,366833	0,5	-0,245650
24,375167	0,5	-0,243850
24,383500	0,5	-0,246700
24,391833	0,5	-0,231400
24,400167	0,5	-0,213350
24,408500	0,5	-0,201400
24,416833	0,5	-0,191600
24,425167	0,5	-0,180650
24,433500	0,5	-0,162400
24,441833	0,5	-0,151200
24,450167	0,5	-0,139350
24,458500	0,5	-0,132350
24,466833	0,5	-0,163600
24,475167	0,5	-0,179800
24,483500	0,5	-0,148550
24,491833	0,5	-0,129450
24,500167	0,5	-0,095650
24,508500	0,5	-0,084900
24,516833	0,5	-0,073000
24,525167	0,5	-0,073950
24,533500	0,5	-0,078750
24,541833	0,5	-0,066900
24,550167	0,5	-0,062000
24,558500	0,5	-0,054550
24,566833	0,5	-0,045650
24,575167	0,5	-0,038450
24,583500	0,5	-0,029500
24,591833	0,5	-0,017550
24,600167	0,5	-0,010700
24,608500	0,5	-0,002450
24,616833	0,5	-0,051500
24,625167	0,5	-0,033550
24,633500	0,5	-0,023100
24,641833	0,5	0,002850
24,650167	0,5	0,019350
24,658500	0,5	0,027650
24,666833	0,5	0,034300
24,675167	0,5	0,029850
24,683500	0,5	0,033900
24,691833	0,5	0,045700
24,700167	0,5	0,050550
24,708500	0,5	0,061000
24,716833	0,5	0,067550
24,725167	0,5	0,072800
24,733500	0,5	0,079750
24,741833	0,5	0,082700
24,750167	0,5	0,087200
24,758500	0,5	0,087750
24,766833	0,5	0,063050
24,775167	0,5	0,067350
24,783500	0,5	0,081950
24,791833	0,5	0,100500
24,800167	0,5	0,110750
24,808500	0,5	0,111500
24,816833	0,5	0,110400
24,825167	0,5	0,107100
24,833500	0,5	0,113450
24,841833	0,5	0,113700
24,850167	0,5	0,125600
24,858500	0,5	0,131150
24,866833	0,5	0,136900
24,875167	0,5	0,142100
24,883500	0,5	0,150250
24,891833	0,5	0,158250
24,900167	0,5	0,161250
24,908500	0,5	0,150500
24,916833	0,5	0,140550
24,925167	0,5	0,149700
24,933500	0,5	0,162550
24,941833	0,5	0,169150
24,950167	0,5	0,172750
24,958500	0,5	0,176050
24,966833	0,5	0,172400
24,975167	0,5	0,171350
24,983500	0,5	0,173000
24,991833	0,5	0,175300
25,000167	0,5	0,176000
25,008500	0,5	0,183500
25,016833	0,5	0,187350
25,025167	0,5	0,190050
25,033500	0,5	0,192450
25,041833	0,5	0,193150
25,050167	0,5	0,200500
25,058500	0,5	0,187850
25,066833	0,5	0,195750
25,075167	0,5	0,198000
25,083500	0,5	0,210150
25,091833	0,5	0,212000
25,100167	0,5	0,215900
25,108500	0,5	0,216150
25,116833	0,5	0,213750
25,125167	0,5	0,215600
25,133500	0,5	0,217750
25,141833	0,5	0,216550
25,150167	0,5	0,219450
25,158500	0,5	0,219200
25,166833	0,5	0,222500
25,175167	0,5	0,221800
25,183500	0,5	0,224050
25,191833	0,5	0,223600
25,200167	0,5	0,222200
25,208500	0,5	0,217500
25,216833	0,5	0,221550
25,225167	0,5	0,223700
25,233500	0,5	0,225450
25,241833	0,5	0,227550
25,250167	0,5	0,230250
25,258500	0,5	0,229250
25,266833	0,5	0,228050
25,275167	0,5	0,233000
25,283500	0,5	0,232950
25,291833	0,5	0,234450
25,300167	0,5	0,232300
25,308500	0,5	0,238050
25,316833	0,5	0,236300
25,325167	0,5	0,236950
25,333500	0,5	0,237100
25,341833	0,5	0,235750
25,350167	0,5	0,232900
25,358500	0,5	0,234600
25,366833	0,5	0,236400
25,375167	0,5	0,233350
25,383500	0,5	0,232400
25,391833	0,5	0,235600
25,400167	0,5	0,233850
25,408500	0,5	0,234300
25,416833	0,5	0,233000
25,425167	0,5	0,232350
25,433500	0,5	0,234900
25,441833	0,5	0,236400
25,450167	0,5	0,235950
25,458500	0,5	0,235900
25,466833	0,5	0,235350
25,475167	0,5	0,237000
25,483500	0,5	0,236900
25,491833	0,5	0,236750
25,500167	0,5	0,238700
25,508500	0,5	0,240150
25,516833	0,5	0,236550
25,525167	0,5	0,235950
25,533500	0,5	0,232400
25,541833	0,5	0,230000
25,550167	0,5	0,230300
25,558500	0,5	0,228850
25,566833	0,5	0,230850
25,575167	0,5	0,227050
25,583500	0,5	0,228100
25,591833	0,5	0,227850
25,600167	0,5	0,227050
25,608500	0,5	0,225250
25,616833	0,5	0,227750
25,625167	0,5	0,227400
25,633500	0,5	0,227350
25,641833	0,5	0,226200
25,650167	0,5	0,232150
25,658500	0,5	0,230300
25,666833	0,5	0,233600
25,675167	0,5	0,225200
25,683500	0,5	0,224150
25,691833	0,5	0,223250
25,700167	0,5	0,225850
25,708500	0,5	0,223650
25,716833	0,5	0,227300
25,725167	0,5	0,224700
25,733500	0,5	0,224500
25,741833	0,5	0,223700
25,750167	0,5	0,220100
25,758500	0,5	0,219350
25,766833	0,5	0,217300
25,775167	0,5	0,219550
25,783500	0,5	0,218050
25,791833	0,5	0,220200
25,800167	0,5	0,217450
25,808500	0,5	0,223650
25,816833	0,5	0,223100
25,825167	0,5	0,215450
25,833500	0,5	0,217300
25,841833	0,5	0,213350
25,850167	0,5	0,216950
25,858500	0,5	0,219950
25,866833	0,5	0,218400
25,875167	0,5	0,219450
25,883500	0,5	0,215650
25,891833	0,5	0,215350
25,900167	0,5	0,212850
25,908500	0,5	0,213100
25,916833	0,5	0,213650
25,925167	0,5	0,210650
25,933500	0,5	0,210300
25,941833	0,5	0,208800
25,950167	0,5	0,209550
25,958500	0,5	0,217950
25,966833	0,5	0,210200
25,975167	0,5	0,205800
25,983500	0,5	0,209500
25,991833	0,5	0,208600
26,000167	0,5	0,216600
