File Path	chrom://chromeleon01/ikbm_chromeleon/2022/ICS-5000/ED1/Esteban/20220612_Cell_7_4_eg.seq/771.smp/ED_1.channel/ED_1.chm
Channel	ED_1

Injection Information:
Data Vault	ikbm_chromeleon
Injection	CelS2_24h-EGI_NA
Injection Number	67
Position	GB7
Comment	
Processing Method	Stop sequence after Cell Death
Instrument Method	ICS5000_PA200_FullNative_Ox_26min_ED1
Type	Unknown
Status	Finished
Injection Date	13.06.2022
Injection Time	23:31:17
Injection Volume (µl)	5,0
Dilution Factor	1,0000
Weight	1,0000

Chromatogram Data Information:
Time Min. (min)	0,000333
Time Max. (min)	26,000333
Data Points	3121
Detector	EDet1
Generating Data System	Chromeleon 7.2.9.11323
Exporting Data System	Chromeleon 7.2.9.0
Operator	Instrument Controller
Signal Quantity	
Signal Unit	nC
Signal Min.	-2,263650
Signal Max.	633,110309
Channel	ED_1
Driver Name	DC-5000
Channel Type	Evaluation
Min. Step (s)	0,5
Max. Step (s)	0,5
Average Step (s)	0,5

Signal Parameter Information:
Signal Info	

Chromatogram Data:
Time (min)	Step (s)	Value (nC)
0,000333	n.a.	-0,035800
0,008667	0,5	-0,047100
0,017000	0,5	-0,043450
0,025333	0,5	-0,043350
0,033667	0,5	-0,029350
0,042000	0,5	-0,001250
0,050333	0,5	0,011500
0,058667	0,5	0,006450
0,067000	0,5	0,013000
0,075333	0,5	0,011250
0,083667	0,5	0,008450
0,092000	0,5	-0,004600
0,100333	0,5	-0,003000
0,108667	0,5	-0,010950
0,117000	0,5	-0,004150
0,125333	0,5	-0,008850
0,133667	0,5	-0,013800
0,142000	0,5	-0,005100
0,150333	0,5	-0,002000
0,158667	0,5	-0,029950
0,167000	0,5	-0,021450
0,175333	0,5	-0,027550
0,183667	0,5	-0,000600
0,192000	0,5	0,003100
0,200333	0,5	-0,000600
0,208667	0,5	-0,007300
0,217000	0,5	-0,006600
0,225333	0,5	-0,007950
0,233667	0,5	-0,011800
0,242000	0,5	-0,015050
0,250333	0,5	-0,020000
0,258667	0,5	-0,017200
0,267000	0,5	-0,020750
0,275333	0,5	-0,025750
0,283667	0,5	-0,041350
0,292000	0,5	-0,005950
0,300333	0,5	-0,009250
0,308667	0,5	-0,025750
0,317000	0,5	-0,044650
0,325333	0,5	-0,047150
0,333667	0,5	-0,033950
0,342000	0,5	-0,030450
0,350333	0,5	-0,034000
0,358667	0,5	-0,019550
0,367000	0,5	-0,024750
0,375333	0,5	-0,025650
0,383667	0,5	-0,033300
0,392000	0,5	-0,036350
0,400333	0,5	-0,042100
0,408667	0,5	-0,041500
0,417000	0,5	-0,041250
0,425333	0,5	-0,058950
0,433667	0,5	-0,063950
0,442000	0,5	-0,039750
0,450333	0,5	-0,054800
0,458667	0,5	-0,062550
0,467000	0,5	-0,058350
0,475333	0,5	-0,058950
0,483667	0,5	-0,024550
0,492000	0,5	-0,040250
0,500333	0,5	-0,042650
0,508667	0,5	-0,051850
0,517000	0,5	-0,043950
0,525333	0,5	-0,050300
0,533667	0,5	-0,045350
0,542000	0,5	-0,054500
0,550333	0,5	-0,049750
0,558667	0,5	-0,049400
0,567000	0,5	-0,053250
0,575333	0,5	-0,063000
0,583667	0,5	-0,067050
0,592000	0,5	-0,052300
0,600333	0,5	-0,071600
0,608667	0,5	-0,070450
0,617000	0,5	-0,067750
0,625333	0,5	-0,056050
0,633667	0,5	-0,037300
0,642000	0,5	-0,039900
0,650333	0,5	-0,039050
0,658667	0,5	-0,039000
0,667000	0,5	-0,046550
0,675333	0,5	-0,041700
0,683667	0,5	-0,049600
0,692000	0,5	-0,051550
0,700333	0,5	-0,058250
0,708667	0,5	-0,053750
0,717000	0,5	-0,053550
0,725333	0,5	-0,057850
0,733667	0,5	-0,054800
0,742000	0,5	-0,042400
0,750333	0,5	-0,065550
0,758667	0,5	-0,066900
0,767000	0,5	-0,064450
0,775333	0,5	-0,044100
0,783667	0,5	-0,024200
0,792000	0,5	-0,034450
0,800333	0,5	-0,034950
0,808667	0,5	-0,036100
0,817000	0,5	-0,033300
0,825333	0,5	-0,043400
0,833667	0,5	-0,039350
0,842000	0,5	-0,042500
0,850333	0,5	-0,038650
0,858667	0,5	-0,041800
0,867000	0,5	-0,045500
0,875333	0,5	-0,054700
0,883667	0,5	-0,040900
0,892000	0,5	-0,047850
0,900333	0,5	-0,055750
0,908667	0,5	-0,053450
0,917000	0,5	-0,045200
0,925333	0,5	-0,027950
0,933667	0,5	-0,008900
0,942000	0,5	-0,018050
0,950333	0,5	-0,018750
0,958667	0,5	-0,019550
0,967000	0,5	-0,022750
0,975333	0,5	-0,018700
0,983667	0,5	-0,025950
0,992000	0,5	-0,025700
1,000333	0,5	-0,029500
1,008667	0,5	-0,029200
1,017000	0,5	-0,045300
1,025333	0,5	-0,038300
1,033667	0,5	-0,023850
1,042000	0,5	-0,038450
1,050333	0,5	-0,048350
1,058667	0,5	-0,040900
1,067000	0,5	-0,030000
1,075333	0,5	-0,009650
1,083667	0,5	-0,005350
1,092000	0,5	-0,002450
1,100333	0,5	-0,005400
1,108667	0,5	-0,005450
1,117000	0,5	-0,008600
1,125333	0,5	-0,011200
1,133667	0,5	-0,005650
1,142000	0,5	-0,012750
1,150333	0,5	-0,008850
1,158667	0,5	-0,019750
1,167000	0,5	-0,029450
1,175333	0,5	-0,017750
1,183667	0,5	-0,009750
1,192000	0,5	-0,026300
1,200333	0,5	-0,028000
1,208667	0,5	-0,026250
1,217000	0,5	-0,001700
1,225333	0,5	0,012400
1,233667	0,5	0,011550
1,242000	0,5	-0,002100
1,250333	0,5	0,004450
1,258667	0,5	0,001200
1,267000	0,5	0,005500
1,275333	0,5	-0,000250
1,283667	0,5	-0,002850
1,292000	0,5	-0,001750
1,300333	0,5	-0,002600
1,308667	0,5	-0,003200
1,317000	0,5	-0,010450
1,325333	0,5	0,016750
1,333667	0,5	-0,002050
1,342000	0,5	-0,011800
1,350333	0,5	-0,014600
1,358667	0,5	-0,007200
1,367000	0,5	0,009650
1,375333	0,5	0,014600
1,383667	0,5	0,004050
1,392000	0,5	0,014400
1,400333	0,5	0,007750
1,408667	0,5	0,017200
1,417000	0,5	0,008200
1,425333	0,5	0,008850
1,433667	0,5	-0,001600
1,442000	0,5	-0,003450
1,450333	0,5	-0,002800
1,458667	0,5	-0,013650
1,467000	0,5	-0,019850
1,475333	0,5	0,004400
1,483667	0,5	-0,019450
1,492000	0,5	-0,025150
1,500333	0,5	-0,026850
1,508667	0,5	-0,016200
1,517000	0,5	0,007900
1,525333	0,5	-0,008250
1,533667	0,5	-0,010400
1,542000	0,5	-0,015850
1,550333	0,5	-0,021250
1,558667	0,5	-0,062850
1,567000	0,5	-0,205750
1,575333	0,5	-0,569250
1,583667	0,5	-0,845850
1,592000	0,5	0,352250
1,600333	0,5	6,781150
1,608667	0,5	28,032400
1,617000	0,5	82,327451
1,625333	0,5	176,942403
1,633667	0,5	275,711154
1,642000	0,5	320,547005
1,650333	0,5	293,736754
1,658667	0,5	229,477603
1,667000	0,5	165,832752
1,675333	0,5	117,698602
1,683667	0,5	85,030451
1,692000	0,5	63,796701
1,700333	0,5	50,442751
1,708667	0,5	42,544451
1,717000	0,5	37,764951
1,725333	0,5	33,788351
1,733667	0,5	29,514600
1,742000	0,5	25,367550
1,750333	0,5	21,960450
1,758667	0,5	19,487400
1,767000	0,5	17,811300
1,775333	0,5	16,688100
1,783667	0,5	15,861750
1,792000	0,5	15,261850
1,800333	0,5	14,855400
1,808667	0,5	14,664350
1,817000	0,5	14,588050
1,825333	0,5	14,326850
1,833667	0,5	13,727300
1,842000	0,5	12,918000
1,850333	0,5	12,114700
1,858667	0,5	11,437000
1,867000	0,5	10,888600
1,875333	0,5	10,440500
1,883667	0,5	10,076650
1,892000	0,5	9,758600
1,900333	0,5	9,475250
1,908667	0,5	9,209300
1,917000	0,5	9,031500
1,925333	0,5	9,014800
1,933667	0,5	9,518900
1,942000	0,5	11,250050
1,950333	0,5	15,515250
1,958667	0,5	25,429500
1,967000	0,5	47,915551
1,975333	0,5	89,557001
1,983667	0,5	140,182652
1,992000	0,5	168,827503
2,000333	0,5	157,370802
2,008667	0,5	121,368702
2,017000	0,5	85,202951
2,025333	0,5	59,119851
2,033667	0,5	42,350851
2,042000	0,5	31,864500
2,050333	0,5	25,345450
2,058667	0,5	21,396250
2,067000	0,5	19,033050
2,075333	0,5	17,457150
2,083667	0,5	16,177200
2,092000	0,5	15,027700
2,100333	0,5	14,034350
2,108667	0,5	13,232750
2,117000	0,5	12,581200
2,125333	0,5	12,117750
2,133667	0,5	11,829550
2,142000	0,5	11,699050
2,150333	0,5	11,636800
2,158667	0,5	11,621450
2,167000	0,5	11,556400
2,175333	0,5	11,379350
2,183667	0,5	11,120800
2,192000	0,5	10,835050
2,200333	0,5	10,593000
2,208667	0,5	10,418950
2,217000	0,5	10,299200
2,225333	0,5	10,222650
2,233667	0,5	10,189400
2,242000	0,5	10,178200
2,250333	0,5	10,177700
2,258667	0,5	10,188700
2,267000	0,5	10,222450
2,275333	0,5	10,277250
2,283667	0,5	10,353700
2,292000	0,5	10,405750
2,300333	0,5	10,475250
2,308667	0,5	10,529800
2,317000	0,5	10,595200
2,325333	0,5	10,664250
2,333667	0,5	10,743050
2,342000	0,5	10,841300
2,350333	0,5	10,969950
2,358667	0,5	11,186950
2,367000	0,5	11,421100
2,375333	0,5	11,651400
2,383667	0,5	11,882000
2,392000	0,5	12,163350
2,400333	0,5	12,505050
2,408667	0,5	12,832100
2,417000	0,5	13,072650
2,425333	0,5	13,215900
2,433667	0,5	13,228250
2,442000	0,5	13,160500
2,450333	0,5	13,008800
2,458667	0,5	12,834750
2,467000	0,5	12,636600
2,475333	0,5	12,457300
2,483667	0,5	12,281850
2,492000	0,5	12,126650
2,500333	0,5	11,975950
2,508667	0,5	11,885850
2,517000	0,5	11,787500
2,525333	0,5	11,796950
2,533667	0,5	12,024450
2,542000	0,5	12,748200
2,550333	0,5	14,481150
2,558667	0,5	17,827850
2,567000	0,5	23,434750
2,575333	0,5	31,750700
2,583667	0,5	43,915551
2,592000	0,5	64,050701
2,600333	0,5	103,563302
2,608667	0,5	183,847453
2,617000	0,5	320,256405
2,625333	0,5	483,352507
2,633667	0,5	602,921659
2,642000	0,5	633,110309
2,650333	0,5	581,686909
2,658667	0,5	483,506707
2,667000	0,5	373,953356
2,675333	0,5	276,692454
2,683667	0,5	201,016853
2,692000	0,5	146,402052
2,700333	0,5	108,520602
2,708667	0,5	82,585051
2,717000	0,5	64,841601
2,725333	0,5	52,587501
2,733667	0,5	43,974201
2,742000	0,5	37,768001
2,750333	0,5	33,183950
2,758667	0,5	29,702500
2,767000	0,5	26,989750
2,775333	0,5	24,841300
2,783667	0,5	23,099250
2,792000	0,5	21,668500
2,800333	0,5	20,467200
2,808667	0,5	19,433100
2,817000	0,5	18,485650
2,825333	0,5	17,648850
2,833667	0,5	16,881000
2,842000	0,5	16,185400
2,850333	0,5	15,545450
2,858667	0,5	14,942300
2,867000	0,5	14,386200
2,875333	0,5	13,906750
2,883667	0,5	13,494950
2,892000	0,5	13,156100
2,900333	0,5	12,855450
2,908667	0,5	12,565000
2,917000	0,5	12,242350
2,925333	0,5	11,864750
2,933667	0,5	11,445300
2,942000	0,5	11,003500
2,950333	0,5	10,600000
2,958667	0,5	10,207450
2,967000	0,5	9,858900
2,975333	0,5	9,563550
2,983667	0,5	9,317650
2,992000	0,5	9,104300
3,000333	0,5	8,916800
3,008667	0,5	8,717150
3,017000	0,5	8,525350
3,025333	0,5	8,325400
3,033667	0,5	8,129100
3,042000	0,5	7,923950
3,050333	0,5	7,734100
3,058667	0,5	7,539050
3,067000	0,5	7,365900
3,075333	0,5	7,205400
3,083667	0,5	7,051350
3,092000	0,5	6,927700
3,100333	0,5	6,822300
3,108667	0,5	6,702400
3,117000	0,5	6,602150
3,125333	0,5	6,508500
3,133667	0,5	6,413150
3,142000	0,5	6,332900
3,150333	0,5	6,219900
3,158667	0,5	6,115450
3,167000	0,5	6,009400
3,175333	0,5	5,914850
3,183667	0,5	5,819450
3,192000	0,5	5,738850
3,200333	0,5	5,651850
3,208667	0,5	5,578300
3,217000	0,5	5,502750
3,225333	0,5	5,424300
3,233667	0,5	5,341350
3,242000	0,5	5,280600
3,250333	0,5	5,202000
3,258667	0,5	5,118500
3,267000	0,5	5,048800
3,275333	0,5	4,990150
3,283667	0,5	4,950950
3,292000	0,5	4,906800
3,300333	0,5	4,863750
3,308667	0,5	4,825300
3,317000	0,5	4,807250
3,325333	0,5	4,794250
3,333667	0,5	4,804400
3,342000	0,5	4,804000
3,350333	0,5	4,796050
3,358667	0,5	4,772750
3,367000	0,5	4,739650
3,375333	0,5	4,691850
3,383667	0,5	4,628300
3,392000	0,5	4,585300
3,400333	0,5	4,517500
3,408667	0,5	4,466700
3,417000	0,5	4,435300
3,425333	0,5	4,411750
3,433667	0,5	4,418350
3,442000	0,5	4,395950
3,450333	0,5	4,370650
3,458667	0,5	4,353600
3,467000	0,5	4,326800
3,475333	0,5	4,307550
3,483667	0,5	4,274200
3,492000	0,5	4,245050
3,500333	0,5	4,205950
3,508667	0,5	4,174100
3,517000	0,5	4,129750
3,525333	0,5	4,094050
3,533667	0,5	4,027150
3,542000	0,5	3,991450
3,550333	0,5	3,910500
3,558667	0,5	3,854150
3,567000	0,5	3,797100
3,575333	0,5	3,756650
3,583667	0,5	3,727450
3,592000	0,5	3,689450
3,600333	0,5	3,650550
3,608667	0,5	3,630950
3,617000	0,5	3,614600
3,625333	0,5	3,616000
3,633667	0,5	3,629600
3,642000	0,5	3,650900
3,650333	0,5	3,684000
3,658667	0,5	3,720200
3,667000	0,5	3,758050
3,675333	0,5	3,775950
3,683667	0,5	3,781750
3,692000	0,5	3,784000
3,700333	0,5	3,754100
3,708667	0,5	3,727900
3,717000	0,5	3,704850
3,725333	0,5	3,681350
3,733667	0,5	3,666500
3,742000	0,5	3,621200
3,750333	0,5	3,589950
3,758667	0,5	3,554000
3,767000	0,5	3,531250
3,775333	0,5	3,501100
3,783667	0,5	3,483000
3,792000	0,5	3,464800
3,800333	0,5	3,442600
3,808667	0,5	3,422200
3,817000	0,5	3,396300
3,825333	0,5	3,371400
3,833667	0,5	3,347950
3,842000	0,5	3,319750
3,850333	0,5	3,282400
3,858667	0,5	3,271650
3,867000	0,5	3,268550
3,875333	0,5	3,298350
3,883667	0,5	3,338900
3,892000	0,5	3,392150
3,900333	0,5	3,448050
3,908667	0,5	3,540950
3,917000	0,5	3,648300
3,925333	0,5	3,784150
3,933667	0,5	3,935250
3,942000	0,5	4,140300
3,950333	0,5	4,410900
3,958667	0,5	4,789600
3,967000	0,5	5,307350
3,975333	0,5	6,012100
3,983667	0,5	6,912550
3,992000	0,5	7,967600
4,000333	0,5	9,101550
4,008667	0,5	10,190900
4,017000	0,5	11,089850
4,025333	0,5	11,640350
4,033667	0,5	11,759950
4,042000	0,5	11,429300
4,050333	0,5	10,735750
4,058667	0,5	9,783700
4,067000	0,5	8,716550
4,075333	0,5	7,641450
4,083667	0,5	6,662050
4,092000	0,5	5,816700
4,100333	0,5	5,138550
4,108667	0,5	4,622150
4,117000	0,5	4,245600
4,125333	0,5	3,992450
4,133667	0,5	3,838300
4,142000	0,5	3,719850
4,150333	0,5	3,643850
4,158667	0,5	3,589300
4,167000	0,5	3,538950
4,175333	0,5	3,485850
4,183667	0,5	3,405000
4,192000	0,5	3,320700
4,200333	0,5	3,228250
4,208667	0,5	3,145650
4,217000	0,5	3,055500
4,225333	0,5	2,979350
4,233667	0,5	2,902650
4,242000	0,5	2,849900
4,250333	0,5	2,800400
4,258667	0,5	2,759100
4,267000	0,5	2,709900
4,275333	0,5	2,691250
4,283667	0,5	2,667100
4,292000	0,5	2,639550
4,300333	0,5	2,614850
4,308667	0,5	2,607800
4,317000	0,5	2,603700
4,325333	0,5	2,596200
4,333667	0,5	2,582600
4,342000	0,5	2,566200
4,350333	0,5	2,555050
4,358667	0,5	2,547800
4,367000	0,5	2,541650
4,375333	0,5	2,530400
4,383667	0,5	2,520000
4,392000	0,5	2,505750
4,400333	0,5	2,500950
4,408667	0,5	2,482100
4,417000	0,5	2,461650
4,425333	0,5	2,454000
4,433667	0,5	2,428450
4,442000	0,5	2,404450
4,450333	0,5	2,389300
4,458667	0,5	2,375550
4,467000	0,5	2,378900
4,475333	0,5	2,361350
4,483667	0,5	2,350300
4,492000	0,5	2,335500
4,500333	0,5	2,331600
4,508667	0,5	2,323250
4,517000	0,5	2,316550
4,525333	0,5	2,308850
4,533667	0,5	2,299300
4,542000	0,5	2,297000
4,550333	0,5	2,292200
4,558667	0,5	2,293750
4,567000	0,5	2,282100
4,575333	0,5	2,297800
4,583667	0,5	2,295100
4,592000	0,5	2,296300
4,600333	0,5	2,302550
4,608667	0,5	2,324600
4,617000	0,5	2,353000
4,625333	0,5	2,369900
4,633667	0,5	2,386650
4,642000	0,5	2,418250
4,650333	0,5	2,450100
4,658667	0,5	2,490400
4,667000	0,5	2,532850
4,675333	0,5	2,592700
4,683667	0,5	2,666400
4,692000	0,5	2,765600
4,700333	0,5	2,907000
4,708667	0,5	3,086650
4,717000	0,5	3,340050
4,725333	0,5	3,695650
4,733667	0,5	4,121600
4,742000	0,5	4,652250
4,750333	0,5	5,248000
4,758667	0,5	5,864700
4,767000	0,5	6,438200
4,775333	0,5	6,867500
4,783667	0,5	7,123750
4,792000	0,5	7,162950
4,800333	0,5	7,015350
4,808667	0,5	6,671450
4,817000	0,5	6,217450
4,825333	0,5	5,688050
4,833667	0,5	5,155550
4,842000	0,5	4,649700
4,850333	0,5	4,199600
4,858667	0,5	3,812650
4,867000	0,5	3,512100
4,875333	0,5	3,262300
4,883667	0,5	3,062900
4,892000	0,5	2,917000
4,900333	0,5	2,808950
4,908667	0,5	2,734450
4,917000	0,5	2,677050
4,925333	0,5	2,634300
4,933667	0,5	2,600150
4,942000	0,5	2,581850
4,950333	0,5	2,565650
4,958667	0,5	2,564200
4,967000	0,5	2,568850
4,975333	0,5	2,581500
4,983667	0,5	2,591550
4,992000	0,5	2,608850
5,000333	0,5	2,602100
5,008667	0,5	2,591200
5,017000	0,5	2,574750
5,025333	0,5	2,536000
5,033667	0,5	2,480650
5,042000	0,5	2,433300
5,050333	0,5	2,384750
5,058667	0,5	2,344150
5,067000	0,5	2,306900
5,075333	0,5	2,258450
5,083667	0,5	2,219750
5,092000	0,5	2,186250
5,100333	0,5	2,155500
5,108667	0,5	2,127500
5,117000	0,5	2,101850
5,125333	0,5	2,075600
5,133667	0,5	2,059350
5,142000	0,5	2,037850
5,150333	0,5	2,017800
5,158667	0,5	1,998900
5,167000	0,5	1,997050
5,175333	0,5	1,970150
5,183667	0,5	1,959050
5,192000	0,5	1,953050
5,200333	0,5	1,952850
5,208667	0,5	1,953500
5,217000	0,5	1,950750
5,225333	0,5	1,944050
5,233667	0,5	1,942200
5,242000	0,5	1,937850
5,250333	0,5	1,932750
5,258667	0,5	1,922750
5,267000	0,5	1,912600
5,275333	0,5	1,903700
5,283667	0,5	1,894600
5,292000	0,5	1,890250
5,300333	0,5	1,868200
5,308667	0,5	1,865150
5,317000	0,5	1,859600
5,325333	0,5	1,845900
5,333667	0,5	1,832250
5,342000	0,5	1,827050
5,350333	0,5	1,828550
5,358667	0,5	1,831000
5,367000	0,5	1,818750
5,375333	0,5	1,810750
5,383667	0,5	1,800550
5,392000	0,5	1,799350
5,400333	0,5	1,788000
5,408667	0,5	1,781700
5,417000	0,5	1,775600
5,425333	0,5	1,770300
5,433667	0,5	1,771950
5,442000	0,5	1,767550
5,450333	0,5	1,762500
5,458667	0,5	1,776800
5,467000	0,5	1,782250
5,475333	0,5	1,787300
5,483667	0,5	1,794800
5,492000	0,5	1,810300
5,500333	0,5	1,825400
5,508667	0,5	1,822850
5,517000	0,5	1,813650
5,525333	0,5	1,795100
5,533667	0,5	1,783400
5,542000	0,5	1,765850
5,550333	0,5	1,752500
5,558667	0,5	1,736300
5,567000	0,5	1,728850
5,575333	0,5	1,721700
5,583667	0,5	1,726400
5,592000	0,5	1,721450
5,600333	0,5	1,724850
5,608667	0,5	1,745200
5,617000	0,5	1,756700
5,625333	0,5	1,774600
5,633667	0,5	1,794800
5,642000	0,5	1,815900
5,650333	0,5	1,837450
5,658667	0,5	1,839600
5,667000	0,5	1,816150
5,675333	0,5	1,786400
5,683667	0,5	1,742400
5,692000	0,5	1,696550
5,700333	0,5	1,642500
5,708667	0,5	1,598900
5,717000	0,5	1,555700
5,725333	0,5	1,528200
5,733667	0,5	1,508750
5,742000	0,5	1,482900
5,750333	0,5	1,471050
5,758667	0,5	1,468700
5,767000	0,5	1,453600
5,775333	0,5	1,450650
5,783667	0,5	1,443750
5,792000	0,5	1,449300
5,800333	0,5	1,455800
5,808667	0,5	1,451450
5,817000	0,5	1,451250
5,825333	0,5	1,446500
5,833667	0,5	1,446350
5,842000	0,5	1,440900
5,850333	0,5	1,440600
5,858667	0,5	1,426200
5,867000	0,5	1,420000
5,875333	0,5	1,412100
5,883667	0,5	1,394550
5,892000	0,5	1,377400
5,900333	0,5	1,368950
5,908667	0,5	1,356700
5,917000	0,5	1,340400
5,925333	0,5	1,328200
5,933667	0,5	1,315200
5,942000	0,5	1,309900
5,950333	0,5	1,305750
5,958667	0,5	1,299000
5,967000	0,5	1,286950
5,975333	0,5	1,279650
5,983667	0,5	1,275800
5,992000	0,5	1,269700
6,000333	0,5	1,267550
6,008667	0,5	1,268100
6,017000	0,5	1,272850
6,025333	0,5	1,282350
6,033667	0,5	1,283300
6,042000	0,5	1,291550
6,050333	0,5	1,307900
6,058667	0,5	1,312250
6,067000	0,5	1,307850
6,075333	0,5	1,304600
6,083667	0,5	1,298350
6,092000	0,5	1,299550
6,100333	0,5	1,287100
6,108667	0,5	1,269100
6,117000	0,5	1,252600
6,125333	0,5	1,243200
6,133667	0,5	1,233850
6,142000	0,5	1,229100
6,150333	0,5	1,224500
6,158667	0,5	1,225100
6,167000	0,5	1,226950
6,175333	0,5	1,232650
6,183667	0,5	1,229450
6,192000	0,5	1,233700
6,200333	0,5	1,240650
6,208667	0,5	1,232300
6,217000	0,5	1,226950
6,225333	0,5	1,221600
6,233667	0,5	1,217000
6,242000	0,5	1,212350
6,250333	0,5	1,198850
6,258667	0,5	1,182150
6,267000	0,5	1,170650
6,275333	0,5	1,152600
6,283667	0,5	1,140100
6,292000	0,5	1,124250
6,300333	0,5	1,110900
6,308667	0,5	1,097550
6,317000	0,5	1,088250
6,325333	0,5	1,077400
6,333667	0,5	1,065600
6,342000	0,5	1,060050
6,350333	0,5	1,056700
6,358667	0,5	1,045700
6,367000	0,5	1,031650
6,375333	0,5	1,033100
6,383667	0,5	1,036900
6,392000	0,5	1,045200
6,400333	0,5	1,041600
6,408667	0,5	1,048800
6,417000	0,5	1,051500
6,425333	0,5	1,060650
6,433667	0,5	1,069100
6,442000	0,5	1,083000
6,450333	0,5	1,094750
6,458667	0,5	1,113700
6,467000	0,5	1,138550
6,475333	0,5	1,153400
6,483667	0,5	1,164300
6,492000	0,5	1,183500
6,500333	0,5	1,186350
6,508667	0,5	1,178250
6,517000	0,5	1,166950
6,525333	0,5	1,152450
6,533667	0,5	1,142950
6,542000	0,5	1,120850
6,550333	0,5	1,100700
6,558667	0,5	1,081550
6,567000	0,5	1,073250
6,575333	0,5	1,056650
6,583667	0,5	1,049100
6,592000	0,5	1,041300
6,600333	0,5	1,033050
6,608667	0,5	1,028400
6,617000	0,5	1,027950
6,625333	0,5	1,026150
6,633667	0,5	1,025300
6,642000	0,5	1,034550
6,650333	0,5	1,035050
6,658667	0,5	1,044900
6,667000	0,5	1,055500
6,675333	0,5	1,076200
6,683667	0,5	1,102800
6,692000	0,5	1,122150
6,700333	0,5	1,135800
6,708667	0,5	1,148700
6,717000	0,5	1,158750
6,725333	0,5	1,161550
6,733667	0,5	1,157900
6,742000	0,5	1,153050
6,750333	0,5	1,137700
6,758667	0,5	1,126750
6,767000	0,5	1,112800
6,775333	0,5	1,100800
6,783667	0,5	1,085900
6,792000	0,5	1,084300
6,800333	0,5	1,069850
6,808667	0,5	1,069500
6,817000	0,5	1,072400
6,825333	0,5	1,084850
6,833667	0,5	1,110900
6,842000	0,5	1,131150
6,850333	0,5	1,156000
6,858667	0,5	1,198650
6,867000	0,5	1,256600
6,875333	0,5	1,338250
6,883667	0,5	1,443950
6,892000	0,5	1,574750
6,900333	0,5	1,726300
6,908667	0,5	1,886250
6,917000	0,5	2,037400
6,925333	0,5	2,160200
6,933667	0,5	2,250000
6,942000	0,5	2,279150
6,950333	0,5	2,253100
6,958667	0,5	2,184750
6,967000	0,5	2,091550
6,975333	0,5	1,984750
6,983667	0,5	1,878150
6,992000	0,5	1,780500
7,000333	0,5	1,701200
7,008667	0,5	1,641550
7,017000	0,5	1,606850
7,025333	0,5	1,584800
7,033667	0,5	1,576650
7,042000	0,5	1,578850
7,050333	0,5	1,588700
7,058667	0,5	1,604450
7,067000	0,5	1,624850
7,075333	0,5	1,658850
7,083667	0,5	1,712550
7,092000	0,5	1,778600
7,100333	0,5	1,877500
7,108667	0,5	2,050550
7,117000	0,5	2,319100
7,125333	0,5	2,747450
7,133667	0,5	3,354000
7,142000	0,5	4,167350
7,150333	0,5	5,140600
7,158667	0,5	6,184600
7,167000	0,5	7,138400
7,175333	0,5	7,829550
7,183667	0,5	8,114150
7,192000	0,5	7,946750
7,200333	0,5	7,369650
7,208667	0,5	6,501150
7,217000	0,5	5,506200
7,225333	0,5	4,523800
7,233667	0,5	3,650750
7,242000	0,5	2,926900
7,250333	0,5	2,366200
7,258667	0,5	1,964650
7,267000	0,5	1,681850
7,275333	0,5	1,492600
7,283667	0,5	1,359400
7,292000	0,5	1,273400
7,300333	0,5	1,219900
7,308667	0,5	1,185400
7,317000	0,5	1,169550
7,325333	0,5	1,151900
7,333667	0,5	1,143200
7,342000	0,5	1,132450
7,350333	0,5	1,122150
7,358667	0,5	1,111600
7,367000	0,5	1,094500
7,375333	0,5	1,079850
7,383667	0,5	1,076600
7,392000	0,5	1,061350
7,400333	0,5	1,055650
7,408667	0,5	1,050250
7,417000	0,5	1,053550
7,425333	0,5	1,051550
7,433667	0,5	1,040150
7,442000	0,5	1,029450
7,450333	0,5	1,012200
7,458667	0,5	0,996300
7,467000	0,5	0,983300
7,475333	0,5	0,972650
7,483667	0,5	0,962050
7,492000	0,5	0,958750
7,500333	0,5	0,956850
7,508667	0,5	0,956950
7,517000	0,5	0,952100
7,525333	0,5	0,962000
7,533667	0,5	0,964500
7,542000	0,5	0,975150
7,550333	0,5	0,989950
7,558667	0,5	1,007450
7,567000	0,5	1,026000
7,575333	0,5	1,037450
7,583667	0,5	1,037600
7,592000	0,5	1,028750
7,600333	0,5	1,020750
7,608667	0,5	1,007250
7,617000	0,5	1,004300
7,625333	0,5	0,997550
7,633667	0,5	0,993300
7,642000	0,5	0,989300
7,650333	0,5	0,985150
7,658667	0,5	0,978150
7,667000	0,5	0,975150
7,675333	0,5	0,973750
7,683667	0,5	0,970450
7,692000	0,5	0,967400
7,700333	0,5	0,974500
7,708667	0,5	0,983650
7,717000	0,5	0,996150
7,725333	0,5	1,002050
7,733667	0,5	0,995950
7,742000	0,5	0,982250
7,750333	0,5	0,964200
7,758667	0,5	0,943050
7,767000	0,5	0,922300
7,775333	0,5	0,903900
7,783667	0,5	0,890650
7,792000	0,5	0,885300
7,800333	0,5	0,875900
7,808667	0,5	0,871150
7,817000	0,5	0,867050
7,825333	0,5	0,872950
7,833667	0,5	0,873000
7,842000	0,5	0,878200
7,850333	0,5	0,882900
7,858667	0,5	0,893500
7,867000	0,5	0,897300
7,875333	0,5	0,892950
7,883667	0,5	0,882550
7,892000	0,5	0,877350
7,900333	0,5	0,873850
7,908667	0,5	0,868900
7,917000	0,5	0,871500
7,925333	0,5	0,866950
7,933667	0,5	0,871000
7,942000	0,5	0,870000
7,950333	0,5	0,868500
7,958667	0,5	0,874800
7,967000	0,5	0,890500
7,975333	0,5	0,907200
7,983667	0,5	0,930750
7,992000	0,5	0,973200
8,000333	0,5	1,036850
8,008667	0,5	1,124650
8,017000	0,5	1,229850
8,025333	0,5	1,327600
8,033667	0,5	1,399300
8,042000	0,5	1,432700
8,050333	0,5	1,423150
8,058667	0,5	1,370050
8,067000	0,5	1,304700
8,075333	0,5	1,246700
8,083667	0,5	1,204500
8,092000	0,5	1,174300
8,100333	0,5	1,153400
8,108667	0,5	1,132050
8,117000	0,5	1,117500
8,125333	0,5	1,093250
8,133667	0,5	1,070450
8,142000	0,5	1,044150
8,150333	0,5	1,020450
8,158667	0,5	0,999500
8,167000	0,5	0,979450
8,175333	0,5	0,961000
8,183667	0,5	0,947350
8,192000	0,5	0,946100
8,200333	0,5	0,944000
8,208667	0,5	0,942350
8,217000	0,5	0,943800
8,225333	0,5	0,940000
8,233667	0,5	0,937950
8,242000	0,5	0,933000
8,250333	0,5	0,927150
8,258667	0,5	0,927500
8,267000	0,5	0,933500
8,275333	0,5	0,933450
8,283667	0,5	0,936650
8,292000	0,5	0,938800
8,300333	0,5	0,943200
8,308667	0,5	0,955800
8,317000	0,5	0,956450
8,325333	0,5	0,954250
8,333667	0,5	0,954600
8,342000	0,5	0,950350
8,350333	0,5	0,947450
8,358667	0,5	0,949400
8,367000	0,5	0,944800
8,375333	0,5	0,944000
8,383667	0,5	0,949400
8,392000	0,5	0,952950
8,400333	0,5	0,964000
8,408667	0,5	0,976700
8,417000	0,5	0,993650
8,425333	0,5	1,004850
8,433667	0,5	1,013100
8,442000	0,5	1,016650
8,450333	0,5	1,021700
8,458667	0,5	1,021150
8,467000	0,5	1,018800
8,475333	0,5	1,022200
8,483667	0,5	1,026050
8,492000	0,5	1,031650
8,500333	0,5	1,041800
8,508667	0,5	1,046800
8,517000	0,5	1,054250
8,525333	0,5	1,062850
8,533667	0,5	1,079050
8,542000	0,5	1,104700
8,550333	0,5	1,146250
8,558667	0,5	1,202750
8,567000	0,5	1,278750
8,575333	0,5	1,370900
8,583667	0,5	1,471850
8,592000	0,5	1,583350
8,600333	0,5	1,710050
8,608667	0,5	1,860800
8,617000	0,5	2,060000
8,625333	0,5	2,373050
8,633667	0,5	2,883350
8,642000	0,5	3,694050
8,650333	0,5	4,877050
8,658667	0,5	6,427300
8,667000	0,5	8,189950
8,675333	0,5	9,855400
8,683667	0,5	11,048650
8,692000	0,5	11,465300
8,700333	0,5	11,010450
8,708667	0,5	9,826850
8,717000	0,5	8,206950
8,725333	0,5	6,495750
8,733667	0,5	4,959350
8,742000	0,5	3,737650
8,750333	0,5	2,854000
8,758667	0,5	2,259700
8,767000	0,5	1,881450
8,775333	0,5	1,644650
8,783667	0,5	1,499400
8,792000	0,5	1,403900
8,800333	0,5	1,337400
8,808667	0,5	1,291100
8,817000	0,5	1,256600
8,825333	0,5	1,231700
8,833667	0,5	1,220100
8,842000	0,5	1,210550
8,850333	0,5	1,206200
8,858667	0,5	1,211700
8,867000	0,5	1,219750
8,875333	0,5	1,235800
8,883667	0,5	1,257600
8,892000	0,5	1,276500
8,900333	0,5	1,286650
8,908667	0,5	1,280350
8,917000	0,5	1,256850
8,925333	0,5	1,226500
8,933667	0,5	1,198700
8,942000	0,5	1,178600
8,950333	0,5	1,160750
8,958667	0,5	1,150400
8,967000	0,5	1,140950
8,975333	0,5	1,139250
8,983667	0,5	1,136900
8,992000	0,5	1,133650
9,000333	0,5	1,134250
9,008667	0,5	1,133400
9,017000	0,5	1,129750
9,025333	0,5	1,120850
9,033667	0,5	1,110850
9,042000	0,5	1,100550
9,050333	0,5	1,094200
9,058667	0,5	1,092000
9,067000	0,5	1,091950
9,075333	0,5	1,094000
9,083667	0,5	1,094650
9,092000	0,5	1,097750
9,100333	0,5	1,094650
9,108667	0,5	1,092150
9,117000	0,5	1,086700
9,125333	0,5	1,079400
9,133667	0,5	1,076650
9,142000	0,5	1,063800
9,150333	0,5	1,060250
9,158667	0,5	1,059550
9,167000	0,5	1,057750
9,175333	0,5	1,054800
9,183667	0,5	1,059450
9,192000	0,5	1,060500
9,200333	0,5	1,068600
9,208667	0,5	1,073700
9,217000	0,5	1,078850
9,225333	0,5	1,084850
9,233667	0,5	1,089100
9,242000	0,5	1,096500
9,250333	0,5	1,103700
9,258667	0,5	1,107400
9,267000	0,5	1,114000
9,275333	0,5	1,116300
9,283667	0,5	1,109050
9,292000	0,5	1,104700
9,300333	0,5	1,101450
9,308667	0,5	1,093350
9,317000	0,5	1,085750
9,325333	0,5	1,078850
9,333667	0,5	1,072400
9,342000	0,5	1,074850
9,350333	0,5	1,076800
9,358667	0,5	1,083050
9,367000	0,5	1,087250
9,375333	0,5	1,091000
9,383667	0,5	1,092600
9,392000	0,5	1,093450
9,400333	0,5	1,091250
9,408667	0,5	1,090700
9,417000	0,5	1,084750
9,425333	0,5	1,086600
9,433667	0,5	1,083750
9,442000	0,5	1,083900
9,450333	0,5	1,083200
9,458667	0,5	1,081850
9,467000	0,5	1,071650
9,475333	0,5	1,068100
9,483667	0,5	1,069150
9,492000	0,5	1,071750
9,500333	0,5	1,073600
9,508667	0,5	1,081400
9,517000	0,5	1,090700
9,525333	0,5	1,101250
9,533667	0,5	1,110050
9,542000	0,5	1,120400
9,550333	0,5	1,128450
9,558667	0,5	1,128300
9,567000	0,5	1,130800
9,575333	0,5	1,122900
9,583667	0,5	1,111900
9,592000	0,5	1,100950
9,600333	0,5	1,095550
9,608667	0,5	1,085550
9,617000	0,5	1,079300
9,625333	0,5	1,071850
9,633667	0,5	1,070950
9,642000	0,5	1,064300
9,650333	0,5	1,057050
9,658667	0,5	1,049900
9,667000	0,5	1,043450
9,675333	0,5	1,036750
9,683667	0,5	1,033400
9,692000	0,5	1,031700
9,700333	0,5	1,032300
9,708667	0,5	1,035550
9,717000	0,5	1,034100
9,725333	0,5	1,037600
9,733667	0,5	1,041550
9,742000	0,5	1,049350
9,750333	0,5	1,059250
9,758667	0,5	1,063050
9,767000	0,5	1,066550
9,775333	0,5	1,061400
9,783667	0,5	1,057300
9,792000	0,5	1,051200
9,800333	0,5	1,036800
9,808667	0,5	1,027850
9,817000	0,5	1,012050
9,825333	0,5	1,003600
9,833667	0,5	0,991700
9,842000	0,5	0,987050
9,850333	0,5	0,978500
9,858667	0,5	0,977700
9,867000	0,5	0,976900
9,875333	0,5	0,973550
9,883667	0,5	0,969400
9,892000	0,5	0,973100
9,900333	0,5	0,973450
9,908667	0,5	0,974050
9,917000	0,5	0,970950
9,925333	0,5	0,966800
9,933667	0,5	0,970750
9,942000	0,5	0,972700
9,950333	0,5	0,976300
9,958667	0,5	0,972600
9,967000	0,5	0,975350
9,975333	0,5	0,974250
9,983667	0,5	0,974800
9,992000	0,5	0,975900
10,000333	0,5	0,976250
10,008667	0,5	0,979450
10,017000	0,5	0,982900
10,025333	0,5	0,977950
10,033667	0,5	0,972150
10,042000	0,5	0,968000
10,050333	0,5	0,965700
10,058667	0,5	0,961500
10,067000	0,5	0,954850
10,075333	0,5	0,959800
10,083667	0,5	0,962200
10,092000	0,5	0,967150
10,100333	0,5	0,969450
10,108667	0,5	0,967800
10,117000	0,5	0,964700
10,125333	0,5	0,957700
10,133667	0,5	0,948900
10,142000	0,5	0,941450
10,150333	0,5	0,936200
10,158667	0,5	0,933500
10,167000	0,5	0,941750
10,175333	0,5	0,954550
10,183667	0,5	0,965050
10,192000	0,5	0,984250
10,200333	0,5	1,000250
10,208667	0,5	1,007150
10,217000	0,5	1,010100
10,225333	0,5	1,009400
10,233667	0,5	1,006500
10,242000	0,5	1,001450
10,250333	0,5	0,999000
10,258667	0,5	0,990000
10,267000	0,5	0,979700
10,275333	0,5	0,969650
10,283667	0,5	0,953050
10,292000	0,5	0,936600
10,300333	0,5	0,923950
10,308667	0,5	0,911800
10,317000	0,5	0,902600
10,325333	0,5	0,892300
10,333667	0,5	0,887000
10,342000	0,5	0,885150
10,350333	0,5	0,882400
10,358667	0,5	0,877650
10,367000	0,5	0,875150
10,375333	0,5	0,877250
10,383667	0,5	0,877950
10,392000	0,5	0,875950
10,400333	0,5	0,879450
10,408667	0,5	0,876450
10,417000	0,5	0,875950
10,425333	0,5	0,874800
10,433667	0,5	0,871900
10,442000	0,5	0,867450
10,450333	0,5	0,864750
10,458667	0,5	0,857700
10,467000	0,5	0,850450
10,475333	0,5	0,842100
10,483667	0,5	0,839750
10,492000	0,5	0,833700
10,500333	0,5	0,832000
10,508667	0,5	0,831700
10,517000	0,5	0,838000
10,525333	0,5	0,847700
10,533667	0,5	0,866450
10,542000	0,5	0,887900
10,550333	0,5	0,905350
10,558667	0,5	0,921300
10,567000	0,5	0,930950
10,575333	0,5	0,932550
10,583667	0,5	0,923750
10,592000	0,5	0,913200
10,600333	0,5	0,900350
10,608667	0,5	0,879150
10,617000	0,5	0,867150
10,625333	0,5	0,843150
10,633667	0,5	0,827650
10,642000	0,5	0,810600
10,650333	0,5	0,798400
10,658667	0,5	0,784800
10,667000	0,5	0,769000
10,675333	0,5	0,763500
10,683667	0,5	0,757900
10,692000	0,5	0,749350
10,700333	0,5	0,744750
10,708667	0,5	0,739000
10,717000	0,5	0,739950
10,725333	0,5	0,736200
10,733667	0,5	0,733700
10,742000	0,5	0,735100
10,750333	0,5	0,729950
10,758667	0,5	0,733450
10,767000	0,5	0,733050
10,775333	0,5	0,731100
10,783667	0,5	0,735850
10,792000	0,5	0,730550
10,800333	0,5	0,728000
10,808667	0,5	0,725250
10,817000	0,5	0,719900
10,825333	0,5	0,728700
10,833667	0,5	0,730200
10,842000	0,5	0,747350
10,850333	0,5	0,759700
10,858667	0,5	0,778050
10,867000	0,5	0,782800
10,875333	0,5	0,787150
10,883667	0,5	0,780750
10,892000	0,5	0,767600
10,900333	0,5	0,754400
10,908667	0,5	0,736050
10,917000	0,5	0,716400
10,925333	0,5	0,708550
10,933667	0,5	0,692250
10,942000	0,5	0,683300
10,950333	0,5	0,679100
10,958667	0,5	0,673050
10,967000	0,5	0,670750
10,975333	0,5	0,674150
10,983667	0,5	0,677200
10,992000	0,5	0,675250
11,000333	0,5	0,674450
11,008667	0,5	0,670850
11,017000	0,5	0,665300
11,025333	0,5	0,661800
11,033667	0,5	0,657400
11,042000	0,5	0,658050
11,050333	0,5	0,655350
11,058667	0,5	0,653200
11,067000	0,5	0,653250
11,075333	0,5	0,652550
11,083667	0,5	0,654150
11,092000	0,5	0,650500
11,100333	0,5	0,650750
11,108667	0,5	0,645600
11,117000	0,5	0,651850
11,125333	0,5	0,661050
11,133667	0,5	0,663050
11,142000	0,5	0,673700
11,150333	0,5	0,676050
11,158667	0,5	0,678350
11,167000	0,5	0,674600
11,175333	0,5	0,669850
11,183667	0,5	0,659550
11,192000	0,5	0,651650
11,200333	0,5	0,645450
11,208667	0,5	0,636050
11,217000	0,5	0,622550
11,225333	0,5	0,619800
11,233667	0,5	0,611150
11,242000	0,5	0,604700
11,250333	0,5	0,594950
11,258667	0,5	0,587650
11,267000	0,5	0,582150
11,275333	0,5	0,578000
11,283667	0,5	0,575050
11,292000	0,5	0,570600
11,300333	0,5	0,567800
11,308667	0,5	0,567650
11,317000	0,5	0,566250
11,325333	0,5	0,567100
11,333667	0,5	0,563950
11,342000	0,5	0,567600
11,350333	0,5	0,575550
11,358667	0,5	0,572600
11,367000	0,5	0,581700
11,375333	0,5	0,586250
11,383667	0,5	0,590650
11,392000	0,5	0,590550
11,400333	0,5	0,584900
11,408667	0,5	0,584850
11,417000	0,5	0,583350
11,425333	0,5	0,573550
11,433667	0,5	0,556300
11,442000	0,5	0,545350
11,450333	0,5	0,536350
11,458667	0,5	0,523350
11,467000	0,5	0,514350
11,475333	0,5	0,502300
11,483667	0,5	0,496400
11,492000	0,5	0,496550
11,500333	0,5	0,495200
11,508667	0,5	0,488450
11,517000	0,5	0,489650
11,525333	0,5	0,490000
11,533667	0,5	0,487850
11,542000	0,5	0,486200
11,550333	0,5	0,481250
11,558667	0,5	0,481400
11,567000	0,5	0,482550
11,575333	0,5	0,484600
11,583667	0,5	0,482750
11,592000	0,5	0,488700
11,600333	0,5	0,486800
11,608667	0,5	0,490800
11,617000	0,5	0,489800
11,625333	0,5	0,495600
11,633667	0,5	0,491300
11,642000	0,5	0,488950
11,650333	0,5	0,491050
11,658667	0,5	0,480800
11,667000	0,5	0,478450
11,675333	0,5	0,472500
11,683667	0,5	0,468750
11,692000	0,5	0,463000
11,700333	0,5	0,457650
11,708667	0,5	0,455800
11,717000	0,5	0,462400
11,725333	0,5	0,465850
11,733667	0,5	0,478250
11,742000	0,5	0,488550
11,750333	0,5	0,506900
11,758667	0,5	0,527850
11,767000	0,5	0,545250
11,775333	0,5	0,554700
11,783667	0,5	0,560550
11,792000	0,5	0,561500
11,800333	0,5	0,549800
11,808667	0,5	0,535200
11,817000	0,5	0,524100
11,825333	0,5	0,509750
11,833667	0,5	0,502550
11,842000	0,5	0,490850
11,850333	0,5	0,486900
11,858667	0,5	0,484800
11,867000	0,5	0,487250
11,875333	0,5	0,487300
11,883667	0,5	0,487850
11,892000	0,5	0,486700
11,900333	0,5	0,489250
11,908667	0,5	0,489250
11,917000	0,5	0,487650
11,925333	0,5	0,487100
11,933667	0,5	0,483600
11,942000	0,5	0,482450
11,950333	0,5	0,472750
11,958667	0,5	0,472650
11,967000	0,5	0,468550
11,975333	0,5	0,459050
11,983667	0,5	0,453800
11,992000	0,5	0,445150
12,000333	0,5	0,443550
12,008667	0,5	0,442350
12,017000	0,5	0,440850
12,025333	0,5	0,437750
12,033667	0,5	0,436200
12,042000	0,5	0,439700
12,050333	0,5	0,440600
12,058667	0,5	0,439850
12,067000	0,5	0,438550
12,075333	0,5	0,436300
12,083667	0,5	0,440100
12,092000	0,5	0,434300
12,100333	0,5	0,428750
12,108667	0,5	0,429150
12,117000	0,5	0,427700
12,125333	0,5	0,420500
12,133667	0,5	0,414850
12,142000	0,5	0,409450
12,150333	0,5	0,409300
12,158667	0,5	0,404100
12,167000	0,5	0,399100
12,175333	0,5	0,392550
12,183667	0,5	0,386000
12,192000	0,5	0,379000
12,200333	0,5	0,371300
12,208667	0,5	0,364250
12,217000	0,5	0,355100
12,225333	0,5	0,352550
12,233667	0,5	0,349350
12,242000	0,5	0,340450
12,250333	0,5	0,336650
12,258667	0,5	0,341650
12,267000	0,5	0,337600
12,275333	0,5	0,333150
12,283667	0,5	0,324200
12,292000	0,5	0,322200
12,300333	0,5	0,321300
12,308667	0,5	0,323300
12,317000	0,5	0,320450
12,325333	0,5	0,317850
12,333667	0,5	0,315950
12,342000	0,5	0,320250
12,350333	0,5	0,320800
12,358667	0,5	0,322100
12,367000	0,5	0,324950
12,375333	0,5	0,325550
12,383667	0,5	0,327250
12,392000	0,5	0,317100
12,400333	0,5	0,315100
12,408667	0,5	0,312650
12,417000	0,5	0,309300
12,425333	0,5	0,298000
12,433667	0,5	0,289750
12,442000	0,5	0,287450
12,450333	0,5	0,289250
12,458667	0,5	0,283750
12,467000	0,5	0,281400
12,475333	0,5	0,275750
12,483667	0,5	0,272750
12,492000	0,5	0,272250
12,500333	0,5	0,269350
12,508667	0,5	0,267150
12,517000	0,5	0,263800
12,525333	0,5	0,263100
12,533667	0,5	0,261250
12,542000	0,5	0,252050
12,550333	0,5	0,250900
12,558667	0,5	0,248250
12,567000	0,5	0,247000
12,575333	0,5	0,244050
12,583667	0,5	0,235300
12,592000	0,5	0,235800
12,600333	0,5	0,234250
12,608667	0,5	0,236050
12,617000	0,5	0,234550
12,625333	0,5	0,233900
12,633667	0,5	0,230550
12,642000	0,5	0,233600
12,650333	0,5	0,233600
12,658667	0,5	0,226950
12,667000	0,5	0,226000
12,675333	0,5	0,226900
12,683667	0,5	0,222450
12,692000	0,5	0,215500
12,700333	0,5	0,218800
12,708667	0,5	0,215200
12,717000	0,5	0,211500
12,725333	0,5	0,202150
12,733667	0,5	0,195450
12,742000	0,5	0,196400
12,750333	0,5	0,198400
12,758667	0,5	0,196700
12,767000	0,5	0,199550
12,775333	0,5	0,196100
12,783667	0,5	0,189400
12,792000	0,5	0,180750
12,800333	0,5	0,169550
12,808667	0,5	0,161350
12,817000	0,5	0,149150
12,825333	0,5	0,136250
12,833667	0,5	0,123600
12,842000	0,5	0,110000
12,850333	0,5	0,099400
12,858667	0,5	0,075450
12,867000	0,5	0,047500
12,875333	0,5	0,000050
12,883667	0,5	-0,080000
12,892000	0,5	-0,196150
12,900333	0,5	-0,337450
12,908667	0,5	-0,464500
12,917000	0,5	-0,564300
12,925333	0,5	-0,636050
12,933667	0,5	-0,674050
12,942000	0,5	-0,699650
12,950333	0,5	-0,719200
12,958667	0,5	-0,736250
12,967000	0,5	-0,744350
12,975333	0,5	-0,759050
12,983667	0,5	-0,778950
12,992000	0,5	-0,781450
13,000333	0,5	-0,786100
13,008667	0,5	-0,794250
13,017000	0,5	-0,805750
13,025333	0,5	-0,815600
13,033667	0,5	-0,815000
13,042000	0,5	-0,813950
13,050333	0,5	-0,809700
13,058667	0,5	-0,809350
13,067000	0,5	-0,806000
13,075333	0,5	-0,803000
13,083667	0,5	-0,800800
13,092000	0,5	-0,795850
13,100333	0,5	-0,792550
13,108667	0,5	-0,791200
13,117000	0,5	-0,782600
13,125333	0,5	-0,787000
13,133667	0,5	-0,783500
13,142000	0,5	-0,773700
13,150333	0,5	-0,766900
13,158667	0,5	-0,765600
13,167000	0,5	-0,764600
13,175333	0,5	-0,762600
13,183667	0,5	-0,749900
13,192000	0,5	-0,743650
13,200333	0,5	-0,735400
13,208667	0,5	-0,728650
13,217000	0,5	-0,723050
13,225333	0,5	-0,720950
13,233667	0,5	-0,716300
13,242000	0,5	-0,711900
13,250333	0,5	-0,711450
13,258667	0,5	-0,706450
13,267000	0,5	-0,702050
13,275333	0,5	-0,700450
13,283667	0,5	-0,683750
13,292000	0,5	-0,672900
13,300333	0,5	-0,661550
13,308667	0,5	-0,646450
13,317000	0,5	-0,638250
13,325333	0,5	-0,625900
13,333667	0,5	-0,604750
13,342000	0,5	-0,590250
13,350333	0,5	-0,582450
13,358667	0,5	-0,571600
13,367000	0,5	-0,566250
13,375333	0,5	-0,567000
13,383667	0,5	-0,563150
13,392000	0,5	-0,561300
13,400333	0,5	-0,565350
13,408667	0,5	-0,569550
13,417000	0,5	-0,563150
13,425333	0,5	-0,574600
13,433667	0,5	-0,564750
13,442000	0,5	-0,566650
13,450333	0,5	-0,561350
13,458667	0,5	-0,563050
13,467000	0,5	-0,563300
13,475333	0,5	-0,555050
13,483667	0,5	-0,541200
13,492000	0,5	-0,532450
13,500333	0,5	-0,517750
13,508667	0,5	-0,507800
13,517000	0,5	-0,493150
13,525333	0,5	-0,483550
13,533667	0,5	-0,469200
13,542000	0,5	-0,460450
13,550333	0,5	-0,452050
13,558667	0,5	-0,446250
13,567000	0,5	-0,439650
13,575333	0,5	-0,443250
13,583667	0,5	-0,425800
13,592000	0,5	-0,416500
13,600333	0,5	-0,407500
13,608667	0,5	-0,395600
13,617000	0,5	-0,380250
13,625333	0,5	-0,359300
13,633667	0,5	-0,338650
13,642000	0,5	-0,314500
13,650333	0,5	-0,298800
13,658667	0,5	-0,282550
13,667000	0,5	-0,271400
13,675333	0,5	-0,261500
13,683667	0,5	-0,256700
13,692000	0,5	-0,250750
13,700333	0,5	-0,243500
13,708667	0,5	-0,236050
13,717000	0,5	-0,231050
13,725333	0,5	-0,224200
13,733667	0,5	-0,203150
13,742000	0,5	-0,193950
13,750333	0,5	-0,180950
13,758667	0,5	-0,179850
13,767000	0,5	-0,174050
13,775333	0,5	-0,168500
13,783667	0,5	-0,163200
13,792000	0,5	-0,160700
13,800333	0,5	-0,160400
13,808667	0,5	-0,159950
13,817000	0,5	-0,156350
13,825333	0,5	-0,163700
13,833667	0,5	-0,158400
13,842000	0,5	-0,155150
13,850333	0,5	-0,146600
13,858667	0,5	-0,147800
13,867000	0,5	-0,149850
13,875333	0,5	-0,144200
13,883667	0,5	-0,141000
13,892000	0,5	-0,147350
13,900333	0,5	-0,149900
13,908667	0,5	-0,159650
13,917000	0,5	-0,163150
13,925333	0,5	-0,166700
13,933667	0,5	-0,164700
13,942000	0,5	-0,165950
13,950333	0,5	-0,165850
13,958667	0,5	-0,166350
13,967000	0,5	-0,170400
13,975333	0,5	-0,168150
13,983667	0,5	-0,174650
13,992000	0,5	-0,176450
14,000333	0,5	-0,177150
14,008667	0,5	-0,179400
14,017000	0,5	-0,193800
14,025333	0,5	-0,186900
14,033667	0,5	-0,185050
14,042000	0,5	-0,189550
14,050333	0,5	-0,196250
14,058667	0,5	-0,202100
14,067000	0,5	-0,199950
14,075333	0,5	-0,200300
14,083667	0,5	-0,199500
14,092000	0,5	-0,202350
14,100333	0,5	-0,204000
14,108667	0,5	-0,207600
14,117000	0,5	-0,208400
14,125333	0,5	-0,219550
14,133667	0,5	-0,221200
14,142000	0,5	-0,223900
14,150333	0,5	-0,224950
14,158667	0,5	-0,240650
14,167000	0,5	-0,237950
14,175333	0,5	-0,240250
14,183667	0,5	-0,242950
14,192000	0,5	-0,251950
14,200333	0,5	-0,263100
14,208667	0,5	-0,269200
14,217000	0,5	-0,266700
14,225333	0,5	-0,274250
14,233667	0,5	-0,273950
14,242000	0,5	-0,280100
14,250333	0,5	-0,278000
14,258667	0,5	-0,281250
14,267000	0,5	-0,281650
14,275333	0,5	-0,283000
14,283667	0,5	-0,287550
14,292000	0,5	-0,288550
14,300333	0,5	-0,287800
14,308667	0,5	-0,299600
14,317000	0,5	-0,300050
14,325333	0,5	-0,298850
14,333667	0,5	-0,298750
14,342000	0,5	-0,301300
14,350333	0,5	-0,318200
14,358667	0,5	-0,316700
14,367000	0,5	-0,318700
14,375333	0,5	-0,319300
14,383667	0,5	-0,324200
14,392000	0,5	-0,323050
14,400333	0,5	-0,329800
14,408667	0,5	-0,327800
14,417000	0,5	-0,335050
14,425333	0,5	-0,337850
14,433667	0,5	-0,340550
14,442000	0,5	-0,346500
14,450333	0,5	-0,339950
14,458667	0,5	-0,354250
14,467000	0,5	-0,344000
14,475333	0,5	-0,347350
14,483667	0,5	-0,345250
14,492000	0,5	-0,355250
14,500333	0,5	-0,367400
14,508667	0,5	-0,366400
14,517000	0,5	-0,360050
14,525333	0,5	-0,370150
14,533667	0,5	-0,366200
14,542000	0,5	-0,370000
14,550333	0,5	-0,370550
14,558667	0,5	-0,375250
14,567000	0,5	-0,373500
14,575333	0,5	-0,379450
14,583667	0,5	-0,381950
14,592000	0,5	-0,382800
14,600333	0,5	-0,383850
14,608667	0,5	-0,394450
14,617000	0,5	-0,389050
14,625333	0,5	-0,394800
14,633667	0,5	-0,396750
14,642000	0,5	-0,404900
14,650333	0,5	-0,412600
14,658667	0,5	-0,411900
14,667000	0,5	-0,416550
14,675333	0,5	-0,413050
14,683667	0,5	-0,417200
14,692000	0,5	-0,418200
14,700333	0,5	-0,417500
14,708667	0,5	-0,417650
14,717000	0,5	-0,423150
14,725333	0,5	-0,428150
14,733667	0,5	-0,422650
14,742000	0,5	-0,419650
14,750333	0,5	-0,429500
14,758667	0,5	-0,429350
14,767000	0,5	-0,429050
14,775333	0,5	-0,433150
14,783667	0,5	-0,440250
14,792000	0,5	-0,451050
14,800333	0,5	-0,454750
14,808667	0,5	-0,459900
14,817000	0,5	-0,457900
14,825333	0,5	-0,459900
14,833667	0,5	-0,457100
14,842000	0,5	-0,459000
14,850333	0,5	-0,460400
14,858667	0,5	-0,463550
14,867000	0,5	-0,465800
14,875333	0,5	-0,467000
14,883667	0,5	-0,463500
14,892000	0,5	-0,469250
14,900333	0,5	-0,474600
14,908667	0,5	-0,473950
14,917000	0,5	-0,474750
14,925333	0,5	-0,481700
14,933667	0,5	-0,487550
14,942000	0,5	-0,497900
14,950333	0,5	-0,501750
14,958667	0,5	-0,497650
14,967000	0,5	-0,502200
14,975333	0,5	-0,503200
14,983667	0,5	-0,506900
14,992000	0,5	-0,501950
15,000333	0,5	-0,504300
15,008667	0,5	-0,504700
15,017000	0,5	-0,513200
15,025333	0,5	-0,514700
15,033667	0,5	-0,512550
15,042000	0,5	-0,519250
15,050333	0,5	-0,523000
15,058667	0,5	-0,511650
15,067000	0,5	-0,514000
15,075333	0,5	-0,516200
15,083667	0,5	-0,529100
15,092000	0,5	-0,532450
15,100333	0,5	-0,530500
15,108667	0,5	-0,534050
15,117000	0,5	-0,538700
15,125333	0,5	-0,541000
15,133667	0,5	-0,538250
15,142000	0,5	-0,535900
15,150333	0,5	-0,536000
15,158667	0,5	-0,537550
15,167000	0,5	-0,537900
15,175333	0,5	-0,537650
15,183667	0,5	-0,532350
15,192000	0,5	-0,547800
15,200333	0,5	-0,540250
15,208667	0,5	-0,543900
15,217000	0,5	-0,549100
15,225333	0,5	-0,556300
15,233667	0,5	-0,564000
15,242000	0,5	-0,564400
15,250333	0,5	-0,559300
15,258667	0,5	-0,562100
15,267000	0,5	-0,566650
15,275333	0,5	-0,566650
15,283667	0,5	-0,567150
15,292000	0,5	-0,569900
15,300333	0,5	-0,568100
15,308667	0,5	-0,564650
15,317000	0,5	-0,570850
15,325333	0,5	-0,569050
15,333667	0,5	-0,566000
15,342000	0,5	-0,579450
15,350333	0,5	-0,571000
15,358667	0,5	-0,571700
15,367000	0,5	-0,575050
15,375333	0,5	-0,578600
15,383667	0,5	-0,598650
15,392000	0,5	-0,592800
15,400333	0,5	-0,591750
15,408667	0,5	-0,591750
15,417000	0,5	-0,603700
15,425333	0,5	-0,599350
15,433667	0,5	-0,596450
15,442000	0,5	-0,597200
15,450333	0,5	-0,597750
15,458667	0,5	-0,604500
15,467000	0,5	-0,604350
15,475333	0,5	-0,607100
15,483667	0,5	-0,607200
15,492000	0,5	-0,620400
15,500333	0,5	-0,609900
15,508667	0,5	-0,611500
15,517000	0,5	-0,619450
15,525333	0,5	-0,632450
15,533667	0,5	-0,641150
15,542000	0,5	-0,639000
15,550333	0,5	-0,635550
15,558667	0,5	-0,640450
15,567000	0,5	-0,641200
15,575333	0,5	-0,644100
15,583667	0,5	-0,641000
15,592000	0,5	-0,642250
15,600333	0,5	-0,644750
15,608667	0,5	-0,645050
15,617000	0,5	-0,652850
15,625333	0,5	-0,649450
15,633667	0,5	-0,657950
15,642000	0,5	-0,659250
15,650333	0,5	-0,655650
15,658667	0,5	-0,660400
15,667000	0,5	-0,664500
15,675333	0,5	-0,673450
15,683667	0,5	-0,687500
15,692000	0,5	-0,679900
15,700333	0,5	-0,680600
15,708667	0,5	-0,680700
15,717000	0,5	-0,690500
15,725333	0,5	-0,686050
15,733667	0,5	-0,689700
15,742000	0,5	-0,686050
15,750333	0,5	-0,688700
15,758667	0,5	-0,689750
15,767000	0,5	-0,685900
15,775333	0,5	-0,690600
15,783667	0,5	-0,701400
15,792000	0,5	-0,694500
15,800333	0,5	-0,692050
15,808667	0,5	-0,697600
15,817000	0,5	-0,711900
15,825333	0,5	-0,719050
15,833667	0,5	-0,719250
15,842000	0,5	-0,716450
15,850333	0,5	-0,712550
15,858667	0,5	-0,717250
15,867000	0,5	-0,711550
15,875333	0,5	-0,716550
15,883667	0,5	-0,710500
15,892000	0,5	-0,715100
15,900333	0,5	-0,713600
15,908667	0,5	-0,717250
15,917000	0,5	-0,716250
15,925333	0,5	-0,720500
15,933667	0,5	-0,722300
15,942000	0,5	-0,718250
15,950333	0,5	-0,718800
15,958667	0,5	-0,723150
15,967000	0,5	-0,735750
15,975333	0,5	-0,741800
15,983667	0,5	-0,738500
15,992000	0,5	-0,739250
16,000333	0,5	-0,741450
16,008667	0,5	-0,746550
16,017000	0,5	-0,748250
16,025333	0,5	-0,747400
16,033667	0,5	-0,749500
16,042000	0,5	-0,747650
16,050333	0,5	-0,754400
16,058667	0,5	-0,752200
16,067000	0,5	-0,754250
16,075333	0,5	-0,762550
16,083667	0,5	-0,763550
16,092000	0,5	-0,753850
16,100333	0,5	-0,757850
16,108667	0,5	-0,757600
16,117000	0,5	-0,781750
16,125333	0,5	-0,779550
16,133667	0,5	-0,775800
16,142000	0,5	-0,776800
16,150333	0,5	-0,778650
16,158667	0,5	-0,777000
16,167000	0,5	-0,776150
16,175333	0,5	-0,780500
16,183667	0,5	-0,775900
16,192000	0,5	-0,780650
16,200333	0,5	-0,781500
16,208667	0,5	-0,780800
16,217000	0,5	-0,783350
16,225333	0,5	-0,800850
16,233667	0,5	-0,786750
16,242000	0,5	-0,788150
16,250333	0,5	-0,793000
16,258667	0,5	-0,802700
16,267000	0,5	-0,816750
16,275333	0,5	-0,814050
16,283667	0,5	-0,808350
16,292000	0,5	-0,808500
16,300333	0,5	-0,810150
16,308667	0,5	-0,810750
16,317000	0,5	-0,814500
16,325333	0,5	-0,810050
16,333667	0,5	-0,814150
16,342000	0,5	-0,806250
16,350333	0,5	-0,809200
16,358667	0,5	-0,799250
16,367000	0,5	-0,806900
16,375333	0,5	-0,817450
16,383667	0,5	-0,808800
16,392000	0,5	-0,809550
16,400333	0,5	-0,816400
16,408667	0,5	-0,821150
16,417000	0,5	-0,838550
16,425333	0,5	-0,825800
16,433667	0,5	-0,826700
16,442000	0,5	-0,821650
16,450333	0,5	-0,827200
16,458667	0,5	-0,823700
16,467000	0,5	-0,824650
16,475333	0,5	-0,820000
16,483667	0,5	-0,820850
16,492000	0,5	-0,824300
16,500333	0,5	-0,820500
16,508667	0,5	-0,820950
16,517000	0,5	-0,827150
16,525333	0,5	-0,827950
16,533667	0,5	-0,820800
16,542000	0,5	-0,824650
16,550333	0,5	-0,830000
16,558667	0,5	-0,841350
16,567000	0,5	-0,845200
16,575333	0,5	-0,842850
16,583667	0,5	-0,837150
16,592000	0,5	-0,844000
16,600333	0,5	-0,838050
16,608667	0,5	-0,845550
16,617000	0,5	-0,847250
16,625333	0,5	-0,849100
16,633667	0,5	-0,848450
16,642000	0,5	-0,848800
16,650333	0,5	-0,850950
16,658667	0,5	-0,844500
16,667000	0,5	-0,851650
16,675333	0,5	-0,851500
16,683667	0,5	-0,844050
16,692000	0,5	-0,845450
16,700333	0,5	-0,855350
16,708667	0,5	-0,868250
16,717000	0,5	-0,873250
16,725333	0,5	-0,863800
16,733667	0,5	-0,868600
16,742000	0,5	-0,862800
16,750333	0,5	-0,867300
16,758667	0,5	-0,861650
16,767000	0,5	-0,863850
16,775333	0,5	-0,859350
16,783667	0,5	-0,859450
16,792000	0,5	-0,859600
16,800333	0,5	-0,850950
16,808667	0,5	-0,854400
16,817000	0,5	-0,864850
16,825333	0,5	-0,854700
16,833667	0,5	-0,853450
16,842000	0,5	-0,855200
16,850333	0,5	-0,862550
16,858667	0,5	-0,878950
16,867000	0,5	-0,873750
16,875333	0,5	-0,871900
16,883667	0,5	-0,867850
16,892000	0,5	-0,867400
16,900333	0,5	-0,858800
16,908667	0,5	-0,866800
16,917000	0,5	-0,860300
16,925333	0,5	-0,856800
16,933667	0,5	-0,851900
16,942000	0,5	-0,846700
16,950333	0,5	-0,834900
16,958667	0,5	-0,848650
16,967000	0,5	-0,836000
16,975333	0,5	-0,831900
16,983667	0,5	-0,835050
16,992000	0,5	-0,833000
17,000333	0,5	-0,843150
17,008667	0,5	-0,841350
17,017000	0,5	-0,842600
17,025333	0,5	-0,837100
17,033667	0,5	-0,837850
17,042000	0,5	-0,836200
17,050333	0,5	-0,835100
17,058667	0,5	-0,829900
17,067000	0,5	-0,829550
17,075333	0,5	-0,826000
17,083667	0,5	-0,823450
17,092000	0,5	-0,818400
17,100333	0,5	-0,817900
17,108667	0,5	-0,830200
17,117000	0,5	-0,817950
17,125333	0,5	-0,809200
17,133667	0,5	-0,809800
17,142000	0,5	-0,808250
17,150333	0,5	-0,820650
17,158667	0,5	-0,816850
17,167000	0,5	-0,814350
17,175333	0,5	-0,811850
17,183667	0,5	-0,808500
17,192000	0,5	-0,805750
17,200333	0,5	-0,799150
17,208667	0,5	-0,801650
17,217000	0,5	-0,793350
17,225333	0,5	-0,795050
17,233667	0,5	-0,787750
17,242000	0,5	-0,783950
17,250333	0,5	-0,781700
17,258667	0,5	-0,784500
17,267000	0,5	-0,771150
17,275333	0,5	-0,766500
17,283667	0,5	-0,760800
17,292000	0,5	-0,770350
17,300333	0,5	-0,775500
17,308667	0,5	-0,768950
17,317000	0,5	-0,762650
17,325333	0,5	-0,757550
17,333667	0,5	-0,757800
17,342000	0,5	-0,754000
17,350333	0,5	-0,749500
17,358667	0,5	-0,745100
17,367000	0,5	-0,744300
17,375333	0,5	-0,739450
17,383667	0,5	-0,742150
17,392000	0,5	-0,730450
17,400333	0,5	-0,740650
17,408667	0,5	-0,740300
17,417000	0,5	-0,732350
17,425333	0,5	-0,735100
17,433667	0,5	-0,737250
17,442000	0,5	-0,748500
17,450333	0,5	-0,751400
17,458667	0,5	-0,746150
17,467000	0,5	-0,748200
17,475333	0,5	-0,744150
17,483667	0,5	-0,746200
17,492000	0,5	-0,745350
17,500333	0,5	-0,743950
17,508667	0,5	-0,745850
17,517000	0,5	-0,745900
17,525333	0,5	-0,748300
17,533667	0,5	-0,737400
17,542000	0,5	-0,742750
17,550333	0,5	-0,751000
17,558667	0,5	-0,742950
17,567000	0,5	-0,742100
17,575333	0,5	-0,745100
17,583667	0,5	-0,752850
17,592000	0,5	-0,771000
17,600333	0,5	-0,771700
17,608667	0,5	-0,774750
17,617000	0,5	-0,767500
17,625333	0,5	-0,770950
17,633667	0,5	-0,768900
17,642000	0,5	-0,769800
17,650333	0,5	-0,767600
17,658667	0,5	-0,773000
17,667000	0,5	-0,775800
17,675333	0,5	-0,775000
17,683667	0,5	-0,772600
17,692000	0,5	-0,772600
17,700333	0,5	-0,779700
17,708667	0,5	-0,776050
17,717000	0,5	-0,782800
17,725333	0,5	-0,786450
17,733667	0,5	-0,799500
17,742000	0,5	-0,809000
17,750333	0,5	-0,811050
17,758667	0,5	-0,804800
17,767000	0,5	-0,810200
17,775333	0,5	-0,812000
17,783667	0,5	-0,813200
17,792000	0,5	-0,809900
17,800333	0,5	-0,810500
17,808667	0,5	-0,816000
17,817000	0,5	-0,815550
17,825333	0,5	-0,821500
17,833667	0,5	-0,815350
17,842000	0,5	-0,828300
17,850333	0,5	-0,826500
17,858667	0,5	-0,820050
17,867000	0,5	-0,823300
17,875333	0,5	-0,835800
17,883667	0,5	-0,850150
17,892000	0,5	-0,857600
17,900333	0,5	-0,852000
17,908667	0,5	-0,868600
17,917000	0,5	-0,860200
17,925333	0,5	-0,866500
17,933667	0,5	-0,860950
17,942000	0,5	-0,868900
17,950333	0,5	-0,870800
17,958667	0,5	-0,874250
17,967000	0,5	-0,876950
17,975333	0,5	-0,870500
17,983667	0,5	-0,875950
17,992000	0,5	-0,888950
18,000333	0,5	-0,885300
18,008667	0,5	-0,887200
18,017000	0,5	-0,893350
18,025333	0,5	-0,905400
18,033667	0,5	-0,923450
18,042000	0,5	-0,920250
18,050333	0,5	-0,926300
18,058667	0,5	-0,926250
18,067000	0,5	-0,934700
18,075333	0,5	-0,934450
18,083667	0,5	-0,942150
18,092000	0,5	-0,940500
18,100333	0,5	-0,947800
18,108667	0,5	-0,952200
18,117000	0,5	-0,958200
18,125333	0,5	-0,950800
18,133667	0,5	-0,966050
18,142000	0,5	-0,973850
18,150333	0,5	-0,972750
18,158667	0,5	-0,974100
18,167000	0,5	-0,983300
18,175333	0,5	-0,998650
18,183667	0,5	-1,009750
18,192000	0,5	-1,011950
18,200333	0,5	-1,014200
18,208667	0,5	-1,024000
18,217000	0,5	-1,021250
18,225333	0,5	-1,029100
18,233667	0,5	-1,026100
18,242000	0,5	-1,031500
18,250333	0,5	-1,034950
18,258667	0,5	-1,040200
18,267000	0,5	-1,045050
18,275333	0,5	-1,040900
18,283667	0,5	-1,053200
18,292000	0,5	-1,048300
18,300333	0,5	-1,052000
18,308667	0,5	-1,054900
18,317000	0,5	-1,061350
18,325333	0,5	-1,076550
18,333667	0,5	-1,078650
18,342000	0,5	-1,075000
18,350333	0,5	-1,082200
18,358667	0,5	-1,081900
18,367000	0,5	-1,086700
18,375333	0,5	-1,082850
18,383667	0,5	-1,091900
18,392000	0,5	-1,088950
18,400333	0,5	-1,098950
18,408667	0,5	-1,102100
18,417000	0,5	-1,096550
18,425333	0,5	-1,093900
18,433667	0,5	-1,113100
18,442000	0,5	-1,098950
18,450333	0,5	-1,102500
18,458667	0,5	-1,107950
18,467000	0,5	-1,118500
18,475333	0,5	-1,133350
18,483667	0,5	-1,130100
18,492000	0,5	-1,131200
18,500333	0,5	-1,138200
18,508667	0,5	-1,143700
18,517000	0,5	-1,145350
18,525333	0,5	-1,146250
18,533667	0,5	-1,137450
18,542000	0,5	-1,144950
18,550333	0,5	-1,143500
18,558667	0,5	-1,147400
18,567000	0,5	-1,140050
18,575333	0,5	-1,146100
18,583667	0,5	-1,152000
18,592000	0,5	-1,147500
18,600333	0,5	-1,156700
18,608667	0,5	-1,166900
18,617000	0,5	-1,173400
18,625333	0,5	-1,183950
18,633667	0,5	-1,182700
18,642000	0,5	-1,185150
18,650333	0,5	-1,185650
18,658667	0,5	-1,184350
18,667000	0,5	-1,187150
18,675333	0,5	-1,186200
18,683667	0,5	-1,189700
18,692000	0,5	-1,187450
18,700333	0,5	-1,196550
18,708667	0,5	-1,185600
18,717000	0,5	-1,187000
18,725333	0,5	-1,192450
18,733667	0,5	-1,189850
18,742000	0,5	-1,188450
18,750333	0,5	-1,196350
18,758667	0,5	-1,198950
18,767000	0,5	-1,213650
18,775333	0,5	-1,214400
18,783667	0,5	-1,211850
18,792000	0,5	-1,209450
18,800333	0,5	-1,215550
18,808667	0,5	-1,215600
18,817000	0,5	-1,213700
18,825333	0,5	-1,211800
18,833667	0,5	-1,213450
18,842000	0,5	-1,214700
18,850333	0,5	-1,212100
18,858667	0,5	-1,208650
18,867000	0,5	-1,211200
18,875333	0,5	-1,219100
18,883667	0,5	-1,211900
18,892000	0,5	-1,211650
18,900333	0,5	-1,213850
18,908667	0,5	-1,233050
18,917000	0,5	-1,237150
18,925333	0,5	-1,239850
18,933667	0,5	-1,234250
18,942000	0,5	-1,234950
18,950333	0,5	-1,236900
18,958667	0,5	-1,238000
18,967000	0,5	-1,235500
18,975333	0,5	-1,235150
18,983667	0,5	-1,239550
18,992000	0,5	-1,240300
19,000333	0,5	-1,245450
19,008667	0,5	-1,233250
19,017000	0,5	-1,246800
19,025333	0,5	-1,242600
19,033667	0,5	-1,242150
19,042000	0,5	-1,241850
19,050333	0,5	-1,250850
19,058667	0,5	-1,262200
19,067000	0,5	-1,269300
19,075333	0,5	-1,262400
19,083667	0,5	-1,266650
19,092000	0,5	-1,264550
19,100333	0,5	-1,279800
19,108667	0,5	-1,278650
19,117000	0,5	-1,279800
19,125333	0,5	-1,275500
19,133667	0,5	-1,279350
19,142000	0,5	-1,284550
19,150333	0,5	-1,280450
19,158667	0,5	-1,279500
19,167000	0,5	-1,298800
19,175333	0,5	-1,285900
19,183667	0,5	-1,286350
19,192000	0,5	-1,292800
19,200333	0,5	-1,303700
19,208667	0,5	-1,322400
19,217000	0,5	-1,313150
19,225333	0,5	-1,320000
19,233667	0,5	-1,319150
19,242000	0,5	-1,330250
19,250333	0,5	-1,324250
19,258667	0,5	-1,335500
19,267000	0,5	-1,332350
19,275333	0,5	-1,332350
19,283667	0,5	-1,341000
19,292000	0,5	-1,341400
19,300333	0,5	-1,349700
19,308667	0,5	-1,350900
19,317000	0,5	-1,359250
19,325333	0,5	-1,342900
19,333667	0,5	-1,348450
19,342000	0,5	-1,354050
19,350333	0,5	-1,367750
19,358667	0,5	-1,380550
19,367000	0,5	-1,377150
19,375333	0,5	-1,372300
19,383667	0,5	-1,384250
19,392000	0,5	-1,383050
19,400333	0,5	-1,397500
19,408667	0,5	-1,395200
19,417000	0,5	-1,397350
19,425333	0,5	-1,397200
19,433667	0,5	-1,399850
19,442000	0,5	-1,405050
19,450333	0,5	-1,395250
19,458667	0,5	-1,405500
19,467000	0,5	-1,407900
19,475333	0,5	-1,402050
19,483667	0,5	-1,409300
19,492000	0,5	-1,416650
19,500333	0,5	-1,430750
19,508667	0,5	-1,441100
19,517000	0,5	-1,430950
19,525333	0,5	-1,437800
19,533667	0,5	-1,432550
19,542000	0,5	-1,440550
19,550333	0,5	-1,439050
19,558667	0,5	-1,441000
19,567000	0,5	-1,440250
19,575333	0,5	-1,440050
19,583667	0,5	-1,439500
19,592000	0,5	-1,437500
19,600333	0,5	-1,436400
19,608667	0,5	-1,450800
19,617000	0,5	-1,442100
19,625333	0,5	-1,443350
19,633667	0,5	-1,446550
19,642000	0,5	-1,457450
19,650333	0,5	-1,474250
19,658667	0,5	-1,475900
19,667000	0,5	-1,478550
19,675333	0,5	-1,472950
19,683667	0,5	-1,478550
19,692000	0,5	-1,473800
19,700333	0,5	-1,480550
19,708667	0,5	-1,476700
19,717000	0,5	-1,478950
19,725333	0,5	-1,478950
19,733667	0,5	-1,477000
19,742000	0,5	-1,470250
19,750333	0,5	-1,478300
19,758667	0,5	-1,487000
19,767000	0,5	-1,478350
19,775333	0,5	-1,486200
19,783667	0,5	-1,492150
19,792000	0,5	-1,515550
19,800333	0,5	-1,522650
19,808667	0,5	-1,524350
19,817000	0,5	-1,516500
19,825333	0,5	-1,521500
19,833667	0,5	-1,521100
19,842000	0,5	-1,527050
19,850333	0,5	-1,524250
19,858667	0,5	-1,525800
19,867000	0,5	-1,520100
19,875333	0,5	-1,526100
19,883667	0,5	-1,515750
19,892000	0,5	-1,516800
19,900333	0,5	-1,525650
19,908667	0,5	-1,521050
19,917000	0,5	-1,513150
19,925333	0,5	-1,514750
19,933667	0,5	-1,521050
19,942000	0,5	-1,535600
19,950333	0,5	-1,540850
19,958667	0,5	-1,536150
19,967000	0,5	-1,536600
19,975333	0,5	-1,529050
19,983667	0,5	-1,527300
19,992000	0,5	-1,527150
20,000333	0,5	-1,530150
20,008667	0,5	-1,520800
20,017000	0,5	-1,520650
20,025333	0,5	-1,513100
20,033667	0,5	-1,503550
20,042000	0,5	-1,501550
20,050333	0,5	-1,513050
20,058667	0,5	-1,499900
20,067000	0,5	-1,496800
20,075333	0,5	-1,503900
20,083667	0,5	-1,512900
20,092000	0,5	-1,530450
20,100333	0,5	-1,515200
20,108667	0,5	-1,518300
20,117000	0,5	-1,517050
20,125333	0,5	-1,518750
20,133667	0,5	-1,517400
20,142000	0,5	-1,517100
20,150333	0,5	-1,515150
20,158667	0,5	-1,515100
20,167000	0,5	-1,509450
20,175333	0,5	-1,509850
20,183667	0,5	-1,497700
20,192000	0,5	-1,516850
20,200333	0,5	-1,510450
20,208667	0,5	-1,500650
20,217000	0,5	-1,496850
20,225333	0,5	-1,498400
20,233667	0,5	-1,513700
20,242000	0,5	-1,513000
20,250333	0,5	-1,507150
20,258667	0,5	-1,502000
20,267000	0,5	-1,503450
20,275333	0,5	-1,499900
20,283667	0,5	-1,499500
20,292000	0,5	-1,499250
20,300333	0,5	-1,490400
20,308667	0,5	-1,488900
20,317000	0,5	-1,489450
20,325333	0,5	-1,479600
20,333667	0,5	-1,476600
20,342000	0,5	-1,483950
20,350333	0,5	-1,473600
20,358667	0,5	-1,470550
20,367000	0,5	-1,475800
20,375333	0,5	-1,483200
20,383667	0,5	-1,505800
20,392000	0,5	-1,508900
20,400333	0,5	-1,504550
20,408667	0,5	-1,507250
20,417000	0,5	-1,507950
20,425333	0,5	-1,509450
20,433667	0,5	-1,511550
20,442000	0,5	-1,511650
20,450333	0,5	-1,510800
20,458667	0,5	-1,516200
20,467000	0,5	-1,512400
20,475333	0,5	-1,504050
20,483667	0,5	-1,497950
20,492000	0,5	-1,512100
20,500333	0,5	-1,501800
20,508667	0,5	-1,508700
20,517000	0,5	-1,511500
20,525333	0,5	-1,520950
20,533667	0,5	-1,530050
20,542000	0,5	-1,525650
20,550333	0,5	-1,520950
20,558667	0,5	-1,527900
20,567000	0,5	-1,524350
20,575333	0,5	-1,524950
20,583667	0,5	-1,521850
20,592000	0,5	-1,524100
20,600333	0,5	-1,522100
20,608667	0,5	-1,516550
20,617000	0,5	-1,507350
20,625333	0,5	-1,492350
20,633667	0,5	-1,494500
20,642000	0,5	-1,494550
20,650333	0,5	-1,496600
20,658667	0,5	-1,496300
20,667000	0,5	-1,505750
20,675333	0,5	-1,516150
20,683667	0,5	-1,522250
20,692000	0,5	-1,521300
20,700333	0,5	-1,517700
20,708667	0,5	-1,506550
20,717000	0,5	-1,502650
20,725333	0,5	-1,499500
20,733667	0,5	-1,494300
20,742000	0,5	-1,490950
20,750333	0,5	-1,487000
20,758667	0,5	-1,486800
20,767000	0,5	-1,458850
20,775333	0,5	-1,451700
20,783667	0,5	-1,458500
20,792000	0,5	-1,461650
20,800333	0,5	-1,461850
20,808667	0,5	-1,468900
20,817000	0,5	-1,479400
20,825333	0,5	-1,489900
20,833667	0,5	-1,485750
20,842000	0,5	-1,486450
20,850333	0,5	-1,476650
20,858667	0,5	-1,478550
20,867000	0,5	-1,468300
20,875333	0,5	-1,468750
20,883667	0,5	-1,460900
20,892000	0,5	-1,463300
20,900333	0,5	-1,461550
20,908667	0,5	-1,443850
20,917000	0,5	-1,432150
20,925333	0,5	-1,424950
20,933667	0,5	-1,429700
20,942000	0,5	-1,424850
20,950333	0,5	-1,432700
20,958667	0,5	-1,436650
20,967000	0,5	-1,454100
20,975333	0,5	-1,448700
20,983667	0,5	-1,443750
20,992000	0,5	-1,447700
21,000333	0,5	-1,446500
21,008667	0,5	-1,436100
21,017000	0,5	-1,434500
21,025333	0,5	-1,426550
21,033667	0,5	-1,427500
21,042000	0,5	-1,424950
21,050333	0,5	-1,417950
21,058667	0,5	-1,394850
21,067000	0,5	-1,377000
21,075333	0,5	-1,377300
21,083667	0,5	-1,375050
21,092000	0,5	-1,376250
21,100333	0,5	-1,374550
21,108667	0,5	-1,384350
21,117000	0,5	-1,389750
21,125333	0,5	-1,380500
21,133667	0,5	-1,373700
21,142000	0,5	-1,371550
21,150333	0,5	-1,366900
21,158667	0,5	-1,365600
21,167000	0,5	-1,358400
21,175333	0,5	-1,352900
21,183667	0,5	-1,350100
21,192000	0,5	-1,348950
21,200333	0,5	-1,338400
21,208667	0,5	-1,313100
21,217000	0,5	-1,296000
21,225333	0,5	-1,298650
21,233667	0,5	-1,296700
21,242000	0,5	-1,293600
21,250333	0,5	-1,300650
21,258667	0,5	-1,306500
21,267000	0,5	-1,303400
21,275333	0,5	-1,289200
21,283667	0,5	-1,288550
21,292000	0,5	-1,281750
21,300333	0,5	-1,276550
21,308667	0,5	-1,267700
21,317000	0,5	-1,264300
21,325333	0,5	-1,254400
21,333667	0,5	-1,246700
21,342000	0,5	-1,246100
21,350333	0,5	-1,218100
21,358667	0,5	-1,199750
21,367000	0,5	-1,195450
21,375333	0,5	-1,193800
21,383667	0,5	-1,187300
21,392000	0,5	-1,199100
21,400333	0,5	-1,199950
21,408667	0,5	-1,203600
21,417000	0,5	-1,187600
21,425333	0,5	-1,178050
21,433667	0,5	-1,162300
21,442000	0,5	-1,152350
21,450333	0,5	-1,128400
21,458667	0,5	-1,109450
21,467000	0,5	-1,079750
21,475333	0,5	-1,050850
21,483667	0,5	-1,028000
21,492000	0,5	-1,013650
21,500333	0,5	-0,979950
21,508667	0,5	-0,967100
21,517000	0,5	-0,973350
21,525333	0,5	-0,974350
21,533667	0,5	-0,992600
21,542000	0,5	-0,996200
21,550333	0,5	-1,010350
21,558667	0,5	-1,012850
21,567000	0,5	-1,005400
21,575333	0,5	-0,986850
21,583667	0,5	-0,976000
21,592000	0,5	-0,966550
21,600333	0,5	-0,956700
21,608667	0,5	-0,934250
21,617000	0,5	-0,918150
21,625333	0,5	-0,905400
21,633667	0,5	-0,892150
21,642000	0,5	-0,863950
21,650333	0,5	-0,844400
21,658667	0,5	-0,822750
21,667000	0,5	-0,813650
21,675333	0,5	-0,799550
21,683667	0,5	-0,789200
21,692000	0,5	-0,791800
21,700333	0,5	-0,777150
21,708667	0,5	-0,767450
21,717000	0,5	-0,744100
21,725333	0,5	-0,731350
21,733667	0,5	-0,707950
21,742000	0,5	-0,688150
21,750333	0,5	-0,671650
21,758667	0,5	-0,656900
21,767000	0,5	-0,637650
21,775333	0,5	-0,618550
21,783667	0,5	-0,602600
21,792000	0,5	-0,565500
21,800333	0,5	-0,551000
21,808667	0,5	-0,544000
21,817000	0,5	-0,527250
21,825333	0,5	-0,512700
21,833667	0,5	-0,500050
21,842000	0,5	-0,489600
21,850333	0,5	-0,475900
21,858667	0,5	-0,448300
21,867000	0,5	-0,429800
21,875333	0,5	-0,403350
21,883667	0,5	-0,389350
21,892000	0,5	-0,363300
21,900333	0,5	-0,344900
21,908667	0,5	-0,317900
21,917000	0,5	-0,297650
21,925333	0,5	-0,277900
21,933667	0,5	-0,242050
21,942000	0,5	-0,212050
21,950333	0,5	-0,199900
21,958667	0,5	-0,176350
21,967000	0,5	-0,147650
21,975333	0,5	-0,134150
21,983667	0,5	-0,111700
21,992000	0,5	-0,102500
22,000333	0,5	-0,065950
22,008667	0,5	-0,037200
22,017000	0,5	0,003650
22,025333	0,5	0,034000
22,033667	0,5	0,074900
22,042000	0,5	0,105600
22,050333	0,5	0,141350
22,058667	0,5	0,168850
22,067000	0,5	0,192950
22,075333	0,5	0,217950
22,083667	0,5	0,238650
22,092000	0,5	0,258800
22,100333	0,5	0,281300
22,108667	0,5	0,312050
22,117000	0,5	0,336350
22,125333	0,5	0,360050
22,133667	0,5	0,374900
22,142000	0,5	0,404150
22,150333	0,5	0,448700
22,158667	0,5	0,485050
22,167000	0,5	0,521750
22,175333	0,5	0,561700
22,183667	0,5	0,592750
22,192000	0,5	0,634600
22,200333	0,5	0,681050
22,208667	0,5	0,723650
22,217000	0,5	0,769800
22,225333	0,5	0,803700
22,233667	0,5	0,854200
22,242000	0,5	0,877200
22,250333	0,5	0,940000
22,258667	0,5	0,983650
22,267000	0,5	1,022300
22,275333	0,5	1,059850
22,283667	0,5	1,086050
22,292000	0,5	1,140700
22,300333	0,5	1,199450
22,308667	0,5	1,245050
22,317000	0,5	1,293950
22,325333	0,5	1,349700
22,333667	0,5	1,402650
22,342000	0,5	1,451400
22,350333	0,5	1,501900
22,358667	0,5	1,554100
22,367000	0,5	1,601250
22,375333	0,5	1,632250
22,383667	0,5	1,681550
22,392000	0,5	1,739000
22,400333	0,5	1,813150
22,408667	0,5	1,868050
22,417000	0,5	1,921800
22,425333	0,5	1,973650
22,433667	0,5	2,016550
22,442000	0,5	2,095000
22,450333	0,5	2,164850
22,458667	0,5	2,236750
22,467000	0,5	2,302700
22,475333	0,5	2,370000
22,483667	0,5	2,437100
22,492000	0,5	2,504900
22,500333	0,5	2,569050
22,508667	0,5	2,625300
22,517000	0,5	2,677300
22,525333	0,5	2,712700
22,533667	0,5	2,779100
22,542000	0,5	2,847450
22,550333	0,5	2,901450
22,558667	0,5	2,942000
22,567000	0,5	2,990150
22,575333	0,5	3,008150
22,583667	0,5	3,050450
22,592000	0,5	3,089950
22,600333	0,5	3,128100
22,608667	0,5	3,158450
22,617000	0,5	3,188700
22,625333	0,5	3,208000
22,633667	0,5	3,229200
22,642000	0,5	3,246250
22,650333	0,5	3,253850
22,658667	0,5	3,252800
22,667000	0,5	3,200100
22,675333	0,5	3,190900
22,683667	0,5	3,175850
22,692000	0,5	3,153500
22,700333	0,5	3,107250
22,708667	0,5	3,040000
22,717000	0,5	2,960300
22,725333	0,5	2,878200
22,733667	0,5	2,785950
22,742000	0,5	2,708300
22,750333	0,5	2,609600
22,758667	0,5	2,520500
22,767000	0,5	2,419900
22,775333	0,5	2,317150
22,783667	0,5	2,206000
22,792000	0,5	2,093100
22,800333	0,5	1,970750
22,808667	0,5	1,843750
22,817000	0,5	1,671350
22,825333	0,5	1,541450
22,833667	0,5	1,422350
22,842000	0,5	1,277200
22,850333	0,5	1,125900
22,858667	0,5	0,974550
22,867000	0,5	0,824650
22,875333	0,5	0,680450
22,883667	0,5	0,530200
22,892000	0,5	0,389600
22,900333	0,5	0,250100
22,908667	0,5	0,125650
22,917000	0,5	-0,005750
22,925333	0,5	-0,127950
22,933667	0,5	-0,257650
22,942000	0,5	-0,383150
22,950333	0,5	-0,500950
22,958667	0,5	-0,599050
22,967000	0,5	-0,727800
22,975333	0,5	-0,838200
22,983667	0,5	-0,978450
22,992000	0,5	-1,098650
23,000333	0,5	-1,189450
23,008667	0,5	-1,284450
23,017000	0,5	-1,359450
23,025333	0,5	-1,453200
23,033667	0,5	-1,522650
23,042000	0,5	-1,590950
23,050333	0,5	-1,650050
23,058667	0,5	-1,709950
23,067000	0,5	-1,759850
23,075333	0,5	-1,817350
23,083667	0,5	-1,861600
23,092000	0,5	-1,908150
23,100333	0,5	-1,955400
23,108667	0,5	-1,977650
23,117000	0,5	-2,016200
23,125333	0,5	-2,070750
23,133667	0,5	-2,139550
23,142000	0,5	-2,176600
23,150333	0,5	-2,200550
23,158667	0,5	-2,211550
23,167000	0,5	-2,229100
23,175333	0,5	-2,250550
23,183667	0,5	-2,263650
23,192000	0,5	-2,259350
23,200333	0,5	-2,259300
23,208667	0,5	-2,248250
23,217000	0,5	-2,251950
23,225333	0,5	-2,239600
23,233667	0,5	-2,239200
23,242000	0,5	-2,232000
23,250333	0,5	-2,213050
23,258667	0,5	-2,234750
23,267000	0,5	-2,206250
23,275333	0,5	-2,212350
23,283667	0,5	-2,236100
23,292000	0,5	-2,241950
23,300333	0,5	-2,231850
23,308667	0,5	-2,216200
23,317000	0,5	-2,201750
23,325333	0,5	-2,196250
23,333667	0,5	-2,173700
23,342000	0,5	-2,152700
23,350333	0,5	-2,122350
23,358667	0,5	-2,098000
23,367000	0,5	-2,070700
23,375333	0,5	-2,051250
23,383667	0,5	-2,017850
23,392000	0,5	-1,996850
23,400333	0,5	-1,999250
23,408667	0,5	-1,963500
23,417000	0,5	-1,927050
23,425333	0,5	-1,895300
23,433667	0,5	-1,900000
23,442000	0,5	-1,889650
23,450333	0,5	-1,870300
23,458667	0,5	-1,848350
23,467000	0,5	-1,833150
23,475333	0,5	-1,817300
23,483667	0,5	-1,798050
23,492000	0,5	-1,776000
23,500333	0,5	-1,755700
23,508667	0,5	-1,731900
23,517000	0,5	-1,708400
23,525333	0,5	-1,678650
23,533667	0,5	-1,657550
23,542000	0,5	-1,634800
23,550333	0,5	-1,706350
23,558667	0,5	-1,650550
23,567000	0,5	-1,585800
23,575333	0,5	-1,545300
23,583667	0,5	-1,531700
23,592000	0,5	-1,517650
23,600333	0,5	-1,500050
23,608667	0,5	-1,482650
23,617000	0,5	-1,467500
23,625333	0,5	-1,445450
23,633667	0,5	-1,428450
23,642000	0,5	-1,410450
23,650333	0,5	-1,389300
23,658667	0,5	-1,373950
23,667000	0,5	-1,355150
23,675333	0,5	-1,339200
23,683667	0,5	-1,324150
23,692000	0,5	-1,346250
23,700333	0,5	-1,404250
23,708667	0,5	-1,349600
23,717000	0,5	-1,297250
23,725333	0,5	-1,255300
23,733667	0,5	-1,242600
23,742000	0,5	-1,228250
23,750333	0,5	-1,220900
23,758667	0,5	-1,209200
23,767000	0,5	-1,188400
23,775333	0,5	-1,165600
23,783667	0,5	-1,147350
23,792000	0,5	-1,124500
23,800333	0,5	-1,101900
23,808667	0,5	-1,080450
23,817000	0,5	-1,059000
23,825333	0,5	-1,042900
23,833667	0,5	-1,025800
23,842000	0,5	-1,134450
23,850333	0,5	-1,115150
23,858667	0,5	-1,080800
23,867000	0,5	-1,014000
23,875333	0,5	-0,980800
23,883667	0,5	-0,968900
23,892000	0,5	-0,963700
23,900333	0,5	-0,958600
23,908667	0,5	-0,945150
23,917000	0,5	-0,926300
23,925333	0,5	-0,914200
23,933667	0,5	-0,892900
23,942000	0,5	-0,879850
23,950333	0,5	-0,865700
23,958667	0,5	-0,842150
23,967000	0,5	-0,826100
23,975333	0,5	-0,807800
23,983667	0,5	-0,806550
23,992000	0,5	-0,888950
24,000333	0,5	-0,858450
24,008667	0,5	-0,811750
24,017000	0,5	-0,753600
24,025333	0,5	-0,719350
24,033667	0,5	-0,707250
24,042000	0,5	-0,703500
24,050333	0,5	-0,705550
24,058667	0,5	-0,676050
24,067000	0,5	-0,663900
24,075333	0,5	-0,646100
24,083667	0,5	-0,637300
24,092000	0,5	-0,618650
24,100333	0,5	-0,605750
24,108667	0,5	-0,584450
24,117000	0,5	-0,571750
24,125333	0,5	-0,560400
24,133667	0,5	-0,614400
24,142000	0,5	-0,644050
24,150333	0,5	-0,619650
24,158667	0,5	-0,569800
24,167000	0,5	-0,529700
24,175333	0,5	-0,507850
24,183667	0,5	-0,494050
24,192000	0,5	-0,492800
24,200333	0,5	-0,478800
24,208667	0,5	-0,463650
24,217000	0,5	-0,439700
24,225333	0,5	-0,427550
24,233667	0,5	-0,402950
24,242000	0,5	-0,400700
24,250333	0,5	-0,377850
24,258667	0,5	-0,365400
24,267000	0,5	-0,348850
24,275333	0,5	-0,340700
24,283667	0,5	-0,423200
24,292000	0,5	-0,389400
24,300333	0,5	-0,372650
24,308667	0,5	-0,332350
24,317000	0,5	-0,308250
24,325333	0,5	-0,297900
24,333667	0,5	-0,294850
24,342000	0,5	-0,304800
24,350333	0,5	-0,290300
24,358667	0,5	-0,271100
24,367000	0,5	-0,263750
24,375333	0,5	-0,253300
24,383667	0,5	-0,242550
24,392000	0,5	-0,226550
24,400333	0,5	-0,218800
24,408667	0,5	-0,197450
24,417000	0,5	-0,187150
24,425333	0,5	-0,182200
24,433667	0,5	-0,245600
24,442000	0,5	-0,212000
24,450333	0,5	-0,195550
24,458667	0,5	-0,157250
24,467000	0,5	-0,141800
24,475333	0,5	-0,127700
24,483667	0,5	-0,129150
24,492000	0,5	-0,138000
24,500333	0,5	-0,122550
24,508667	0,5	-0,112500
24,517000	0,5	-0,106800
24,525333	0,5	-0,097900
24,533667	0,5	-0,092800
24,542000	0,5	-0,086300
24,550333	0,5	-0,071450
24,558667	0,5	-0,065200
24,567000	0,5	-0,060250
24,575333	0,5	-0,084500
24,583667	0,5	-0,091650
24,592000	0,5	-0,079050
24,600333	0,5	-0,053750
24,608667	0,5	-0,031550
24,617000	0,5	-0,021750
24,625333	0,5	-0,015550
24,633667	0,5	-0,018950
24,642000	0,5	-0,023100
24,650333	0,5	-0,009150
24,658667	0,5	0,002300
24,667000	0,5	0,009800
24,675333	0,5	0,018200
24,683667	0,5	0,023250
24,692000	0,5	0,029100
24,700333	0,5	0,038450
24,708667	0,5	0,047550
24,717000	0,5	0,050700
24,725333	0,5	0,030450
24,733667	0,5	0,022350
24,742000	0,5	0,033450
24,750333	0,5	0,051350
24,758667	0,5	0,067750
24,767000	0,5	0,068050
24,775333	0,5	0,068300
24,783667	0,5	0,065400
24,792000	0,5	0,066100
24,800333	0,5	0,070100
24,808667	0,5	0,081250
24,817000	0,5	0,085700
24,825333	0,5	0,089050
24,833667	0,5	0,094050
24,842000	0,5	0,104350
24,850333	0,5	0,109850
24,858667	0,5	0,116250
24,867000	0,5	0,119950
24,875333	0,5	0,103700
24,883667	0,5	0,111950
24,892000	0,5	0,120350
24,900333	0,5	0,131050
24,908667	0,5	0,137600
24,917000	0,5	0,141100
24,925333	0,5	0,137450
24,933667	0,5	0,131650
24,942000	0,5	0,132550
24,950333	0,5	0,139150
24,958667	0,5	0,141200
24,967000	0,5	0,147300
24,975333	0,5	0,148800
24,983667	0,5	0,152250
24,992000	0,5	0,155550
25,000333	0,5	0,159000
25,008667	0,5	0,165800
25,017000	0,5	0,155300
25,025333	0,5	0,161550
25,033667	0,5	0,162800
25,042000	0,5	0,170650
25,050333	0,5	0,176450
25,058667	0,5	0,182900
25,067000	0,5	0,183500
25,075333	0,5	0,183750
25,083667	0,5	0,184100
25,092000	0,5	0,186950
25,100333	0,5	0,184600
25,108667	0,5	0,189000
25,117000	0,5	0,186950
25,125333	0,5	0,185000
25,133667	0,5	0,189350
25,142000	0,5	0,191150
25,150333	0,5	0,190500
25,158667	0,5	0,195700
25,167000	0,5	0,186350
25,175333	0,5	0,189500
25,183667	0,5	0,192100
25,192000	0,5	0,197250
25,200333	0,5	0,200850
25,208667	0,5	0,202350
25,217000	0,5	0,200600
25,225333	0,5	0,197450
25,233667	0,5	0,201100
25,242000	0,5	0,204900
25,250333	0,5	0,205000
25,258667	0,5	0,206050
25,267000	0,5	0,206250
25,275333	0,5	0,205900
25,283667	0,5	0,206750
25,292000	0,5	0,208300
25,300333	0,5	0,210400
25,308667	0,5	0,209400
25,317000	0,5	0,207500
25,325333	0,5	0,205750
25,333667	0,5	0,210000
25,342000	0,5	0,204800
25,350333	0,5	0,207050
25,358667	0,5	0,206750
25,367000	0,5	0,205800
25,375333	0,5	0,206550
25,383667	0,5	0,204800
25,392000	0,5	0,205050
25,400333	0,5	0,206600
25,408667	0,5	0,209750
25,417000	0,5	0,208800
25,425333	0,5	0,210450
25,433667	0,5	0,209050
25,442000	0,5	0,209100
25,450333	0,5	0,208900
25,458667	0,5	0,209600
25,467000	0,5	0,213900
25,475333	0,5	0,212200
25,483667	0,5	0,212250
25,492000	0,5	0,208950
25,500333	0,5	0,207700
25,508667	0,5	0,205950
25,517000	0,5	0,203250
25,525333	0,5	0,202100
25,533667	0,5	0,203650
25,542000	0,5	0,203850
25,550333	0,5	0,201850
25,558667	0,5	0,203200
25,567000	0,5	0,202050
25,575333	0,5	0,202600
25,583667	0,5	0,202000
25,592000	0,5	0,206450
25,600333	0,5	0,204450
25,608667	0,5	0,206900
25,617000	0,5	0,204950
25,625333	0,5	0,208250
25,633667	0,5	0,204500
25,642000	0,5	0,201500
25,650333	0,5	0,199950
25,658667	0,5	0,199650
25,667000	0,5	0,202200
25,675333	0,5	0,202350
25,683667	0,5	0,202700
25,692000	0,5	0,202950
25,700333	0,5	0,199400
25,708667	0,5	0,197850
25,717000	0,5	0,198500
25,725333	0,5	0,197850
25,733667	0,5	0,196400
25,742000	0,5	0,195100
25,750333	0,5	0,196350
25,758667	0,5	0,195100
25,767000	0,5	0,196850
25,775333	0,5	0,198950
25,783667	0,5	0,195550
25,792000	0,5	0,190400
25,800333	0,5	0,192800
25,808667	0,5	0,195050
25,817000	0,5	0,197950
25,825333	0,5	0,197450
25,833667	0,5	0,199800
25,842000	0,5	0,195200
25,850333	0,5	0,200800
25,858667	0,5	0,194050
25,867000	0,5	0,191850
25,875333	0,5	0,188850
25,883667	0,5	0,188500
25,892000	0,5	0,189300
25,900333	0,5	0,191100
25,908667	0,5	0,196850
25,917000	0,5	0,202750
25,925333	0,5	0,202600
25,933667	0,5	0,193450
25,942000	0,5	0,193850
25,950333	0,5	0,196100
25,958667	0,5	0,198650
25,967000	0,5	0,203800
25,975333	0,5	0,205900
25,983667	0,5	0,202300
25,992000	0,5	0,204250
26,000333	0,5	0,197850
