File Path	chrom://chromeleon01/ikbm_chromeleon/2022/ICS-5000/ED1/Esteban/20220612_Cell_7_4_eg.seq/313.smp/ED_1.channel/ED_1.chm
Channel	ED_1

Injection Information:
Data Vault	ikbm_chromeleon
Injection	CelS2_24h-EGI_1
Injection Number	64
Position	GB4
Comment	
Processing Method	Stop sequence after Cell Death
Instrument Method	ICS5000_PA200_FullNative_Ox_26min_ED1
Type	Unknown
Status	Finished
Injection Date	13.06.2022
Injection Time	22:03:59
Injection Volume (µl)	5,0
Dilution Factor	1,0000
Weight	1,0000

Chromatogram Data Information:
Time Min. (min)	0,000167
Time Max. (min)	26,000167
Data Points	3121
Detector	EDet1
Generating Data System	Chromeleon 7.2.9.11323
Exporting Data System	Chromeleon 7.2.9.0
Operator	Instrument Controller
Signal Quantity	
Signal Unit	nC
Signal Min.	-2,414150
Signal Max.	566,249308
Channel	ED_1
Driver Name	DC-5000
Channel Type	Evaluation
Min. Step (s)	0,5
Max. Step (s)	0,5
Average Step (s)	0,5

Signal Parameter Information:
Signal Info	

Chromatogram Data:
Time (min)	Step (s)	Value (nC)
0,000167	n.a.	-0,024600
0,008500	0,5	-0,029650
0,016833	0,5	-0,022250
0,025167	0,5	-0,013500
0,033500	0,5	-0,003950
0,041833	0,5	0,005350
0,050167	0,5	0,008500
0,058500	0,5	-0,002050
0,066833	0,5	0,001700
0,075167	0,5	-0,009550
0,083500	0,5	0,002550
0,091833	0,5	0,004800
0,100167	0,5	0,000300
0,108500	0,5	0,013050
0,116833	0,5	0,003400
0,125167	0,5	-0,015450
0,133500	0,5	-0,018100
0,141833	0,5	-0,005500
0,150167	0,5	0,019150
0,158500	0,5	0,015350
0,166833	0,5	0,006450
0,175167	0,5	0,000150
0,183500	0,5	0,003350
0,191833	0,5	0,004000
0,200167	0,5	-0,001350
0,208500	0,5	-0,001650
0,216833	0,5	-0,007250
0,225167	0,5	-0,007350
0,233500	0,5	-0,010750
0,241833	0,5	0,008750
0,250167	0,5	-0,017500
0,258500	0,5	0,006100
0,266833	0,5	-0,022300
0,275167	0,5	-0,027000
0,283500	0,5	-0,032200
0,291833	0,5	-0,016250
0,300167	0,5	0,017500
0,308500	0,5	0,012800
0,316833	0,5	-0,014150
0,325167	0,5	-0,016950
0,333500	0,5	-0,018600
0,341833	0,5	-0,015400
0,350167	0,5	-0,022050
0,358500	0,5	-0,025000
0,366833	0,5	-0,026950
0,375167	0,5	-0,029800
0,383500	0,5	-0,024200
0,391833	0,5	-0,032150
0,400167	0,5	-0,040200
0,408500	0,5	-0,023050
0,416833	0,5	-0,049150
0,425167	0,5	-0,048700
0,433500	0,5	-0,036750
0,441833	0,5	-0,031900
0,450167	0,5	-0,004500
0,458500	0,5	-0,016000
0,466833	0,5	-0,013700
0,475167	0,5	-0,026200
0,483500	0,5	-0,020200
0,491833	0,5	-0,028200
0,500167	0,5	-0,025200
0,508500	0,5	-0,036650
0,516833	0,5	-0,039000
0,525167	0,5	-0,032100
0,533500	0,5	-0,038900
0,541833	0,5	-0,049500
0,550167	0,5	-0,046700
0,558500	0,5	-0,039350
0,566833	0,5	-0,055500
0,575167	0,5	-0,050700
0,583500	0,5	-0,047950
0,591833	0,5	-0,028700
0,600167	0,5	-0,021350
0,608500	0,5	-0,016550
0,616833	0,5	-0,026500
0,625167	0,5	-0,015550
0,633500	0,5	-0,028550
0,641833	0,5	-0,021600
0,650167	0,5	-0,032550
0,658500	0,5	-0,032100
0,666833	0,5	-0,034950
0,675167	0,5	-0,032900
0,683500	0,5	-0,041750
0,691833	0,5	-0,043850
0,700167	0,5	-0,029150
0,708500	0,5	-0,036200
0,716833	0,5	-0,051400
0,725167	0,5	-0,044700
0,733500	0,5	-0,044000
0,741833	0,5	-0,024050
0,750167	0,5	-0,010400
0,758500	0,5	-0,016300
0,766833	0,5	-0,015150
0,775167	0,5	-0,017700
0,783500	0,5	-0,021650
0,791833	0,5	-0,025750
0,800167	0,5	-0,025650
0,808500	0,5	-0,028450
0,816833	0,5	-0,019550
0,825167	0,5	-0,026500
0,833500	0,5	-0,028300
0,841833	0,5	-0,035650
0,850167	0,5	-0,016800
0,858500	0,5	-0,035350
0,866833	0,5	-0,038750
0,875167	0,5	-0,036250
0,883500	0,5	-0,024550
0,891833	0,5	-0,006650
0,900167	0,5	-0,009050
0,908500	0,5	-0,006400
0,916833	0,5	-0,007300
0,925167	0,5	-0,008350
0,933500	0,5	-0,011000
0,941833	0,5	-0,009400
0,950167	0,5	-0,014450
0,958500	0,5	-0,012400
0,966833	0,5	-0,018100
0,975167	0,5	-0,013150
0,983500	0,5	-0,026650
0,991833	0,5	-0,012100
1,000167	0,5	-0,008450
1,008500	0,5	-0,018000
1,016833	0,5	-0,027450
1,025167	0,5	-0,020500
1,033500	0,5	-0,010900
1,041833	0,5	0,009600
1,050167	0,5	0,001200
1,058500	0,5	0,005000
1,066833	0,5	0,000900
1,075167	0,5	-0,001000
1,083500	0,5	-0,002700
1,091833	0,5	-0,002900
1,100167	0,5	-0,000300
1,108500	0,5	-0,001450
1,116833	0,5	-0,001250
1,125167	0,5	-0,003850
1,133500	0,5	-0,008750
1,141833	0,5	0,008650
1,150167	0,5	-0,000300
1,158500	0,5	-0,012550
1,166833	0,5	-0,013550
1,175167	0,5	-0,008950
1,183500	0,5	0,015900
1,191833	0,5	0,016250
1,200167	0,5	0,019300
1,208500	0,5	0,005750
1,216833	0,5	0,014100
1,225167	0,5	0,010950
1,233500	0,5	0,013500
1,241833	0,5	0,008800
1,250167	0,5	0,007150
1,258500	0,5	0,007100
1,266833	0,5	0,007500
1,275167	0,5	0,022050
1,283500	0,5	0,004000
1,291833	0,5	0,031650
1,300167	0,5	0,009700
1,308500	0,5	-0,000700
1,316833	0,5	-0,004750
1,325167	0,5	0,004200
1,333500	0,5	0,018350
1,341833	0,5	0,021050
1,350167	0,5	0,006700
1,358500	0,5	0,016650
1,366833	0,5	0,009900
1,375167	0,5	0,012400
1,383500	0,5	0,006800
1,391833	0,5	0,011450
1,400167	0,5	-0,001200
1,408500	0,5	-0,001550
1,416833	0,5	0,002850
1,425167	0,5	0,000000
1,433500	0,5	-0,011850
1,441833	0,5	0,001400
1,450167	0,5	-0,022400
1,458500	0,5	-0,023850
1,466833	0,5	-0,028900
1,475167	0,5	-0,020250
1,483500	0,5	-0,000100
1,491833	0,5	-0,010300
1,500167	0,5	-0,016550
1,508500	0,5	-0,030700
1,516833	0,5	-0,032250
1,525167	0,5	-0,043950
1,533500	0,5	-0,047900
1,541833	0,5	-0,057950
1,550167	0,5	-0,064600
1,558500	0,5	-0,102200
1,566833	0,5	-0,234500
1,575167	0,5	-0,574950
1,583500	0,5	-0,893350
1,591833	0,5	-0,046500
1,600167	0,5	5,016700
1,608500	0,5	21,938050
1,616833	0,5	65,652251
1,625167	0,5	143,973202
1,633500	0,5	229,326953
1,641833	0,5	272,137754
1,650167	0,5	253,736954
1,658500	0,5	200,704103
1,666833	0,5	146,015502
1,675167	0,5	104,032152
1,683500	0,5	75,397851
1,691833	0,5	56,854951
1,700167	0,5	45,320401
1,708500	0,5	38,634651
1,716833	0,5	34,591551
1,725167	0,5	31,095850
1,733500	0,5	27,262650
1,741833	0,5	23,502450
1,750167	0,5	20,436000
1,758500	0,5	18,317350
1,766833	0,5	17,067300
1,775167	0,5	16,537850
1,783500	0,5	16,442100
1,791833	0,5	16,570100
1,800167	0,5	16,776250
1,808500	0,5	16,905150
1,816833	0,5	16,750850
1,825167	0,5	16,162350
1,833500	0,5	15,239150
1,841833	0,5	14,236150
1,850167	0,5	13,327500
1,858500	0,5	12,553000
1,866833	0,5	11,930200
1,875167	0,5	11,434650
1,883500	0,5	11,097650
1,891833	0,5	10,887400
1,900167	0,5	10,857450
1,908500	0,5	10,875400
1,916833	0,5	10,808700
1,925167	0,5	10,849700
1,933500	0,5	11,633750
1,941833	0,5	14,223250
1,950167	0,5	20,738100
1,958500	0,5	35,988951
1,966833	0,5	65,780551
1,975167	0,5	105,218252
1,983500	0,5	132,034452
1,991833	0,5	128,496402
2,000167	0,5	102,828052
2,008500	0,5	74,332851
2,016833	0,5	52,772751
2,025167	0,5	38,566351
2,033500	0,5	29,615650
2,041833	0,5	24,267050
2,050167	0,5	21,602750
2,058500	0,5	20,859000
2,066833	0,5	20,810500
2,075167	0,5	20,206400
2,083500	0,5	18,743350
2,091833	0,5	16,997250
2,100167	0,5	15,404000
2,108500	0,5	14,157600
2,116833	0,5	13,280200
2,125167	0,5	12,751650
2,133500	0,5	12,428850
2,141833	0,5	12,233950
2,150167	0,5	12,101800
2,158500	0,5	11,918550
2,166833	0,5	11,625700
2,175167	0,5	11,324250
2,183500	0,5	11,018050
2,191833	0,5	10,750600
2,200167	0,5	10,549300
2,208500	0,5	10,452000
2,216833	0,5	10,438450
2,225167	0,5	10,419500
2,233500	0,5	10,356850
2,241833	0,5	10,270700
2,250167	0,5	10,228700
2,258500	0,5	10,211050
2,266833	0,5	10,223850
2,275167	0,5	10,229700
2,283500	0,5	10,256700
2,291833	0,5	10,303700
2,300167	0,5	10,399000
2,308500	0,5	10,533500
2,316833	0,5	10,672650
2,325167	0,5	10,859200
2,333500	0,5	11,060450
2,341833	0,5	11,331000
2,350167	0,5	11,612850
2,358500	0,5	11,806150
2,366833	0,5	11,882350
2,375167	0,5	11,943800
2,383500	0,5	12,148650
2,391833	0,5	12,548050
2,400167	0,5	13,044200
2,408500	0,5	13,540400
2,416833	0,5	13,920900
2,425167	0,5	14,138800
2,433500	0,5	14,182150
2,441833	0,5	14,119200
2,450167	0,5	13,987200
2,458500	0,5	13,878600
2,466833	0,5	13,880700
2,475167	0,5	14,151200
2,483500	0,5	14,703150
2,491833	0,5	15,466400
2,500167	0,5	16,057850
2,508500	0,5	16,235250
2,516833	0,5	16,140350
2,525167	0,5	16,353700
2,533500	0,5	17,714000
2,541833	0,5	20,978100
2,550167	0,5	26,701900
2,558500	0,5	35,472101
2,566833	0,5	49,183201
2,575167	0,5	73,946701
2,583500	0,5	124,224852
2,591833	0,5	219,831453
2,600167	0,5	359,818555
2,608500	0,5	495,567957
2,616833	0,5	566,249308
2,625167	0,5	552,681508
2,633500	0,5	478,257957
2,641833	0,5	379,556406
2,650167	0,5	285,131854
2,658500	0,5	208,933453
2,666833	0,5	153,425902
2,675167	0,5	115,391652
2,683500	0,5	90,246751
2,691833	0,5	73,892451
2,700167	0,5	63,112351
2,708500	0,5	55,561451
2,716833	0,5	49,644551
2,725167	0,5	44,451951
2,733500	0,5	39,610751
2,741833	0,5	35,142051
2,750167	0,5	31,165800
2,758500	0,5	27,826550
2,766833	0,5	25,136100
2,775167	0,5	22,977600
2,783500	0,5	21,258850
2,791833	0,5	19,876600
2,800167	0,5	18,718150
2,808500	0,5	17,744300
2,816833	0,5	16,880150
2,825167	0,5	16,112750
2,833500	0,5	15,425650
2,841833	0,5	14,832000
2,850167	0,5	14,331200
2,858500	0,5	13,935350
2,866833	0,5	13,618400
2,875167	0,5	13,336600
2,883500	0,5	13,038100
2,891833	0,5	12,676900
2,900167	0,5	12,242150
2,908500	0,5	11,766500
2,916833	0,5	11,309000
2,925167	0,5	10,861950
2,933500	0,5	10,481850
2,941833	0,5	10,183700
2,950167	0,5	9,961650
2,958500	0,5	9,818650
2,966833	0,5	9,767600
2,975167	0,5	9,857550
2,983500	0,5	10,140250
2,991833	0,5	10,578100
3,000167	0,5	11,056200
3,008500	0,5	11,367700
3,016833	0,5	11,354000
3,025167	0,5	10,953400
3,033500	0,5	10,284250
3,041833	0,5	9,527750
3,050167	0,5	8,818150
3,058500	0,5	8,268300
3,066833	0,5	8,266250
3,075167	0,5	7,529500
3,083500	0,5	7,296950
3,091833	0,5	7,104100
3,100167	0,5	6,935450
3,108500	0,5	6,787300
3,116833	0,5	6,616700
3,125167	0,5	6,465250
3,133500	0,5	6,314400
3,141833	0,5	6,182450
3,150167	0,5	6,060600
3,158500	0,5	5,960000
3,166833	0,5	5,861150
3,175167	0,5	5,776300
3,183500	0,5	5,685650
3,191833	0,5	5,590950
3,200167	0,5	5,482200
3,208500	0,5	5,401300
3,216833	0,5	5,300300
3,225167	0,5	5,206500
3,233500	0,5	5,128700
3,241833	0,5	5,069350
3,250167	0,5	5,029500
3,258500	0,5	4,985750
3,266833	0,5	4,938000
3,275167	0,5	4,903200
3,283500	0,5	4,881200
3,291833	0,5	4,862150
3,300167	0,5	4,860500
3,308500	0,5	4,851000
3,316833	0,5	4,836200
3,325167	0,5	4,800950
3,333500	0,5	4,747800
3,341833	0,5	4,675550
3,350167	0,5	4,593150
3,358500	0,5	4,530600
3,366833	0,5	4,458850
3,375167	0,5	4,410500
3,383500	0,5	4,392500
3,391833	0,5	4,407650
3,400167	0,5	4,468600
3,408500	0,5	4,557250
3,416833	0,5	4,698550
3,425167	0,5	4,931400
3,433500	0,5	5,279850
3,441833	0,5	5,750950
3,450167	0,5	6,315050
3,458500	0,5	6,895850
3,466833	0,5	7,363850
3,475167	0,5	7,623550
3,483500	0,5	7,582450
3,491833	0,5	7,261300
3,500167	0,5	6,733950
3,508500	0,5	6,138500
3,516833	0,5	5,529450
3,525167	0,5	5,028350
3,533500	0,5	4,630450
3,541833	0,5	4,347150
3,550167	0,5	4,144050
3,558500	0,5	3,987150
3,566833	0,5	3,858000
3,575167	0,5	3,767800
3,583500	0,5	3,693000
3,591833	0,5	3,641950
3,600167	0,5	3,606700
3,608500	0,5	3,573350
3,616833	0,5	3,553900
3,625167	0,5	3,537200
3,633500	0,5	3,523200
3,641833	0,5	3,499850
3,650167	0,5	3,489300
3,658500	0,5	3,467150
3,666833	0,5	3,438800
3,675167	0,5	3,421200
3,683500	0,5	3,410700
3,691833	0,5	3,410550
3,700167	0,5	3,415500
3,708500	0,5	3,399100
3,716833	0,5	3,397000
3,725167	0,5	3,394250
3,733500	0,5	3,396700
3,741833	0,5	3,392950
3,750167	0,5	3,393400
3,758500	0,5	3,385300
3,766833	0,5	3,369350
3,775167	0,5	3,349350
3,783500	0,5	3,317550
3,791833	0,5	3,291900
3,800167	0,5	3,278550
3,808500	0,5	3,246850
3,816833	0,5	3,233200
3,825167	0,5	3,255300
3,833500	0,5	3,307950
3,841833	0,5	3,418450
3,850167	0,5	3,562100
3,858500	0,5	3,751400
3,866833	0,5	3,978150
3,875167	0,5	4,251950
3,883500	0,5	4,531650
3,891833	0,5	4,811400
3,900167	0,5	5,066450
3,908500	0,5	5,317350
3,916833	0,5	5,584000
3,925167	0,5	5,897550
3,933500	0,5	6,289100
3,941833	0,5	6,752700
3,950167	0,5	7,259950
3,958500	0,5	7,702550
3,966833	0,5	8,019750
3,975167	0,5	8,143450
3,983500	0,5	8,030750
3,991833	0,5	7,685050
4,000167	0,5	7,151200
4,008500	0,5	6,503750
4,016833	0,5	5,851200
4,025167	0,5	5,240150
4,033500	0,5	4,733250
4,041833	0,5	4,342900
4,050167	0,5	4,087650
4,058500	0,5	3,940950
4,066833	0,5	3,894400
4,075167	0,5	3,913300
4,083500	0,5	3,953150
4,091833	0,5	3,993950
4,100167	0,5	4,004900
4,108500	0,5	3,955000
4,116833	0,5	3,880500
4,125167	0,5	3,789200
4,133500	0,5	3,712600
4,141833	0,5	3,662300
4,150167	0,5	3,640050
4,158500	0,5	3,688950
4,166833	0,5	3,781750
4,175167	0,5	3,911850
4,183500	0,5	4,035650
4,191833	0,5	4,133800
4,200167	0,5	4,168600
4,208500	0,5	4,132250
4,216833	0,5	4,018000
4,225167	0,5	3,846350
4,233500	0,5	3,615850
4,241833	0,5	3,397650
4,250167	0,5	3,162900
4,258500	0,5	2,957950
4,266833	0,5	2,783850
4,275167	0,5	2,659650
4,283500	0,5	2,574950
4,291833	0,5	2,505600
4,300167	0,5	2,450050
4,308500	0,5	2,414700
4,316833	0,5	2,382500
4,325167	0,5	2,363050
4,333500	0,5	2,345950
4,341833	0,5	2,328900
4,350167	0,5	2,308650
4,358500	0,5	2,287500
4,366833	0,5	2,273400
4,375167	0,5	2,249250
4,383500	0,5	2,232950
4,391833	0,5	2,222450
4,400167	0,5	2,199850
4,408500	0,5	2,182600
4,416833	0,5	2,176650
4,425167	0,5	2,174500
4,433500	0,5	2,193450
4,441833	0,5	2,197250
4,450167	0,5	2,205500
4,458500	0,5	2,214600
4,466833	0,5	2,221850
4,475167	0,5	2,234050
4,483500	0,5	2,246200
4,491833	0,5	2,245500
4,500167	0,5	2,241850
4,508500	0,5	2,236000
4,516833	0,5	2,223000
4,525167	0,5	2,206800
4,533500	0,5	2,185100
4,541833	0,5	2,174800
4,550167	0,5	2,141550
4,558500	0,5	2,127500
4,566833	0,5	2,115700
4,575167	0,5	2,131600
4,583500	0,5	2,147300
4,591833	0,5	2,163500
4,600167	0,5	2,181250
4,608500	0,5	2,219150
4,616833	0,5	2,260000
4,625167	0,5	2,326800
4,633500	0,5	2,409550
4,641833	0,5	2,531900
4,650167	0,5	2,703050
4,658500	0,5	2,937300
4,666833	0,5	3,251950
4,675167	0,5	3,651900
4,683500	0,5	4,152050
4,691833	0,5	4,698200
4,700167	0,5	5,249350
4,708500	0,5	5,755800
4,716833	0,5	6,155250
4,725167	0,5	6,399700
4,733500	0,5	6,454000
4,741833	0,5	6,306900
4,750167	0,5	6,007350
4,758500	0,5	5,596400
4,766833	0,5	5,140800
4,775167	0,5	4,669900
4,783500	0,5	4,229100
4,791833	0,5	3,826800
4,800167	0,5	3,492250
4,808500	0,5	3,211300
4,816833	0,5	2,962400
4,825167	0,5	2,775550
4,833500	0,5	2,645750
4,841833	0,5	2,525400
4,850167	0,5	2,432350
4,858500	0,5	2,373750
4,866833	0,5	2,334650
4,875167	0,5	2,327100
4,883500	0,5	2,320050
4,891833	0,5	2,328400
4,900167	0,5	2,338450
4,908500	0,5	2,362450
4,916833	0,5	2,378650
4,925167	0,5	2,393700
4,933500	0,5	2,393950
4,941833	0,5	2,389800
4,950167	0,5	2,367350
4,958500	0,5	2,337250
4,966833	0,5	2,289650
4,975167	0,5	2,245200
4,983500	0,5	2,206400
4,991833	0,5	2,150950
5,000167	0,5	2,095600
5,008500	0,5	2,055400
5,016833	0,5	2,012900
5,025167	0,5	1,983400
5,033500	0,5	1,939400
5,041833	0,5	1,895650
5,050167	0,5	1,862050
5,058500	0,5	1,826750
5,066833	0,5	1,805650
5,075167	0,5	1,778850
5,083500	0,5	1,758850
5,091833	0,5	1,735950
5,100167	0,5	1,723000
5,108500	0,5	1,713500
5,116833	0,5	1,697850
5,125167	0,5	1,690600
5,133500	0,5	1,692800
5,141833	0,5	1,673350
5,150167	0,5	1,671650
5,158500	0,5	1,672350
5,166833	0,5	1,681900
5,175167	0,5	1,692750
5,183500	0,5	1,684050
5,191833	0,5	1,679750
5,200167	0,5	1,674400
5,208500	0,5	1,664750
5,216833	0,5	1,651000
5,225167	0,5	1,637450
5,233500	0,5	1,620200
5,241833	0,5	1,606050
5,250167	0,5	1,592450
5,258500	0,5	1,583600
5,266833	0,5	1,564150
5,275167	0,5	1,562250
5,283500	0,5	1,548050
5,291833	0,5	1,543550
5,300167	0,5	1,536150
5,308500	0,5	1,540150
5,316833	0,5	1,545300
5,325167	0,5	1,552050
5,333500	0,5	1,545950
5,341833	0,5	1,547250
5,350167	0,5	1,544700
5,358500	0,5	1,546250
5,366833	0,5	1,546200
5,375167	0,5	1,552950
5,383500	0,5	1,560000
5,391833	0,5	1,580650
5,400167	0,5	1,606000
5,408500	0,5	1,629800
5,416833	0,5	1,660500
5,425167	0,5	1,698150
5,433500	0,5	1,715700
5,441833	0,5	1,719050
5,450167	0,5	1,720350
5,458500	0,5	1,715500
5,466833	0,5	1,713400
5,475167	0,5	1,693450
5,483500	0,5	1,681300
5,491833	0,5	1,676400
5,500167	0,5	1,680150
5,508500	0,5	1,680750
5,516833	0,5	1,688750
5,525167	0,5	1,687350
5,533500	0,5	1,687700
5,541833	0,5	1,680950
5,550167	0,5	1,674850
5,558500	0,5	1,671250
5,566833	0,5	1,676850
5,575167	0,5	1,682000
5,583500	0,5	1,666900
5,591833	0,5	1,655400
5,600167	0,5	1,627250
5,608500	0,5	1,594750
5,616833	0,5	1,551850
5,625167	0,5	1,504050
5,633500	0,5	1,444400
5,641833	0,5	1,395900
5,650167	0,5	1,351600
5,658500	0,5	1,321950
5,666833	0,5	1,293050
5,675167	0,5	1,277200
5,683500	0,5	1,265400
5,691833	0,5	1,263050
5,700167	0,5	1,254250
5,708500	0,5	1,246600
5,716833	0,5	1,246550
5,725167	0,5	1,240400
5,733500	0,5	1,228950
5,741833	0,5	1,222250
5,750167	0,5	1,219550
5,758500	0,5	1,232900
5,766833	0,5	1,241050
5,775167	0,5	1,240700
5,783500	0,5	1,242600
5,791833	0,5	1,234500
5,800167	0,5	1,231450
5,808500	0,5	1,217400
5,816833	0,5	1,206350
5,825167	0,5	1,184900
5,833500	0,5	1,171400
5,841833	0,5	1,153950
5,850167	0,5	1,133050
5,858500	0,5	1,114800
5,866833	0,5	1,114750
5,875167	0,5	1,099100
5,883500	0,5	1,081950
5,891833	0,5	1,072600
5,900167	0,5	1,069150
5,908500	0,5	1,077300
5,916833	0,5	1,077750
5,925167	0,5	1,086800
5,933500	0,5	1,102400
5,941833	0,5	1,125150
5,950167	0,5	1,153300
5,958500	0,5	1,189750
5,966833	0,5	1,223000
5,975167	0,5	1,252250
5,983500	0,5	1,271800
5,991833	0,5	1,282950
6,000167	0,5	1,264650
6,008500	0,5	1,241700
6,016833	0,5	1,215150
6,025167	0,5	1,165700
6,033500	0,5	1,118600
6,041833	0,5	1,080700
6,050167	0,5	1,046400
6,058500	0,5	1,029800
6,066833	0,5	1,002550
6,075167	0,5	0,990350
6,083500	0,5	0,979700
6,091833	0,5	0,976350
6,100167	0,5	0,974200
6,108500	0,5	0,979050
6,116833	0,5	0,982750
6,125167	0,5	0,985500
6,133500	0,5	0,991850
6,141833	0,5	0,995750
6,150167	0,5	1,005000
6,158500	0,5	1,012950
6,166833	0,5	1,025850
6,175167	0,5	1,025950
6,183500	0,5	1,038850
6,191833	0,5	1,042250
6,200167	0,5	1,052700
6,208500	0,5	1,055800
6,216833	0,5	1,040750
6,225167	0,5	1,026750
6,233500	0,5	1,006850
6,241833	0,5	0,984900
6,250167	0,5	0,962050
6,258500	0,5	0,942500
6,266833	0,5	0,925300
6,275167	0,5	0,914350
6,283500	0,5	0,909650
6,291833	0,5	0,915900
6,300167	0,5	0,926250
6,308500	0,5	0,959700
6,316833	0,5	1,000600
6,325167	0,5	1,058550
6,333500	0,5	1,138100
6,341833	0,5	1,235200
6,350167	0,5	1,350850
6,358500	0,5	1,453050
6,366833	0,5	1,525300
6,375167	0,5	1,579700
6,383500	0,5	1,592250
6,391833	0,5	1,570950
6,400167	0,5	1,520250
6,408500	0,5	1,451550
6,416833	0,5	1,375700
6,425167	0,5	1,297800
6,433500	0,5	1,227450
6,441833	0,5	1,154050
6,450167	0,5	1,091050
6,458500	0,5	1,045100
6,466833	0,5	0,988900
6,475167	0,5	0,941650
6,483500	0,5	0,907700
6,491833	0,5	0,878300
6,500167	0,5	0,865600
6,508500	0,5	0,847950
6,516833	0,5	0,838800
6,525167	0,5	0,825250
6,533500	0,5	0,820150
6,541833	0,5	0,811800
6,550167	0,5	0,815350
6,558500	0,5	0,808350
6,566833	0,5	0,809500
6,575167	0,5	0,815950
6,583500	0,5	0,829150
6,591833	0,5	0,846600
6,600167	0,5	0,882350
6,608500	0,5	0,924450
6,616833	0,5	0,971500
6,625167	0,5	1,028800
6,633500	0,5	1,091450
6,641833	0,5	1,158350
6,650167	0,5	1,206800
6,658500	0,5	1,232450
6,666833	0,5	1,228350
6,675167	0,5	1,201950
6,683500	0,5	1,160200
6,691833	0,5	1,110800
6,700167	0,5	1,054450
6,708500	0,5	1,006900
6,716833	0,5	0,968700
6,725167	0,5	0,946850
6,733500	0,5	0,931450
6,741833	0,5	0,931950
6,750167	0,5	0,943350
6,758500	0,5	0,954700
6,766833	0,5	0,961000
6,775167	0,5	0,979150
6,783500	0,5	0,996750
6,791833	0,5	1,036850
6,800167	0,5	1,081400
6,808500	0,5	1,146400
6,816833	0,5	1,232850
6,825167	0,5	1,349700
6,833500	0,5	1,486800
6,841833	0,5	1,637950
6,850167	0,5	1,791650
6,858500	0,5	1,928750
6,866833	0,5	2,050700
6,875167	0,5	2,136600
6,883500	0,5	2,187500
6,891833	0,5	2,213850
6,900167	0,5	2,243950
6,908500	0,5	2,266550
6,916833	0,5	2,325700
6,925167	0,5	2,440250
6,933500	0,5	2,624900
6,941833	0,5	2,895250
6,950167	0,5	3,231050
6,958500	0,5	3,626300
6,966833	0,5	4,078950
6,975167	0,5	4,570550
6,983500	0,5	5,114700
6,991833	0,5	5,720950
7,000167	0,5	6,443450
7,008500	0,5	7,367050
7,016833	0,5	8,679150
7,025167	0,5	10,664250
7,033500	0,5	13,767950
7,041833	0,5	18,665950
7,050167	0,5	26,076750
7,058500	0,5	36,430051
7,066833	0,5	49,502051
7,075167	0,5	63,982351
7,083500	0,5	77,658101
7,091833	0,5	88,155551
7,100167	0,5	93,622951
7,108500	0,5	93,604201
7,116833	0,5	88,750351
7,125167	0,5	80,489451
7,133500	0,5	70,305851
7,141833	0,5	59,439851
7,150167	0,5	48,730801
7,158500	0,5	38,731951
7,166833	0,5	29,908350
7,175167	0,5	22,575650
7,183500	0,5	16,839250
7,191833	0,5	12,578650
7,200167	0,5	9,532700
7,208500	0,5	7,390500
7,216833	0,5	5,903200
7,225167	0,5	4,864300
7,233500	0,5	4,141450
7,241833	0,5	3,621800
7,250167	0,5	3,239300
7,258500	0,5	2,956000
7,266833	0,5	2,749450
7,275167	0,5	2,594750
7,283500	0,5	2,483450
7,291833	0,5	2,400400
7,300167	0,5	2,340300
7,308500	0,5	2,283050
7,316833	0,5	2,235450
7,325167	0,5	2,179900
7,333500	0,5	2,120300
7,341833	0,5	2,069850
7,350167	0,5	2,031100
7,358500	0,5	2,009250
7,366833	0,5	2,021450
7,375167	0,5	2,049650
7,383500	0,5	2,078950
7,391833	0,5	2,087000
7,400167	0,5	2,051250
7,408500	0,5	1,974650
7,416833	0,5	1,858000
7,425167	0,5	1,725000
7,433500	0,5	1,591000
7,441833	0,5	1,472650
7,450167	0,5	1,372650
7,458500	0,5	1,295600
7,466833	0,5	1,241500
7,475167	0,5	1,200200
7,483500	0,5	1,173200
7,491833	0,5	1,171700
7,500167	0,5	1,182000
7,508500	0,5	1,213100
7,516833	0,5	1,259850
7,525167	0,5	1,321950
7,533500	0,5	1,388800
7,541833	0,5	1,441200
7,550167	0,5	1,468550
7,558500	0,5	1,468850
7,566833	0,5	1,453150
7,575167	0,5	1,423800
7,583500	0,5	1,407900
7,591833	0,5	1,394600
7,600167	0,5	1,399200
7,608500	0,5	1,408400
7,616833	0,5	1,428000
7,625167	0,5	1,450200
7,633500	0,5	1,474050
7,641833	0,5	1,481100
7,650167	0,5	1,462600
7,658500	0,5	1,421750
7,666833	0,5	1,371050
7,675167	0,5	1,327750
7,683500	0,5	1,292950
7,691833	0,5	1,265750
7,700167	0,5	1,244250
7,708500	0,5	1,222400
7,716833	0,5	1,195450
7,725167	0,5	1,162550
7,733500	0,5	1,127200
7,741833	0,5	1,094200
7,750167	0,5	1,064650
7,758500	0,5	1,035400
7,766833	0,5	1,004750
7,775167	0,5	0,982900
7,783500	0,5	0,969000
7,791833	0,5	0,973650
7,800167	0,5	0,995600
7,808500	0,5	1,036950
7,816833	0,5	1,089450
7,825167	0,5	1,137550
7,833500	0,5	1,161000
7,841833	0,5	1,147900
7,850167	0,5	1,107850
7,858500	0,5	1,052600
7,866833	0,5	0,999450
7,875167	0,5	0,957200
7,883500	0,5	0,924100
7,891833	0,5	0,902550
7,900167	0,5	0,889000
7,908500	0,5	0,877650
7,916833	0,5	0,866200
7,925167	0,5	0,858800
7,933500	0,5	0,858450
7,941833	0,5	0,858600
7,950167	0,5	0,865650
7,958500	0,5	0,893150
7,966833	0,5	0,940050
7,975167	0,5	1,022200
7,983500	0,5	1,135750
7,991833	0,5	1,260850
8,000167	0,5	1,394250
8,008500	0,5	1,508750
8,016833	0,5	1,583200
8,025167	0,5	1,589800
8,033500	0,5	1,548250
8,041833	0,5	1,458800
8,050167	0,5	1,355700
8,058500	0,5	1,261650
8,066833	0,5	1,175900
8,075167	0,5	1,117150
8,083500	0,5	1,079600
8,091833	0,5	1,054750
8,100167	0,5	1,049500
8,108500	0,5	1,058600
8,116833	0,5	1,083050
8,125167	0,5	1,111950
8,133500	0,5	1,119400
8,141833	0,5	1,108550
8,150167	0,5	1,067400
8,158500	0,5	1,015200
8,166833	0,5	0,964300
8,175167	0,5	0,925200
8,183500	0,5	0,902500
8,191833	0,5	0,886750
8,200167	0,5	0,871450
8,208500	0,5	0,863000
8,216833	0,5	0,850750
8,225167	0,5	0,844550
8,233500	0,5	0,850850
8,241833	0,5	0,859950
8,250167	0,5	0,872150
8,258500	0,5	0,884250
8,266833	0,5	0,893350
8,275167	0,5	0,899150
8,283500	0,5	0,896000
8,291833	0,5	0,884800
8,300167	0,5	0,877050
8,308500	0,5	0,866850
8,316833	0,5	0,870050
8,325167	0,5	0,876200
8,333500	0,5	0,894800
8,341833	0,5	0,923200
8,350167	0,5	0,956300
8,358500	0,5	0,994350
8,366833	0,5	1,030150
8,375167	0,5	1,059800
8,383500	0,5	1,083000
8,391833	0,5	1,090400
8,400167	0,5	1,090500
8,408500	0,5	1,079600
8,416833	0,5	1,073950
8,425167	0,5	1,063800
8,433500	0,5	1,060050
8,441833	0,5	1,064500
8,450167	0,5	1,079850
8,458500	0,5	1,110400
8,466833	0,5	1,156450
8,475167	0,5	1,220600
8,483500	0,5	1,322600
8,491833	0,5	1,474850
8,500167	0,5	1,712350
8,508500	0,5	2,057300
8,516833	0,5	2,531350
8,525167	0,5	3,137200
8,533500	0,5	3,862350
8,541833	0,5	4,688250
8,550167	0,5	5,613850
8,558500	0,5	6,705300
8,566833	0,5	8,098050
8,575167	0,5	10,109100
8,583500	0,5	13,357100
8,591833	0,5	18,841850
8,600167	0,5	27,772550
8,608500	0,5	40,928951
8,616833	0,5	57,696001
8,625167	0,5	75,637151
8,633500	0,5	91,146101
8,641833	0,5	100,864802
8,650167	0,5	102,943802
8,658500	0,5	97,336201
8,666833	0,5	85,744701
8,675167	0,5	70,698651
8,683500	0,5	54,935351
8,691833	0,5	40,625401
8,700167	0,5	28,976500
8,708500	0,5	20,256400
8,716833	0,5	14,159650
8,725167	0,5	10,099000
8,733500	0,5	7,482350
8,741833	0,5	5,818500
8,750167	0,5	4,758450
8,758500	0,5	4,072650
8,766833	0,5	3,618450
8,775167	0,5	3,304150
8,783500	0,5	3,076100
8,791833	0,5	2,908150
8,800167	0,5	2,775750
8,808500	0,5	2,670550
8,816833	0,5	2,587550
8,825167	0,5	2,499850
8,833500	0,5	2,410900
8,841833	0,5	2,313900
8,850167	0,5	2,221450
8,858500	0,5	2,138800
8,866833	0,5	2,071450
8,875167	0,5	2,015100
8,883500	0,5	1,965350
8,891833	0,5	1,910950
8,900167	0,5	1,849300
8,908500	0,5	1,777100
8,916833	0,5	1,709300
8,925167	0,5	1,643500
8,933500	0,5	1,580000
8,941833	0,5	1,530700
8,950167	0,5	1,484800
8,958500	0,5	1,441500
8,966833	0,5	1,407300
8,975167	0,5	1,378150
8,983500	0,5	1,350750
8,991833	0,5	1,336900
9,000167	0,5	1,323850
9,008500	0,5	1,318400
9,016833	0,5	1,313500
9,025167	0,5	1,300250
9,033500	0,5	1,278350
9,041833	0,5	1,252250
9,050167	0,5	1,222000
9,058500	0,5	1,195100
9,066833	0,5	1,170050
9,075167	0,5	1,148600
9,083500	0,5	1,131050
9,091833	0,5	1,120850
9,100167	0,5	1,110550
9,108500	0,5	1,101750
9,116833	0,5	1,100700
9,125167	0,5	1,092500
9,133500	0,5	1,090200
9,141833	0,5	1,088450
9,150167	0,5	1,097400
9,158500	0,5	1,106050
9,166833	0,5	1,132350
9,175167	0,5	1,169700
9,183500	0,5	1,222200
9,191833	0,5	1,283750
9,200167	0,5	1,348050
9,208500	0,5	1,404050
9,216833	0,5	1,441300
9,225167	0,5	1,456700
9,233500	0,5	1,447750
9,241833	0,5	1,413000
9,250167	0,5	1,362400
9,258500	0,5	1,298950
9,266833	0,5	1,235050
9,275167	0,5	1,175450
9,283500	0,5	1,119800
9,291833	0,5	1,074750
9,300167	0,5	1,038900
9,308500	0,5	1,013750
9,316833	0,5	0,995600
9,325167	0,5	0,982700
9,333500	0,5	0,975100
9,341833	0,5	0,964650
9,350167	0,5	0,963150
9,358500	0,5	0,955750
9,366833	0,5	0,959500
9,375167	0,5	0,962750
9,383500	0,5	0,970450
9,391833	0,5	0,975300
9,400167	0,5	0,983050
9,408500	0,5	0,986000
9,416833	0,5	0,986700
9,425167	0,5	0,980800
9,433500	0,5	0,976150
9,441833	0,5	0,970650
9,450167	0,5	0,965550
9,458500	0,5	0,958050
9,466833	0,5	0,952600
9,475167	0,5	0,947600
9,483500	0,5	0,946350
9,491833	0,5	0,942450
9,500167	0,5	0,940300
9,508500	0,5	0,938800
9,516833	0,5	0,937450
9,525167	0,5	0,933950
9,533500	0,5	0,933150
9,541833	0,5	0,932900
9,550167	0,5	0,932200
9,558500	0,5	0,932300
9,566833	0,5	0,937650
9,575167	0,5	0,938100
9,583500	0,5	0,928050
9,591833	0,5	0,922300
9,600167	0,5	0,919000
9,608500	0,5	0,921650
9,616833	0,5	0,917600
9,625167	0,5	0,917450
9,633500	0,5	0,918200
9,641833	0,5	0,913500
9,650167	0,5	0,905800
9,658500	0,5	0,900400
9,666833	0,5	0,893200
9,675167	0,5	0,891250
9,683500	0,5	0,891900
9,691833	0,5	0,897550
9,700167	0,5	0,908300
9,708500	0,5	0,927650
9,716833	0,5	0,954600
9,725167	0,5	0,992350
9,733500	0,5	1,040600
9,741833	0,5	1,096600
9,750167	0,5	1,164600
9,758500	0,5	1,230450
9,766833	0,5	1,289400
9,775167	0,5	1,330850
9,783500	0,5	1,332350
9,791833	0,5	1,298050
9,800167	0,5	1,235100
9,808500	0,5	1,145900
9,816833	0,5	1,058700
9,825167	0,5	0,981900
9,833500	0,5	0,924350
9,841833	0,5	0,882250
9,850167	0,5	0,848200
9,858500	0,5	0,832950
9,866833	0,5	0,818500
9,875167	0,5	0,809750
9,883500	0,5	0,801650
9,891833	0,5	0,797100
9,900167	0,5	0,799450
9,908500	0,5	0,804800
9,916833	0,5	0,810750
9,925167	0,5	0,816200
9,933500	0,5	0,822200
9,941833	0,5	0,827750
9,950167	0,5	0,829650
9,958500	0,5	0,832300
9,966833	0,5	0,835500
9,975167	0,5	0,842600
9,983500	0,5	0,849950
9,991833	0,5	0,856750
10,000167	0,5	0,862450
10,008500	0,5	0,873200
10,016833	0,5	0,878100
10,025167	0,5	0,880450
10,033500	0,5	0,882600
10,041833	0,5	0,890700
10,050167	0,5	0,904900
10,058500	0,5	0,924300
10,066833	0,5	0,946500
10,075167	0,5	0,968050
10,083500	0,5	0,986450
10,091833	0,5	0,991300
10,100167	0,5	0,983700
10,108500	0,5	0,967500
10,116833	0,5	0,937600
10,125167	0,5	0,917600
10,133500	0,5	0,898100
10,141833	0,5	0,886600
10,150167	0,5	0,886250
10,158500	0,5	0,899100
10,166833	0,5	0,923200
10,175167	0,5	0,951350
10,183500	0,5	0,979550
10,191833	0,5	1,006000
10,200167	0,5	1,025750
10,208500	0,5	1,038650
10,216833	0,5	1,061500
10,225167	0,5	1,098700
10,233500	0,5	1,156200
10,241833	0,5	1,222900
10,250167	0,5	1,292100
10,258500	0,5	1,338850
10,266833	0,5	1,347900
10,275167	0,5	1,307650
10,283500	0,5	1,228150
10,291833	0,5	1,118150
10,300167	0,5	1,010300
10,308500	0,5	0,911250
10,316833	0,5	0,838750
10,325167	0,5	0,781250
10,333500	0,5	0,750300
10,341833	0,5	0,734500
10,350167	0,5	0,728700
10,358500	0,5	0,730600
10,366833	0,5	0,730500
10,375167	0,5	0,726400
10,383500	0,5	0,722800
10,391833	0,5	0,714250
10,400167	0,5	0,709450
10,408500	0,5	0,702100
10,416833	0,5	0,693300
10,425167	0,5	0,696600
10,433500	0,5	0,698500
10,441833	0,5	0,702300
10,450167	0,5	0,709150
10,458500	0,5	0,710350
10,466833	0,5	0,711150
10,475167	0,5	0,709400
10,483500	0,5	0,704050
10,491833	0,5	0,701950
10,500167	0,5	0,706700
10,508500	0,5	0,710050
10,516833	0,5	0,717650
10,525167	0,5	0,735150
10,533500	0,5	0,754000
10,541833	0,5	0,767350
10,550167	0,5	0,784350
10,558500	0,5	0,785750
10,566833	0,5	0,787000
10,575167	0,5	0,782700
10,583500	0,5	0,784900
10,591833	0,5	0,795300
10,600167	0,5	0,821000
10,608500	0,5	0,851100
10,616833	0,5	0,907000
10,625167	0,5	0,979150
10,633500	0,5	1,076550
10,641833	0,5	1,191350
10,650167	0,5	1,313600
10,658500	0,5	1,413750
10,666833	0,5	1,482800
10,675167	0,5	1,501600
10,683500	0,5	1,473150
10,691833	0,5	1,403100
10,700167	0,5	1,337050
10,708500	0,5	1,194500
10,716833	0,5	1,088500
10,725167	0,5	0,988000
10,733500	0,5	0,901150
10,741833	0,5	0,838700
10,750167	0,5	0,791750
10,758500	0,5	0,760450
10,766833	0,5	0,736400
10,775167	0,5	0,723000
10,783500	0,5	0,722750
10,791833	0,5	0,728250
10,800167	0,5	0,798150
10,808500	0,5	0,756850
10,816833	0,5	0,791700
10,825167	0,5	0,845150
10,833500	0,5	0,915300
10,841833	0,5	1,004100
10,850167	0,5	1,099500
10,858500	0,5	1,195350
10,866833	0,5	1,280700
10,875167	0,5	1,339100
10,883500	0,5	1,359600
10,891833	0,5	1,352000
10,900167	0,5	1,392900
10,908500	0,5	1,233350
10,916833	0,5	1,160200
10,925167	0,5	1,079300
10,933500	0,5	1,017100
10,941833	0,5	0,968950
10,950167	0,5	0,952250
10,958500	0,5	0,956050
10,966833	0,5	0,993050
10,975167	0,5	1,048200
10,983500	0,5	1,107600
10,991833	0,5	1,152650
11,000167	0,5	1,161800
11,008500	0,5	1,126350
11,016833	0,5	1,064000
11,025167	0,5	0,973650
11,033500	0,5	0,872850
11,041833	0,5	0,787500
11,050167	0,5	0,717250
11,058500	0,5	0,658050
11,066833	0,5	0,611150
11,075167	0,5	0,578900
11,083500	0,5	0,559200
11,091833	0,5	0,541400
11,100167	0,5	0,513450
11,108500	0,5	0,517200
11,116833	0,5	0,520050
11,125167	0,5	0,533000
11,133500	0,5	0,546100
11,141833	0,5	0,570550
11,150167	0,5	0,589250
11,158500	0,5	0,602500
11,166833	0,5	0,615750
11,175167	0,5	0,614050
11,183500	0,5	0,605200
11,191833	0,5	0,592550
11,200167	0,5	0,561850
11,208500	0,5	0,546800
11,216833	0,5	0,522400
11,225167	0,5	0,507600
11,233500	0,5	0,503200
11,241833	0,5	0,504150
11,250167	0,5	0,516850
11,258500	0,5	0,538050
11,266833	0,5	0,576300
11,275167	0,5	0,619050
11,283500	0,5	0,656000
11,291833	0,5	0,676800
11,300167	0,5	0,673950
11,308500	0,5	0,661600
11,316833	0,5	0,635250
11,325167	0,5	0,592250
11,333500	0,5	0,561250
11,341833	0,5	0,526850
11,350167	0,5	0,500350
11,358500	0,5	0,476100
11,366833	0,5	0,464600
11,375167	0,5	0,457000
11,383500	0,5	0,455800
11,391833	0,5	0,459700
11,400167	0,5	0,458950
11,408500	0,5	0,470150
11,416833	0,5	0,479900
11,425167	0,5	0,487450
11,433500	0,5	0,493200
11,441833	0,5	0,501500
11,450167	0,5	0,511400
11,458500	0,5	0,519600
11,466833	0,5	0,523000
11,475167	0,5	0,523050
11,483500	0,5	0,522950
11,491833	0,5	0,514500
11,500167	0,5	0,498400
11,508500	0,5	0,483900
11,516833	0,5	0,468150
11,525167	0,5	0,463300
11,533500	0,5	0,465400
11,541833	0,5	0,465150
11,550167	0,5	0,462300
11,558500	0,5	0,453300
11,566833	0,5	0,436300
11,575167	0,5	0,422500
11,583500	0,5	0,405600
11,591833	0,5	0,407250
11,600167	0,5	0,378400
11,608500	0,5	0,379200
11,616833	0,5	0,382200
11,625167	0,5	0,392450
11,633500	0,5	0,404750
11,641833	0,5	0,405100
11,650167	0,5	0,408950
11,658500	0,5	0,404200
11,666833	0,5	0,410200
11,675167	0,5	0,415850
11,683500	0,5	0,431800
11,691833	0,5	0,482900
11,700167	0,5	0,494000
11,708500	0,5	0,543950
11,716833	0,5	0,605750
11,725167	0,5	0,668550
11,733500	0,5	0,721650
11,741833	0,5	0,754100
11,750167	0,5	0,764800
11,758500	0,5	0,745250
11,766833	0,5	0,699400
11,775167	0,5	0,649200
11,783500	0,5	0,589600
11,791833	0,5	0,550800
11,800167	0,5	0,472850
11,808500	0,5	0,435000
11,816833	0,5	0,404500
11,825167	0,5	0,384300
11,833500	0,5	0,365500
11,841833	0,5	0,363000
11,850167	0,5	0,356250
11,858500	0,5	0,354200
11,866833	0,5	0,355300
11,875167	0,5	0,360700
11,883500	0,5	0,368150
11,891833	0,5	0,390100
11,900167	0,5	0,383950
11,908500	0,5	0,400000
11,916833	0,5	0,418700
11,925167	0,5	0,448500
11,933500	0,5	0,477200
11,941833	0,5	0,498600
11,950167	0,5	0,521600
11,958500	0,5	0,521050
11,966833	0,5	0,532300
11,975167	0,5	0,523650
11,983500	0,5	0,513000
11,991833	0,5	0,501800
12,000167	0,5	0,479200
12,008500	0,5	0,464850
12,016833	0,5	0,450850
12,025167	0,5	0,433750
12,033500	0,5	0,416000
12,041833	0,5	0,394600
12,050167	0,5	0,377750
12,058500	0,5	0,350000
12,066833	0,5	0,326150
12,075167	0,5	0,306650
12,083500	0,5	0,288600
12,091833	0,5	0,267800
12,100167	0,5	0,254350
12,108500	0,5	0,245100
12,116833	0,5	0,244150
12,125167	0,5	0,238350
12,133500	0,5	0,233400
12,141833	0,5	0,230100
12,150167	0,5	0,223950
12,158500	0,5	0,228200
12,166833	0,5	0,225550
12,175167	0,5	0,232850
12,183500	0,5	0,236250
12,191833	0,5	0,241650
12,200167	0,5	0,254800
12,208500	0,5	0,257950
12,216833	0,5	0,262850
12,225167	0,5	0,263650
12,233500	0,5	0,252400
12,241833	0,5	0,236200
12,250167	0,5	0,217450
12,258500	0,5	0,203150
12,266833	0,5	0,196050
12,275167	0,5	0,187900
12,283500	0,5	0,181750
12,291833	0,5	0,173800
12,300167	0,5	0,177050
12,308500	0,5	0,175150
12,316833	0,5	0,176800
12,325167	0,5	0,174600
12,333500	0,5	0,172750
12,341833	0,5	0,170750
12,350167	0,5	0,171100
12,358500	0,5	0,166250
12,366833	0,5	0,174050
12,375167	0,5	0,175050
12,383500	0,5	0,182200
12,391833	0,5	0,177900
12,400167	0,5	0,180400
12,408500	0,5	0,188050
12,416833	0,5	0,192050
12,425167	0,5	0,182400
12,433500	0,5	0,171550
12,441833	0,5	0,157450
12,450167	0,5	0,142350
12,458500	0,5	0,126550
12,466833	0,5	0,114000
12,475167	0,5	0,108000
12,483500	0,5	0,104400
12,491833	0,5	0,100350
12,500167	0,5	0,101050
12,508500	0,5	0,101000
12,516833	0,5	0,105250
12,525167	0,5	0,103650
12,533500	0,5	0,099250
12,541833	0,5	0,090450
12,550167	0,5	0,081650
12,558500	0,5	0,084000
12,566833	0,5	0,081400
12,575167	0,5	0,084650
12,583500	0,5	0,085050
12,591833	0,5	0,089550
12,600167	0,5	0,102700
12,608500	0,5	0,122050
12,616833	0,5	0,142500
12,625167	0,5	0,160000
12,633500	0,5	0,182400
12,641833	0,5	0,200450
12,650167	0,5	0,200150
12,658500	0,5	0,199700
12,666833	0,5	0,203350
12,675167	0,5	0,198100
12,683500	0,5	0,202750
12,691833	0,5	0,175900
12,700167	0,5	0,166900
12,708500	0,5	0,141300
12,716833	0,5	0,116950
12,725167	0,5	0,093800
12,733500	0,5	0,087300
12,741833	0,5	0,096250
12,750167	0,5	0,105950
12,758500	0,5	0,055100
12,766833	0,5	-0,086650
12,775167	0,5	-0,285650
12,783500	0,5	-0,464300
12,791833	0,5	-0,613200
12,800167	0,5	-0,711100
12,808500	0,5	-0,765950
12,816833	0,5	-0,798350
12,825167	0,5	-0,828900
12,833500	0,5	-0,854700
12,841833	0,5	-0,875900
12,850167	0,5	-0,888700
12,858500	0,5	-0,893100
12,866833	0,5	-0,910900
12,875167	0,5	-0,918500
12,883500	0,5	-0,918650
12,891833	0,5	-0,929800
12,900167	0,5	-0,932650
12,908500	0,5	-0,935950
12,916833	0,5	-0,937300
12,925167	0,5	-0,939500
12,933500	0,5	-0,935900
12,941833	0,5	-0,935150
12,950167	0,5	-0,944200
12,958500	0,5	-0,935550
12,966833	0,5	-0,930400
12,975167	0,5	-0,930700
12,983500	0,5	-0,921550
12,991833	0,5	-0,932850
13,000167	0,5	-0,919100
13,008500	0,5	-0,911450
13,016833	0,5	-0,899100
13,025167	0,5	-0,889200
13,033500	0,5	-0,873350
13,041833	0,5	-0,864700
13,050167	0,5	-0,847200
13,058500	0,5	-0,828750
13,066833	0,5	-0,809900
13,075167	0,5	-0,787700
13,083500	0,5	-0,757550
13,091833	0,5	-0,739350
13,100167	0,5	-0,699800
13,108500	0,5	-0,660900
13,116833	0,5	-0,614850
13,125167	0,5	-0,575000
13,133500	0,5	-0,535500
13,141833	0,5	-0,487900
13,150167	0,5	-0,451150
13,158500	0,5	-0,415100
13,166833	0,5	-0,389000
13,175167	0,5	-0,373350
13,183500	0,5	-0,363400
13,191833	0,5	-0,355350
13,200167	0,5	-0,349950
13,208500	0,5	-0,348000
13,216833	0,5	-0,346100
13,225167	0,5	-0,343650
13,233500	0,5	-0,343600
13,241833	0,5	-0,346400
13,250167	0,5	-0,340400
13,258500	0,5	-0,340000
13,266833	0,5	-0,343000
13,275167	0,5	-0,346350
13,283500	0,5	-0,356550
13,291833	0,5	-0,361800
13,300167	0,5	-0,349750
13,308500	0,5	-0,346950
13,316833	0,5	-0,343500
13,325167	0,5	-0,331900
13,333500	0,5	-0,320100
13,341833	0,5	-0,302250
13,350167	0,5	-0,277450
13,358500	0,5	-0,253500
13,366833	0,5	-0,222150
13,375167	0,5	-0,190200
13,383500	0,5	-0,160950
13,391833	0,5	-0,139350
13,400167	0,5	-0,110700
13,408500	0,5	-0,104650
13,416833	0,5	-0,097950
13,425167	0,5	-0,107850
13,433500	0,5	-0,123100
13,441833	0,5	-0,135950
13,450167	0,5	-0,144900
13,458500	0,5	-0,156800
13,466833	0,5	-0,162400
13,475167	0,5	-0,166650
13,483500	0,5	-0,163250
13,491833	0,5	-0,147400
13,500167	0,5	-0,131400
13,508500	0,5	-0,108200
13,516833	0,5	-0,080900
13,525167	0,5	-0,037300
13,533500	0,5	0,002700
13,541833	0,5	0,052500
13,550167	0,5	0,099100
13,558500	0,5	0,131750
13,566833	0,5	0,156300
13,575167	0,5	0,159250
13,583500	0,5	0,150750
13,591833	0,5	0,148600
13,600167	0,5	0,135800
13,608500	0,5	0,120700
13,616833	0,5	0,101650
13,625167	0,5	0,097950
13,633500	0,5	0,089500
13,641833	0,5	0,096800
13,650167	0,5	0,113050
13,658500	0,5	0,139800
13,666833	0,5	0,174300
13,675167	0,5	0,210750
13,683500	0,5	0,230250
13,691833	0,5	0,252150
13,700167	0,5	0,263900
13,708500	0,5	0,252900
13,716833	0,5	0,242150
13,725167	0,5	0,213500
13,733500	0,5	0,201300
13,741833	0,5	0,185850
13,750167	0,5	0,175600
13,758500	0,5	0,163900
13,766833	0,5	0,157700
13,775167	0,5	0,154650
13,783500	0,5	0,158400
13,791833	0,5	0,166000
13,800167	0,5	0,180750
13,808500	0,5	0,186150
13,816833	0,5	0,190500
13,825167	0,5	0,182750
13,833500	0,5	0,169200
13,841833	0,5	0,165650
13,850167	0,5	0,152950
13,858500	0,5	0,135450
13,866833	0,5	0,119550
13,875167	0,5	0,109550
13,883500	0,5	0,094700
13,891833	0,5	0,095300
13,900167	0,5	0,093600
13,908500	0,5	0,094350
13,916833	0,5	0,088150
13,925167	0,5	0,086950
13,933500	0,5	0,086700
13,941833	0,5	0,080500
13,950167	0,5	0,071200
13,958500	0,5	0,061850
13,966833	0,5	0,059400
13,975167	0,5	0,049800
13,983500	0,5	0,031200
13,991833	0,5	0,032350
14,000167	0,5	0,029450
14,008500	0,5	0,021550
14,016833	0,5	0,011000
14,025167	0,5	0,001750
14,033500	0,5	0,007400
14,041833	0,5	-0,001350
14,050167	0,5	-0,002250
14,058500	0,5	-0,009350
14,066833	0,5	-0,009050
14,075167	0,5	-0,013050
14,083500	0,5	-0,019700
14,091833	0,5	-0,025750
14,100167	0,5	-0,028850
14,108500	0,5	-0,030150
14,116833	0,5	-0,032450
14,125167	0,5	-0,044500
14,133500	0,5	-0,043500
14,141833	0,5	-0,047350
14,150167	0,5	-0,052100
14,158500	0,5	-0,065450
14,166833	0,5	-0,079600
14,175167	0,5	-0,085350
14,183500	0,5	-0,090850
14,191833	0,5	-0,091200
14,200167	0,5	-0,096400
14,208500	0,5	-0,099600
14,216833	0,5	-0,104950
14,225167	0,5	-0,103150
14,233500	0,5	-0,107900
14,241833	0,5	-0,107650
14,250167	0,5	-0,109700
14,258500	0,5	-0,110150
14,266833	0,5	-0,109450
14,275167	0,5	-0,120100
14,283500	0,5	-0,116300
14,291833	0,5	-0,121700
14,300167	0,5	-0,123550
14,308500	0,5	-0,128150
14,316833	0,5	-0,142600
14,325167	0,5	-0,140350
14,333500	0,5	-0,138400
14,341833	0,5	-0,143200
14,350167	0,5	-0,146550
14,358500	0,5	-0,150400
14,366833	0,5	-0,157800
14,375167	0,5	-0,166450
14,383500	0,5	-0,168800
14,391833	0,5	-0,175400
14,400167	0,5	-0,172000
14,408500	0,5	-0,178650
14,416833	0,5	-0,177150
14,425167	0,5	-0,180050
14,433500	0,5	-0,172900
14,441833	0,5	-0,177600
14,450167	0,5	-0,182450
14,458500	0,5	-0,192650
14,466833	0,5	-0,199350
14,475167	0,5	-0,203500
14,483500	0,5	-0,202300
14,491833	0,5	-0,205900
14,500167	0,5	-0,206550
14,508500	0,5	-0,209250
14,516833	0,5	-0,215850
14,525167	0,5	-0,219050
14,533500	0,5	-0,222400
14,541833	0,5	-0,222150
14,550167	0,5	-0,220450
14,558500	0,5	-0,218800
14,566833	0,5	-0,228650
14,575167	0,5	-0,227800
14,583500	0,5	-0,228600
14,591833	0,5	-0,230800
14,600167	0,5	-0,240500
14,608500	0,5	-0,255750
14,616833	0,5	-0,263150
14,625167	0,5	-0,262600
14,633500	0,5	-0,270250
14,641833	0,5	-0,267350
14,650167	0,5	-0,273250
14,658500	0,5	-0,275200
14,666833	0,5	-0,276350
14,675167	0,5	-0,279800
14,683500	0,5	-0,283800
14,691833	0,5	-0,286300
14,700167	0,5	-0,279150
14,708500	0,5	-0,285750
14,716833	0,5	-0,297700
14,725167	0,5	-0,293450
14,733500	0,5	-0,294100
14,741833	0,5	-0,303150
14,750167	0,5	-0,310600
14,758500	0,5	-0,322250
14,766833	0,5	-0,320350
14,775167	0,5	-0,326300
14,783500	0,5	-0,325700
14,791833	0,5	-0,325800
14,800167	0,5	-0,326150
14,808500	0,5	-0,329100
14,816833	0,5	-0,326650
14,825167	0,5	-0,329350
14,833500	0,5	-0,330500
14,841833	0,5	-0,331550
14,850167	0,5	-0,333100
14,858500	0,5	-0,343400
14,866833	0,5	-0,345950
14,875167	0,5	-0,348800
14,883500	0,5	-0,351850
14,891833	0,5	-0,355000
14,900167	0,5	-0,369900
14,908500	0,5	-0,373200
14,916833	0,5	-0,369300
14,925167	0,5	-0,367450
14,933500	0,5	-0,376700
14,941833	0,5	-0,377750
14,950167	0,5	-0,378150
14,958500	0,5	-0,376250
14,966833	0,5	-0,375700
14,975167	0,5	-0,382150
14,983500	0,5	-0,387150
14,991833	0,5	-0,383350
15,000167	0,5	-0,380800
15,008500	0,5	-0,390950
15,016833	0,5	-0,384950
15,025167	0,5	-0,377650
15,033500	0,5	-0,372700
15,041833	0,5	-0,371050
15,050167	0,5	-0,376700
15,058500	0,5	-0,370150
15,066833	0,5	-0,353450
15,075167	0,5	-0,361250
15,083500	0,5	-0,358300
15,091833	0,5	-0,366500
15,100167	0,5	-0,366550
15,108500	0,5	-0,380200
15,116833	0,5	-0,385850
15,125167	0,5	-0,397050
15,133500	0,5	-0,407300
15,141833	0,5	-0,406750
15,150167	0,5	-0,408350
15,158500	0,5	-0,427050
15,166833	0,5	-0,414600
15,175167	0,5	-0,423500
15,183500	0,5	-0,420850
15,191833	0,5	-0,432050
15,200167	0,5	-0,444250
15,208500	0,5	-0,443050
15,216833	0,5	-0,452700
15,225167	0,5	-0,456200
15,233500	0,5	-0,465350
15,241833	0,5	-0,467750
15,250167	0,5	-0,471800
15,258500	0,5	-0,472250
15,266833	0,5	-0,478700
15,275167	0,5	-0,478500
15,283500	0,5	-0,474850
15,291833	0,5	-0,468800
15,300167	0,5	-0,471250
15,308500	0,5	-0,474100
15,316833	0,5	-0,465050
15,325167	0,5	-0,465900
15,333500	0,5	-0,472050
15,341833	0,5	-0,480800
15,350167	0,5	-0,490800
15,358500	0,5	-0,485900
15,366833	0,5	-0,488750
15,375167	0,5	-0,488800
15,383500	0,5	-0,487700
15,391833	0,5	-0,481000
15,400167	0,5	-0,475950
15,408500	0,5	-0,473600
15,416833	0,5	-0,468900
15,425167	0,5	-0,471200
15,433500	0,5	-0,460150
15,441833	0,5	-0,459250
15,450167	0,5	-0,463200
15,458500	0,5	-0,461750
15,466833	0,5	-0,462700
15,475167	0,5	-0,479050
15,483500	0,5	-0,490200
15,491833	0,5	-0,514400
15,500167	0,5	-0,533850
15,508500	0,5	-0,544350
15,516833	0,5	-0,550700
15,525167	0,5	-0,561800
15,533500	0,5	-0,566050
15,541833	0,5	-0,573900
15,550167	0,5	-0,573550
15,558500	0,5	-0,576650
15,566833	0,5	-0,580600
15,575167	0,5	-0,582900
15,583500	0,5	-0,578250
15,591833	0,5	-0,578100
15,600167	0,5	-0,586450
15,608500	0,5	-0,577500
15,616833	0,5	-0,570700
15,625167	0,5	-0,572650
15,633500	0,5	-0,578600
15,641833	0,5	-0,586200
15,650167	0,5	-0,588450
15,658500	0,5	-0,588050
15,666833	0,5	-0,595350
15,675167	0,5	-0,594200
15,683500	0,5	-0,597350
15,691833	0,5	-0,594800
15,700167	0,5	-0,596200
15,708500	0,5	-0,598150
15,716833	0,5	-0,601250
15,725167	0,5	-0,603700
15,733500	0,5	-0,597050
15,741833	0,5	-0,603250
15,750167	0,5	-0,612700
15,758500	0,5	-0,609850
15,766833	0,5	-0,616050
15,775167	0,5	-0,623550
15,783500	0,5	-0,635050
15,791833	0,5	-0,644950
15,800167	0,5	-0,639250
15,808500	0,5	-0,645650
15,816833	0,5	-0,641700
15,825167	0,5	-0,643350
15,833500	0,5	-0,639750
15,841833	0,5	-0,642650
15,850167	0,5	-0,641700
15,858500	0,5	-0,644500
15,866833	0,5	-0,655800
15,875167	0,5	-0,652650
15,883500	0,5	-0,647200
15,891833	0,5	-0,664600
15,900167	0,5	-0,657500
15,908500	0,5	-0,656950
15,916833	0,5	-0,658500
15,925167	0,5	-0,659700
15,933500	0,5	-0,675850
15,941833	0,5	-0,671050
15,950167	0,5	-0,672800
15,958500	0,5	-0,667350
15,966833	0,5	-0,686450
15,975167	0,5	-0,682300
15,983500	0,5	-0,690350
15,991833	0,5	-0,689350
16,000167	0,5	-0,692700
16,008500	0,5	-0,695000
16,016833	0,5	-0,701100
16,025167	0,5	-0,703250
16,033500	0,5	-0,699750
16,041833	0,5	-0,712250
16,050167	0,5	-0,703900
16,058500	0,5	-0,700000
16,066833	0,5	-0,705650
16,075167	0,5	-0,712450
16,083500	0,5	-0,726200
16,091833	0,5	-0,726450
16,100167	0,5	-0,720150
16,108500	0,5	-0,726050
16,116833	0,5	-0,726450
16,125167	0,5	-0,728150
16,133500	0,5	-0,723900
16,141833	0,5	-0,727950
16,150167	0,5	-0,724450
16,158500	0,5	-0,725550
16,166833	0,5	-0,731000
16,175167	0,5	-0,728450
16,183500	0,5	-0,730350
16,191833	0,5	-0,742850
16,200167	0,5	-0,734800
16,208500	0,5	-0,738350
16,216833	0,5	-0,746000
16,225167	0,5	-0,758700
16,233500	0,5	-0,773450
16,241833	0,5	-0,766350
16,250167	0,5	-0,768600
16,258500	0,5	-0,768950
16,266833	0,5	-0,779350
16,275167	0,5	-0,777100
16,283500	0,5	-0,780450
16,291833	0,5	-0,780700
16,300167	0,5	-0,782750
16,308500	0,5	-0,781700
16,316833	0,5	-0,779550
16,325167	0,5	-0,777900
16,333500	0,5	-0,786450
16,341833	0,5	-0,787450
16,350167	0,5	-0,783050
16,358500	0,5	-0,784650
16,366833	0,5	-0,794250
16,375167	0,5	-0,801550
16,383500	0,5	-0,808450
16,391833	0,5	-0,807550
16,400167	0,5	-0,802450
16,408500	0,5	-0,803800
16,416833	0,5	-0,806700
16,425167	0,5	-0,808400
16,433500	0,5	-0,809750
16,441833	0,5	-0,811300
16,450167	0,5	-0,812100
16,458500	0,5	-0,822800
16,466833	0,5	-0,816250
16,475167	0,5	-0,814350
16,483500	0,5	-0,823650
16,491833	0,5	-0,819100
16,500167	0,5	-0,819750
16,508500	0,5	-0,823250
16,516833	0,5	-0,825300
16,525167	0,5	-0,837900
16,533500	0,5	-0,839300
16,541833	0,5	-0,830450
16,550167	0,5	-0,826350
16,558500	0,5	-0,826550
16,566833	0,5	-0,823400
16,575167	0,5	-0,823750
16,583500	0,5	-0,824600
16,591833	0,5	-0,823000
16,600167	0,5	-0,827400
16,608500	0,5	-0,827350
16,616833	0,5	-0,824100
16,625167	0,5	-0,830050
16,633500	0,5	-0,839950
16,641833	0,5	-0,830750
16,650167	0,5	-0,834250
16,658500	0,5	-0,839750
16,666833	0,5	-0,854800
16,675167	0,5	-0,856900
16,683500	0,5	-0,856850
16,691833	0,5	-0,856200
16,700167	0,5	-0,857100
16,708500	0,5	-0,856200
16,716833	0,5	-0,858600
16,725167	0,5	-0,855650
16,733500	0,5	-0,858700
16,741833	0,5	-0,857350
16,750167	0,5	-0,856700
16,758500	0,5	-0,862800
16,766833	0,5	-0,852000
16,775167	0,5	-0,867100
16,783500	0,5	-0,855900
16,791833	0,5	-0,847500
16,800167	0,5	-0,841100
16,808500	0,5	-0,846450
16,816833	0,5	-0,858200
16,825167	0,5	-0,857850
16,833500	0,5	-0,852000
16,841833	0,5	-0,853750
16,850167	0,5	-0,848900
16,858500	0,5	-0,857650
16,866833	0,5	-0,849050
16,875167	0,5	-0,845950
16,883500	0,5	-0,838450
16,891833	0,5	-0,830250
16,900167	0,5	-0,821450
16,908500	0,5	-0,795200
16,916833	0,5	-0,773300
16,925167	0,5	-0,765550
16,933500	0,5	-0,730750
16,941833	0,5	-0,709150
16,950167	0,5	-0,692300
16,958500	0,5	-0,689550
16,966833	0,5	-0,689150
16,975167	0,5	-0,668950
16,983500	0,5	-0,667000
16,991833	0,5	-0,662000
17,000167	0,5	-0,672000
17,008500	0,5	-0,678950
17,016833	0,5	-0,702050
17,025167	0,5	-0,721100
17,033500	0,5	-0,744450
17,041833	0,5	-0,765400
17,050167	0,5	-0,777850
17,058500	0,5	-0,793100
17,066833	0,5	-0,797300
17,075167	0,5	-0,802350
17,083500	0,5	-0,790200
17,091833	0,5	-0,785400
17,100167	0,5	-0,785200
17,108500	0,5	-0,792750
17,116833	0,5	-0,805700
17,125167	0,5	-0,805450
17,133500	0,5	-0,805550
17,141833	0,5	-0,810700
17,150167	0,5	-0,803950
17,158500	0,5	-0,815000
17,166833	0,5	-0,808200
17,175167	0,5	-0,807500
17,183500	0,5	-0,802250
17,191833	0,5	-0,801200
17,200167	0,5	-0,797600
17,208500	0,5	-0,791000
17,216833	0,5	-0,791150
17,225167	0,5	-0,787000
17,233500	0,5	-0,778100
17,241833	0,5	-0,776600
17,250167	0,5	-0,777550
17,258500	0,5	-0,790950
17,266833	0,5	-0,795200
17,275167	0,5	-0,782400
17,283500	0,5	-0,777650
17,291833	0,5	-0,770200
17,300167	0,5	-0,769450
17,308500	0,5	-0,765350
17,316833	0,5	-0,765550
17,325167	0,5	-0,758000
17,333500	0,5	-0,756000
17,341833	0,5	-0,759650
17,350167	0,5	-0,754900
17,358500	0,5	-0,760750
17,366833	0,5	-0,771200
17,375167	0,5	-0,761000
17,383500	0,5	-0,760850
17,391833	0,5	-0,768450
17,400167	0,5	-0,773150
17,408500	0,5	-0,787750
17,416833	0,5	-0,787400
17,425167	0,5	-0,786400
17,433500	0,5	-0,786600
17,441833	0,5	-0,785100
17,450167	0,5	-0,783950
17,458500	0,5	-0,789050
17,466833	0,5	-0,781750
17,475167	0,5	-0,783650
17,483500	0,5	-0,782450
17,491833	0,5	-0,788200
17,500167	0,5	-0,781950
17,508500	0,5	-0,791250
17,516833	0,5	-0,788750
17,525167	0,5	-0,786350
17,533500	0,5	-0,789150
17,541833	0,5	-0,794900
17,550167	0,5	-0,808850
17,558500	0,5	-0,818550
17,566833	0,5	-0,820300
17,575167	0,5	-0,818150
17,583500	0,5	-0,816850
17,591833	0,5	-0,819000
17,600167	0,5	-0,817000
17,608500	0,5	-0,815600
17,616833	0,5	-0,822650
17,625167	0,5	-0,821600
17,633500	0,5	-0,823650
17,641833	0,5	-0,823100
17,650167	0,5	-0,826600
17,658500	0,5	-0,839050
17,666833	0,5	-0,832750
17,675167	0,5	-0,826350
17,683500	0,5	-0,833100
17,691833	0,5	-0,833400
17,700167	0,5	-0,848850
17,708500	0,5	-0,848500
17,716833	0,5	-0,845750
17,725167	0,5	-0,844100
17,733500	0,5	-0,847100
17,741833	0,5	-0,848950
17,750167	0,5	-0,854000
17,758500	0,5	-0,853800
17,766833	0,5	-0,851750
17,775167	0,5	-0,854700
17,783500	0,5	-0,857000
17,791833	0,5	-0,860550
17,800167	0,5	-0,858100
17,808500	0,5	-0,873700
17,816833	0,5	-0,860400
17,825167	0,5	-0,859300
17,833500	0,5	-0,865050
17,841833	0,5	-0,873450
17,850167	0,5	-0,890900
17,858500	0,5	-0,890550
17,866833	0,5	-0,886450
17,875167	0,5	-0,894600
17,883500	0,5	-0,896550
17,891833	0,5	-0,900850
17,900167	0,5	-0,904900
17,908500	0,5	-0,907950
17,916833	0,5	-0,912550
17,925167	0,5	-0,916550
17,933500	0,5	-0,927900
17,941833	0,5	-0,926050
17,950167	0,5	-0,946900
17,958500	0,5	-0,948150
17,966833	0,5	-0,945250
17,975167	0,5	-0,945950
17,983500	0,5	-0,959250
17,991833	0,5	-0,971650
18,000167	0,5	-0,986150
18,008500	0,5	-0,980950
18,016833	0,5	-0,990000
18,025167	0,5	-0,989200
18,033500	0,5	-0,999250
18,041833	0,5	-0,997250
18,050167	0,5	-1,009750
18,058500	0,5	-1,012900
18,066833	0,5	-1,013400
18,075167	0,5	-1,020200
18,083500	0,5	-1,021150
18,091833	0,5	-1,019400
18,100167	0,5	-1,036050
18,108500	0,5	-1,036300
18,116833	0,5	-1,038450
18,125167	0,5	-1,045150
18,133500	0,5	-1,055600
18,141833	0,5	-1,076950
18,150167	0,5	-1,086500
18,158500	0,5	-1,086700
18,166833	0,5	-1,081150
18,175167	0,5	-1,091050
18,183500	0,5	-1,093950
18,191833	0,5	-1,098000
18,200167	0,5	-1,097550
18,208500	0,5	-1,099900
18,216833	0,5	-1,107100
18,225167	0,5	-1,113400
18,233500	0,5	-1,112000
18,241833	0,5	-1,111450
18,250167	0,5	-1,125050
18,258500	0,5	-1,117950
18,266833	0,5	-1,118250
18,275167	0,5	-1,119750
18,283500	0,5	-1,137650
18,291833	0,5	-1,152950
18,300167	0,5	-1,157800
18,308500	0,5	-1,152500
18,316833	0,5	-1,158650
18,325167	0,5	-1,157300
18,333500	0,5	-1,160700
18,341833	0,5	-1,156950
18,350167	0,5	-1,170300
18,358500	0,5	-1,165250
18,366833	0,5	-1,166100
18,375167	0,5	-1,167000
18,383500	0,5	-1,166450
18,391833	0,5	-1,171900
18,400167	0,5	-1,179200
18,408500	0,5	-1,167500
18,416833	0,5	-1,177000
18,425167	0,5	-1,181000
18,433500	0,5	-1,191500
18,441833	0,5	-1,213850
18,450167	0,5	-1,208850
18,458500	0,5	-1,214950
18,466833	0,5	-1,213250
18,475167	0,5	-1,220550
18,483500	0,5	-1,216600
18,491833	0,5	-1,221050
18,500167	0,5	-1,218000
18,508500	0,5	-1,221950
18,516833	0,5	-1,223650
18,525167	0,5	-1,218800
18,533500	0,5	-1,214400
18,541833	0,5	-1,231350
18,550167	0,5	-1,228950
18,558500	0,5	-1,225000
18,566833	0,5	-1,231700
18,575167	0,5	-1,237450
18,583500	0,5	-1,250350
18,591833	0,5	-1,248350
18,600167	0,5	-1,252300
18,608500	0,5	-1,243900
18,616833	0,5	-1,242450
18,625167	0,5	-1,235950
18,633500	0,5	-1,240300
18,641833	0,5	-1,241200
18,650167	0,5	-1,250800
18,658500	0,5	-1,247850
18,666833	0,5	-1,253850
18,675167	0,5	-1,246800
18,683500	0,5	-1,248500
18,691833	0,5	-1,250650
18,700167	0,5	-1,245000
18,708500	0,5	-1,239250
18,716833	0,5	-1,239900
18,725167	0,5	-1,245750
18,733500	0,5	-1,257000
18,741833	0,5	-1,263550
18,750167	0,5	-1,270650
18,758500	0,5	-1,277050
18,766833	0,5	-1,280900
18,775167	0,5	-1,289800
18,783500	0,5	-1,290500
18,791833	0,5	-1,298050
18,800167	0,5	-1,296200
18,808500	0,5	-1,300950
18,816833	0,5	-1,297750
18,825167	0,5	-1,293750
18,833500	0,5	-1,299150
18,841833	0,5	-1,313650
18,850167	0,5	-1,303500
18,858500	0,5	-1,300450
18,866833	0,5	-1,305000
18,875167	0,5	-1,320250
18,883500	0,5	-1,325400
18,891833	0,5	-1,321400
18,900167	0,5	-1,321950
18,908500	0,5	-1,321950
18,916833	0,5	-1,323750
18,925167	0,5	-1,319750
18,933500	0,5	-1,319550
18,941833	0,5	-1,318150
18,950167	0,5	-1,320850
18,958500	0,5	-1,312300
18,966833	0,5	-1,304700
18,975167	0,5	-1,294900
18,983500	0,5	-1,313700
18,991833	0,5	-1,303850
19,000167	0,5	-1,314100
19,008500	0,5	-1,319900
19,016833	0,5	-1,332800
19,025167	0,5	-1,355150
19,033500	0,5	-1,351300
19,041833	0,5	-1,354400
19,050167	0,5	-1,361100
19,058500	0,5	-1,365750
19,066833	0,5	-1,368750
19,075167	0,5	-1,369850
19,083500	0,5	-1,369300
19,091833	0,5	-1,369700
19,100167	0,5	-1,370300
19,108500	0,5	-1,376450
19,116833	0,5	-1,365800
19,125167	0,5	-1,369350
19,133500	0,5	-1,376100
19,141833	0,5	-1,373150
19,150167	0,5	-1,370750
19,158500	0,5	-1,371150
19,166833	0,5	-1,375600
19,175167	0,5	-1,395550
19,183500	0,5	-1,395500
19,191833	0,5	-1,399550
19,200167	0,5	-1,405350
19,208500	0,5	-1,411800
19,216833	0,5	-1,409550
19,225167	0,5	-1,415750
19,233500	0,5	-1,419900
19,241833	0,5	-1,423350
19,250167	0,5	-1,425150
19,258500	0,5	-1,413950
19,266833	0,5	-1,402650
19,275167	0,5	-1,396950
19,283500	0,5	-1,383950
19,291833	0,5	-1,371750
19,300167	0,5	-1,375750
19,308500	0,5	-1,392100
19,316833	0,5	-1,420950
19,325167	0,5	-1,443300
19,333500	0,5	-1,456400
19,341833	0,5	-1,464150
19,350167	0,5	-1,471550
19,358500	0,5	-1,467250
19,366833	0,5	-1,468650
19,375167	0,5	-1,469550
19,383500	0,5	-1,472300
19,391833	0,5	-1,471500
19,400167	0,5	-1,456900
19,408500	0,5	-1,437450
19,416833	0,5	-1,402000
19,425167	0,5	-1,367250
19,433500	0,5	-1,313100
19,441833	0,5	-1,272500
19,450167	0,5	-1,256750
19,458500	0,5	-1,281850
19,466833	0,5	-1,327100
19,475167	0,5	-1,378500
19,483500	0,5	-1,423650
19,491833	0,5	-1,464750
19,500167	0,5	-1,491400
19,508500	0,5	-1,512700
19,516833	0,5	-1,517350
19,525167	0,5	-1,525850
19,533500	0,5	-1,525950
19,541833	0,5	-1,530400
19,550167	0,5	-1,528450
19,558500	0,5	-1,518550
19,566833	0,5	-1,526250
19,575167	0,5	-1,533600
19,583500	0,5	-1,528700
19,591833	0,5	-1,529200
19,600167	0,5	-1,538650
19,608500	0,5	-1,555100
19,616833	0,5	-1,563600
19,625167	0,5	-1,560200
19,633500	0,5	-1,568600
19,641833	0,5	-1,561800
19,650167	0,5	-1,562800
19,658500	0,5	-1,549050
19,666833	0,5	-1,548600
19,675167	0,5	-1,528750
19,683500	0,5	-1,506450
19,691833	0,5	-1,476700
19,700167	0,5	-1,434300
19,708500	0,5	-1,405350
19,716833	0,5	-1,405700
19,725167	0,5	-1,408800
19,733500	0,5	-1,430850
19,741833	0,5	-1,466200
19,750167	0,5	-1,499300
19,758500	0,5	-1,543250
19,766833	0,5	-1,556450
19,775167	0,5	-1,576850
19,783500	0,5	-1,584600
19,791833	0,5	-1,605700
19,800167	0,5	-1,607250
19,808500	0,5	-1,619100
19,816833	0,5	-1,616000
19,825167	0,5	-1,621750
19,833500	0,5	-1,626500
19,841833	0,5	-1,626900
19,850167	0,5	-1,618250
19,858500	0,5	-1,616150
19,866833	0,5	-1,629450
19,875167	0,5	-1,617700
19,883500	0,5	-1,616100
19,891833	0,5	-1,617250
19,900167	0,5	-1,627950
19,908500	0,5	-1,643500
19,916833	0,5	-1,637450
19,925167	0,5	-1,636550
19,933500	0,5	-1,644400
19,941833	0,5	-1,640000
19,950167	0,5	-1,641350
19,958500	0,5	-1,634700
19,966833	0,5	-1,637200
19,975167	0,5	-1,628250
19,983500	0,5	-1,630200
19,991833	0,5	-1,629000
20,000167	0,5	-1,624100
20,008500	0,5	-1,629950
20,016833	0,5	-1,636050
20,025167	0,5	-1,630100
20,033500	0,5	-1,638000
20,041833	0,5	-1,645500
20,050167	0,5	-1,657200
20,058500	0,5	-1,660800
20,066833	0,5	-1,650950
20,075167	0,5	-1,656450
20,083500	0,5	-1,651850
20,091833	0,5	-1,653700
20,100167	0,5	-1,650900
20,108500	0,5	-1,654300
20,116833	0,5	-1,646850
20,125167	0,5	-1,648400
20,133500	0,5	-1,650550
20,141833	0,5	-1,636450
20,150167	0,5	-1,628250
20,158500	0,5	-1,635850
20,166833	0,5	-1,630650
20,175167	0,5	-1,626150
20,183500	0,5	-1,623800
20,191833	0,5	-1,629750
20,200167	0,5	-1,644600
20,208500	0,5	-1,638250
20,216833	0,5	-1,635900
20,225167	0,5	-1,626450
20,233500	0,5	-1,635050
20,241833	0,5	-1,624100
20,250167	0,5	-1,626400
20,258500	0,5	-1,613700
20,266833	0,5	-1,613050
20,275167	0,5	-1,614100
20,283500	0,5	-1,610100
20,291833	0,5	-1,599300
20,300167	0,5	-1,601050
20,308500	0,5	-1,606750
20,316833	0,5	-1,597600
20,325167	0,5	-1,604300
20,333500	0,5	-1,612050
20,341833	0,5	-1,622550
20,350167	0,5	-1,631800
20,358500	0,5	-1,640350
20,366833	0,5	-1,633100
20,375167	0,5	-1,636300
20,383500	0,5	-1,633000
20,391833	0,5	-1,641700
20,400167	0,5	-1,637600
20,408500	0,5	-1,642050
20,416833	0,5	-1,640500
20,425167	0,5	-1,650150
20,433500	0,5	-1,635600
20,441833	0,5	-1,631450
20,450167	0,5	-1,635300
20,458500	0,5	-1,639050
20,466833	0,5	-1,635700
20,475167	0,5	-1,646450
20,483500	0,5	-1,652750
20,491833	0,5	-1,665850
20,500167	0,5	-1,669900
20,508500	0,5	-1,663800
20,516833	0,5	-1,665900
20,525167	0,5	-1,670800
20,533500	0,5	-1,671950
20,541833	0,5	-1,664600
20,550167	0,5	-1,665250
20,558500	0,5	-1,657850
20,566833	0,5	-1,666100
20,575167	0,5	-1,661950
20,583500	0,5	-1,642900
20,591833	0,5	-1,636900
20,600167	0,5	-1,642750
20,608500	0,5	-1,644650
20,616833	0,5	-1,643100
20,625167	0,5	-1,650650
20,633500	0,5	-1,664100
20,641833	0,5	-1,668850
20,650167	0,5	-1,660550
20,658500	0,5	-1,659350
20,666833	0,5	-1,656550
20,675167	0,5	-1,656950
20,683500	0,5	-1,650450
20,691833	0,5	-1,651700
20,700167	0,5	-1,638600
20,708500	0,5	-1,640000
20,716833	0,5	-1,634650
20,725167	0,5	-1,631250
20,733500	0,5	-1,608900
20,741833	0,5	-1,600500
20,750167	0,5	-1,602650
20,758500	0,5	-1,599200
20,766833	0,5	-1,600250
20,775167	0,5	-1,608300
20,783500	0,5	-1,626250
20,791833	0,5	-1,622250
20,800167	0,5	-1,616600
20,808500	0,5	-1,611650
20,816833	0,5	-1,611500
20,825167	0,5	-1,612800
20,833500	0,5	-1,611950
20,841833	0,5	-1,602900
20,850167	0,5	-1,597600
20,858500	0,5	-1,587200
20,866833	0,5	-1,590100
20,875167	0,5	-1,564800
20,883500	0,5	-1,552650
20,891833	0,5	-1,556700
20,900167	0,5	-1,554700
20,908500	0,5	-1,556000
20,916833	0,5	-1,561300
20,925167	0,5	-1,570500
20,933500	0,5	-1,587400
20,941833	0,5	-1,572400
20,950167	0,5	-1,566150
20,958500	0,5	-1,567600
20,966833	0,5	-1,563150
20,975167	0,5	-1,554300
20,983500	0,5	-1,551500
20,991833	0,5	-1,547650
21,000167	0,5	-1,537600
21,008500	0,5	-1,543200
21,016833	0,5	-1,533050
21,025167	0,5	-1,510650
21,033500	0,5	-1,503850
21,041833	0,5	-1,505650
21,050167	0,5	-1,500650
21,058500	0,5	-1,501550
21,066833	0,5	-1,502700
21,075167	0,5	-1,515250
21,083500	0,5	-1,517800
21,091833	0,5	-1,506250
21,100167	0,5	-1,501750
21,108500	0,5	-1,495200
21,116833	0,5	-1,493750
21,125167	0,5	-1,491950
21,133500	0,5	-1,490900
21,141833	0,5	-1,481000
21,150167	0,5	-1,480800
21,158500	0,5	-1,473600
21,166833	0,5	-1,458300
21,175167	0,5	-1,440750
21,183500	0,5	-1,432350
21,191833	0,5	-1,435750
21,200167	0,5	-1,438750
21,208500	0,5	-1,436000
21,216833	0,5	-1,445750
21,225167	0,5	-1,458200
21,233500	0,5	-1,452000
21,241833	0,5	-1,442700
21,250167	0,5	-1,436850
21,258500	0,5	-1,427000
21,266833	0,5	-1,415900
21,275167	0,5	-1,414250
21,283500	0,5	-1,402500
21,291833	0,5	-1,394000
21,300167	0,5	-1,386650
21,308500	0,5	-1,380150
21,316833	0,5	-1,355450
21,325167	0,5	-1,341950
21,333500	0,5	-1,342800
21,341833	0,5	-1,341150
21,350167	0,5	-1,341050
21,358500	0,5	-1,338300
21,366833	0,5	-1,347650
21,375167	0,5	-1,352550
21,383500	0,5	-1,346600
21,391833	0,5	-1,334800
21,400167	0,5	-1,319900
21,408500	0,5	-1,307050
21,416833	0,5	-1,294950
21,425167	0,5	-1,281400
21,433500	0,5	-1,263900
21,441833	0,5	-1,240950
21,450167	0,5	-1,218350
21,458500	0,5	-1,171600
21,466833	0,5	-1,133950
21,475167	0,5	-1,109500
21,483500	0,5	-1,108450
21,491833	0,5	-1,106150
21,500167	0,5	-1,116750
21,508500	0,5	-1,120150
21,516833	0,5	-1,137200
21,525167	0,5	-1,146500
21,533500	0,5	-1,142750
21,541833	0,5	-1,137750
21,550167	0,5	-1,135400
21,558500	0,5	-1,127350
21,566833	0,5	-1,114200
21,575167	0,5	-1,105150
21,583500	0,5	-1,090500
21,591833	0,5	-1,081850
21,600167	0,5	-1,070150
21,608500	0,5	-1,037750
21,616833	0,5	-1,017250
21,625167	0,5	-1,017250
21,633500	0,5	-1,003950
21,641833	0,5	-0,995500
21,650167	0,5	-0,987600
21,658500	0,5	-0,986200
21,666833	0,5	-0,974800
21,675167	0,5	-0,954250
21,683500	0,5	-0,934850
21,691833	0,5	-0,924450
21,700167	0,5	-0,910950
21,708500	0,5	-0,891650
21,716833	0,5	-0,883350
21,725167	0,5	-0,870000
21,733500	0,5	-0,855050
21,741833	0,5	-0,830100
21,750167	0,5	-0,808650
21,758500	0,5	-0,775200
21,766833	0,5	-0,758900
21,775167	0,5	-0,753250
21,783500	0,5	-0,738650
21,791833	0,5	-0,726150
21,800167	0,5	-0,722400
21,808500	0,5	-0,721550
21,816833	0,5	-0,699650
21,825167	0,5	-0,682650
21,833500	0,5	-0,660650
21,841833	0,5	-0,639850
21,850167	0,5	-0,616650
21,858500	0,5	-0,594100
21,866833	0,5	-0,567000
21,875167	0,5	-0,548450
21,883500	0,5	-0,527250
21,891833	0,5	-0,509100
21,900167	0,5	-0,469100
21,908500	0,5	-0,442800
21,916833	0,5	-0,435000
21,925167	0,5	-0,406200
21,933500	0,5	-0,380900
21,941833	0,5	-0,364200
21,950167	0,5	-0,347400
21,958500	0,5	-0,333000
21,966833	0,5	-0,298800
21,975167	0,5	-0,265450
21,983500	0,5	-0,234200
21,991833	0,5	-0,203650
22,000167	0,5	-0,161500
22,008500	0,5	-0,132550
22,016833	0,5	-0,104000
22,025167	0,5	-0,065450
22,033500	0,5	-0,033900
22,041833	0,5	-0,002050
22,050167	0,5	0,028400
22,058500	0,5	0,045650
22,066833	0,5	0,066650
22,075167	0,5	0,093950
22,083500	0,5	0,104450
22,091833	0,5	0,121300
22,100167	0,5	0,132600
22,108500	0,5	0,150600
22,116833	0,5	0,180150
22,125167	0,5	0,209300
22,133500	0,5	0,245600
22,141833	0,5	0,278900
22,150167	0,5	0,311500
22,158500	0,5	0,344800
22,166833	0,5	0,387600
22,175167	0,5	0,419400
22,183500	0,5	0,462150
22,191833	0,5	0,496950
22,200167	0,5	0,549050
22,208500	0,5	0,583600
22,216833	0,5	0,638850
22,225167	0,5	0,682850
22,233500	0,5	0,727800
22,241833	0,5	0,758200
22,250167	0,5	0,796250
22,258500	0,5	0,843100
22,266833	0,5	0,884000
22,275167	0,5	0,929800
22,283500	0,5	0,980550
22,291833	0,5	1,032950
22,300167	0,5	1,085350
22,308500	0,5	1,137750
22,316833	0,5	1,186950
22,325167	0,5	1,242300
22,333500	0,5	1,285950
22,341833	0,5	1,333250
22,350167	0,5	1,368250
22,358500	0,5	1,424100
22,366833	0,5	1,476950
22,375167	0,5	1,524000
22,383500	0,5	1,565400
22,391833	0,5	1,600800
22,400167	0,5	1,646100
22,408500	0,5	1,697100
22,416833	0,5	1,761300
22,425167	0,5	1,821250
22,433500	0,5	1,875100
22,441833	0,5	1,938300
22,450167	0,5	1,997550
22,458500	0,5	2,058150
22,466833	0,5	2,118950
22,475167	0,5	2,178000
22,483500	0,5	2,226800
22,491833	0,5	2,278650
22,500167	0,5	2,349200
22,508500	0,5	2,412250
22,516833	0,5	2,476500
22,525167	0,5	2,517700
22,533500	0,5	2,555700
22,541833	0,5	2,586000
22,550167	0,5	2,629100
22,558500	0,5	2,668800
22,566833	0,5	2,702050
22,575167	0,5	2,731000
22,583500	0,5	2,760850
22,591833	0,5	2,779350
22,600167	0,5	2,796350
22,608500	0,5	2,813200
22,616833	0,5	2,815500
22,625167	0,5	2,812950
22,633500	0,5	2,770050
22,641833	0,5	2,760950
22,650167	0,5	2,755050
22,658500	0,5	2,737200
22,666833	0,5	2,692600
22,675167	0,5	2,643650
22,683500	0,5	2,572750
22,691833	0,5	2,509150
22,700167	0,5	2,439500
22,708500	0,5	2,367200
22,716833	0,5	2,287200
22,725167	0,5	2,202450
22,733500	0,5	2,117550
22,741833	0,5	2,031500
22,750167	0,5	1,933900
22,758500	0,5	1,828100
22,766833	0,5	1,718900
22,775167	0,5	1,576450
22,783500	0,5	1,454100
22,791833	0,5	1,321000
22,800167	0,5	1,215600
22,808500	0,5	1,074500
22,816833	0,5	0,936550
22,825167	0,5	0,800100
22,833500	0,5	0,661000
22,841833	0,5	0,519850
22,850167	0,5	0,383400
22,858500	0,5	0,253150
22,866833	0,5	0,124800
22,875167	0,5	0,000250
22,883500	0,5	-0,117300
22,891833	0,5	-0,236600
22,900167	0,5	-0,358800
22,908500	0,5	-0,476400
22,916833	0,5	-0,593600
22,925167	0,5	-0,712050
22,933500	0,5	-0,817050
22,941833	0,5	-0,936050
22,950167	0,5	-1,069400
22,958500	0,5	-1,178550
22,966833	0,5	-1,275200
22,975167	0,5	-1,367550
22,983500	0,5	-1,446150
22,991833	0,5	-1,535450
23,000167	0,5	-1,609000
23,008500	0,5	-1,680450
23,016833	0,5	-1,739700
23,025167	0,5	-1,803400
23,033500	0,5	-1,854350
23,041833	0,5	-1,913100
23,050167	0,5	-1,967450
23,058500	0,5	-2,011250
23,066833	0,5	-2,044200
23,075167	0,5	-2,095200
23,083500	0,5	-2,137000
23,091833	0,5	-2,203050
23,100167	0,5	-2,269800
23,108500	0,5	-2,298100
23,116833	0,5	-2,323500
23,125167	0,5	-2,344650
23,133500	0,5	-2,361950
23,141833	0,5	-2,378150
23,150167	0,5	-2,392150
23,158500	0,5	-2,393250
23,166833	0,5	-2,398650
23,175167	0,5	-2,395100
23,183500	0,5	-2,392500
23,191833	0,5	-2,390450
23,200167	0,5	-2,390800
23,208500	0,5	-2,393050
23,216833	0,5	-2,381700
23,225167	0,5	-2,379550
23,233500	0,5	-2,369550
23,241833	0,5	-2,396550
23,250167	0,5	-2,409750
23,258500	0,5	-2,414150
23,266833	0,5	-2,401800
23,275167	0,5	-2,392200
23,283500	0,5	-2,376350
23,291833	0,5	-2,368500
23,300167	0,5	-2,348050
23,308500	0,5	-2,331200
23,316833	0,5	-2,303050
23,325167	0,5	-2,282200
23,333500	0,5	-2,254150
23,341833	0,5	-2,232100
23,350167	0,5	-2,206500
23,358500	0,5	-2,178750
23,366833	0,5	-2,187350
23,375167	0,5	-2,151200
23,383500	0,5	-2,104800
23,391833	0,5	-2,100350
23,400167	0,5	-2,103750
23,408500	0,5	-2,089800
23,416833	0,5	-2,069600
23,425167	0,5	-2,048950
23,433500	0,5	-2,036900
23,441833	0,5	-2,015550
23,450167	0,5	-1,998650
23,458500	0,5	-1,972950
23,466833	0,5	-1,956350
23,475167	0,5	-1,926250
23,483500	0,5	-1,902700
23,491833	0,5	-1,875550
23,500167	0,5	-1,855150
23,508500	0,5	-1,845350
23,516833	0,5	-1,867700
23,525167	0,5	-1,823900
23,533500	0,5	-1,751850
23,541833	0,5	-1,736800
23,550167	0,5	-1,727500
23,558500	0,5	-1,710050
23,566833	0,5	-1,691950
23,575167	0,5	-1,673750
23,583500	0,5	-1,660450
23,591833	0,5	-1,640650
23,600167	0,5	-1,624150
23,608500	0,5	-1,605450
23,616833	0,5	-1,586950
23,625167	0,5	-1,567350
23,633500	0,5	-1,549700
23,641833	0,5	-1,533600
23,650167	0,5	-1,517400
23,658500	0,5	-1,594000
23,666833	0,5	-1,562750
23,675167	0,5	-1,535050
23,683500	0,5	-1,470300
23,691833	0,5	-1,446000
23,700167	0,5	-1,431450
23,708500	0,5	-1,415900
23,716833	0,5	-1,406100
23,725167	0,5	-1,385350
23,733500	0,5	-1,365300
23,741833	0,5	-1,348500
23,750167	0,5	-1,326000
23,758500	0,5	-1,303950
23,766833	0,5	-1,284600
23,775167	0,5	-1,270450
23,783500	0,5	-1,251000
23,791833	0,5	-1,234450
23,800167	0,5	-1,237000
23,808500	0,5	-1,332600
23,816833	0,5	-1,274450
23,825167	0,5	-1,245250
23,833500	0,5	-1,186700
23,841833	0,5	-1,170100
23,850167	0,5	-1,155850
23,858500	0,5	-1,151100
23,866833	0,5	-1,150750
23,875167	0,5	-1,128400
23,883500	0,5	-1,112500
23,891833	0,5	-1,094700
23,900167	0,5	-1,076950
23,908500	0,5	-1,058750
23,916833	0,5	-1,042700
23,925167	0,5	-1,022800
23,933500	0,5	-1,008400
23,941833	0,5	-0,989400
23,950167	0,5	-1,058000
23,958500	0,5	-1,064500
23,966833	0,5	-1,039500
23,975167	0,5	-0,980100
23,983500	0,5	-0,934350
23,991833	0,5	-0,909150
24,000167	0,5	-0,901350
24,008500	0,5	-0,895750
24,016833	0,5	-0,893700
24,025167	0,5	-0,868250
24,033500	0,5	-0,856050
24,041833	0,5	-0,839450
24,050167	0,5	-0,827200
24,058500	0,5	-0,811100
24,066833	0,5	-0,798500
24,075167	0,5	-0,784000
24,083500	0,5	-0,767300
24,091833	0,5	-0,760050
24,100167	0,5	-0,845900
24,108500	0,5	-0,822300
24,116833	0,5	-0,789850
24,125167	0,5	-0,741400
24,133500	0,5	-0,707450
24,141833	0,5	-0,692650
24,150167	0,5	-0,680650
24,158500	0,5	-0,684900
24,166833	0,5	-0,679000
24,175167	0,5	-0,662650
24,183500	0,5	-0,631450
24,191833	0,5	-0,620700
24,200167	0,5	-0,597750
24,208500	0,5	-0,585400
24,216833	0,5	-0,565700
24,225167	0,5	-0,552750
24,233500	0,5	-0,541600
24,241833	0,5	-0,543900
24,250167	0,5	-0,612650
24,258500	0,5	-0,579750
24,266833	0,5	-0,554050
24,275167	0,5	-0,514800
24,283500	0,5	-0,498650
24,291833	0,5	-0,487500
24,300167	0,5	-0,486250
24,308500	0,5	-0,485300
24,316833	0,5	-0,476600
24,325167	0,5	-0,455950
24,333500	0,5	-0,446850
24,341833	0,5	-0,430550
24,350167	0,5	-0,420000
24,358500	0,5	-0,403250
24,366833	0,5	-0,395950
24,375167	0,5	-0,377700
24,383500	0,5	-0,362050
24,391833	0,5	-0,391900
24,400167	0,5	-0,401650
24,408500	0,5	-0,387450
24,416833	0,5	-0,354350
24,425167	0,5	-0,326550
24,433500	0,5	-0,311200
24,441833	0,5	-0,307050
24,450167	0,5	-0,309150
24,458500	0,5	-0,314750
24,466833	0,5	-0,296500
24,475167	0,5	-0,295550
24,483500	0,5	-0,280500
24,491833	0,5	-0,277350
24,500167	0,5	-0,265750
24,508500	0,5	-0,256750
24,516833	0,5	-0,246150
24,525167	0,5	-0,238650
24,533500	0,5	-0,233850
24,541833	0,5	-0,267000
24,550167	0,5	-0,255950
24,558500	0,5	-0,253500
24,566833	0,5	-0,220850
24,575167	0,5	-0,205700
24,583500	0,5	-0,193850
24,591833	0,5	-0,189900
24,600167	0,5	-0,194600
24,608500	0,5	-0,181300
24,616833	0,5	-0,176750
24,625167	0,5	-0,163100
24,633500	0,5	-0,159100
24,641833	0,5	-0,151350
24,650167	0,5	-0,146650
24,658500	0,5	-0,143200
24,666833	0,5	-0,132350
24,675167	0,5	-0,123650
24,683500	0,5	-0,130400
24,691833	0,5	-0,151850
24,700167	0,5	-0,141800
24,708500	0,5	-0,133550
24,716833	0,5	-0,113450
24,725167	0,5	-0,105850
24,733500	0,5	-0,105600
24,741833	0,5	-0,103850
24,750167	0,5	-0,112450
24,758500	0,5	-0,103550
24,766833	0,5	-0,095800
24,775167	0,5	-0,090500
24,783500	0,5	-0,082600
24,791833	0,5	-0,078900
24,800167	0,5	-0,071550
24,808500	0,5	-0,065800
24,816833	0,5	-0,057650
24,825167	0,5	-0,056650
24,833500	0,5	-0,062600
24,841833	0,5	-0,068350
24,850167	0,5	-0,063950
24,858500	0,5	-0,055250
24,866833	0,5	-0,044550
24,875167	0,5	-0,042300
24,883500	0,5	-0,038150
24,891833	0,5	-0,044700
24,900167	0,5	-0,047600
24,908500	0,5	-0,040750
24,916833	0,5	-0,037450
24,925167	0,5	-0,036800
24,933500	0,5	-0,031750
24,941833	0,5	-0,028600
24,950167	0,5	-0,028850
24,958500	0,5	-0,023150
24,966833	0,5	-0,017550
24,975167	0,5	-0,012300
24,983500	0,5	-0,023400
24,991833	0,5	-0,016550
25,000167	0,5	-0,013800
25,008500	0,5	-0,006450
25,016833	0,5	0,000500
25,025167	0,5	0,006050
25,033500	0,5	0,006100
25,041833	0,5	0,000200
25,050167	0,5	-0,001100
25,058500	0,5	0,001100
25,066833	0,5	0,003400
25,075167	0,5	0,005350
25,083500	0,5	0,005550
25,091833	0,5	0,007400
25,100167	0,5	0,007000
25,108500	0,5	0,008050
25,116833	0,5	0,012550
25,125167	0,5	0,008400
25,133500	0,5	0,004500
25,141833	0,5	0,006400
25,150167	0,5	0,010800
25,158500	0,5	0,013050
25,166833	0,5	0,017000
25,175167	0,5	0,019000
25,183500	0,5	0,019600
25,191833	0,5	0,016250
25,200167	0,5	0,020100
25,208500	0,5	0,018650
25,216833	0,5	0,021950
25,225167	0,5	0,021100
25,233500	0,5	0,023300
25,241833	0,5	0,018800
25,250167	0,5	0,024350
25,258500	0,5	0,020850
25,266833	0,5	0,022600
25,275167	0,5	0,021100
25,283500	0,5	0,018200
25,291833	0,5	0,020200
25,300167	0,5	0,020350
25,308500	0,5	0,021400
25,316833	0,5	0,020900
25,325167	0,5	0,019050
25,333500	0,5	0,018100
25,341833	0,5	0,018500
25,350167	0,5	0,019950
25,358500	0,5	0,021800
25,366833	0,5	0,020600
25,375167	0,5	0,021550
25,383500	0,5	0,021050
25,391833	0,5	0,024000
25,400167	0,5	0,023700
25,408500	0,5	0,024400
25,416833	0,5	0,022450
25,425167	0,5	0,022600
25,433500	0,5	0,025850
25,441833	0,5	0,025150
25,450167	0,5	0,021550
25,458500	0,5	0,020950
25,466833	0,5	0,019400
25,475167	0,5	0,016000
25,483500	0,5	0,017300
25,491833	0,5	0,017950
25,500167	0,5	0,016250
25,508500	0,5	0,018200
25,516833	0,5	0,014350
25,525167	0,5	0,017150
25,533500	0,5	0,018200
25,541833	0,5	0,019200
25,550167	0,5	0,018600
25,558500	0,5	0,016700
25,566833	0,5	0,019950
25,575167	0,5	0,020250
25,583500	0,5	0,018600
25,591833	0,5	0,021350
25,600167	0,5	0,016800
25,608500	0,5	0,013800
25,616833	0,5	0,017200
25,625167	0,5	0,014750
25,633500	0,5	0,017200
25,641833	0,5	0,011950
25,650167	0,5	0,011600
25,658500	0,5	0,007500
25,666833	0,5	0,008100
25,675167	0,5	0,006300
25,683500	0,5	0,005800
25,691833	0,5	0,003850
25,700167	0,5	0,007700
25,708500	0,5	0,007900
25,716833	0,5	0,008300
25,725167	0,5	0,007950
25,733500	0,5	0,010250
25,741833	0,5	0,007600
25,750167	0,5	0,004650
25,758500	0,5	0,003700
25,766833	0,5	0,002500
25,775167	0,5	0,003350
25,783500	0,5	0,009950
25,791833	0,5	0,003500
25,800167	0,5	0,005200
25,808500	0,5	0,001700
25,816833	0,5	0,003150
25,825167	0,5	0,004000
25,833500	0,5	0,000350
25,841833	0,5	-0,000650
25,850167	0,5	-0,003500
25,858500	0,5	-0,001400
25,866833	0,5	0,000700
25,875167	0,5	0,001050
25,883500	0,5	0,003350
25,891833	0,5	0,004550
25,900167	0,5	0,000000
25,908500	0,5	-0,001200
25,916833	0,5	0,000450
25,925167	0,5	0,011300
25,933500	0,5	0,014550
25,941833	0,5	0,012050
25,950167	0,5	0,007750
25,958500	0,5	0,009150
25,966833	0,5	0,005300
25,975167	0,5	0,008150
25,983500	0,5	0,005950
25,991833	0,5	0,005400
26,000167	0,5	0,003500
