File Path	chrom://chromeleon01/ikbm_chromeleon/2022/ICS-5000/ED1/Esteban/20220612_Cell_7_4_eg.seq/994.smp/ED_1.channel/ED_1.chm
Channel	ED_1

Injection Information:
Data Vault	ikbm_chromeleon
Injection	CelS2_24h-EGS_NA
Injection Number	35
Position	RD5
Comment	
Processing Method	Stop sequence after Cell Death
Instrument Method	ICS5000_PA200_FullNative_Ox_26min_ED1
Type	Unknown
Status	Finished
Injection Date	13.06.2022
Injection Time	08:15:05
Injection Volume (µl)	5,0
Dilution Factor	1,0000
Weight	1,0000

Chromatogram Data Information:
Time Min. (min)	0,000333
Time Max. (min)	26,000333
Data Points	3121
Detector	EDet1
Generating Data System	Chromeleon 7.2.9.11323
Exporting Data System	Chromeleon 7.2.9.0
Operator	Instrument Controller
Signal Quantity	
Signal Unit	nC
Signal Min.	-1,878050
Signal Max.	49,860351
Channel	ED_1
Driver Name	DC-5000
Channel Type	Evaluation
Min. Step (s)	0,5
Max. Step (s)	0,5
Average Step (s)	0,5

Signal Parameter Information:
Signal Info	

Chromatogram Data:
Time (min)	Step (s)	Value (nC)
0,000333	n.a.	-0,039000
0,008667	0,5	-0,051150
0,017000	0,5	-0,041250
0,025333	0,5	-0,032850
0,033667	0,5	-0,031550
0,042000	0,5	-0,022400
0,050333	0,5	-0,022450
0,058667	0,5	-0,009350
0,067000	0,5	-0,028500
0,075333	0,5	-0,000500
0,083667	0,5	-0,019450
0,092000	0,5	-0,026250
0,100333	0,5	-0,024650
0,108667	0,5	-0,015100
0,117000	0,5	0,005900
0,125333	0,5	0,008000
0,133667	0,5	0,006150
0,142000	0,5	0,004150
0,150333	0,5	0,008100
0,158667	0,5	0,008300
0,167000	0,5	0,005300
0,175333	0,5	0,001500
0,183667	0,5	0,005050
0,192000	0,5	-0,004650
0,200333	0,5	-0,000900
0,208667	0,5	-0,015150
0,217000	0,5	-0,012150
0,225333	0,5	-0,006550
0,233667	0,5	-0,014300
0,242000	0,5	-0,020700
0,250333	0,5	-0,012000
0,258667	0,5	-0,000550
0,267000	0,5	0,014550
0,275333	0,5	0,013800
0,283667	0,5	0,012850
0,292000	0,5	0,013400
0,300333	0,5	0,023550
0,308667	0,5	0,017750
0,317000	0,5	0,006150
0,325333	0,5	-0,000950
0,333667	0,5	-0,009350
0,342000	0,5	-0,007800
0,350333	0,5	-0,012450
0,358667	0,5	-0,013500
0,367000	0,5	-0,009150
0,375333	0,5	-0,007050
0,383667	0,5	-0,018300
0,392000	0,5	-0,017950
0,400333	0,5	-0,018200
0,408667	0,5	-0,000350
0,417000	0,5	0,005700
0,425333	0,5	0,013050
0,433667	0,5	0,005300
0,442000	0,5	0,013800
0,450333	0,5	0,006400
0,458667	0,5	0,004800
0,467000	0,5	-0,003650
0,475333	0,5	-0,003650
0,483667	0,5	-0,005500
0,492000	0,5	-0,004700
0,500333	0,5	-0,004000
0,508667	0,5	-0,011650
0,517000	0,5	0,004850
0,525333	0,5	-0,003550
0,533667	0,5	-0,013650
0,542000	0,5	-0,008400
0,550333	0,5	-0,002200
0,558667	0,5	0,014400
0,567000	0,5	0,015800
0,575333	0,5	0,008600
0,583667	0,5	0,015850
0,592000	0,5	0,009550
0,600333	0,5	0,013850
0,608667	0,5	0,008900
0,617000	0,5	0,011750
0,625333	0,5	0,007250
0,633667	0,5	0,012550
0,642000	0,5	0,016150
0,650333	0,5	0,001000
0,658667	0,5	-0,000050
0,667000	0,5	0,024050
0,675333	0,5	0,001100
0,683667	0,5	-0,000200
0,692000	0,5	0,004150
0,700333	0,5	0,004900
0,708667	0,5	0,031200
0,717000	0,5	0,024200
0,725333	0,5	0,030250
0,733667	0,5	0,030150
0,742000	0,5	0,032800
0,750333	0,5	0,027600
0,758667	0,5	0,028100
0,767000	0,5	0,023300
0,775333	0,5	0,023650
0,783667	0,5	0,023550
0,792000	0,5	0,030300
0,800333	0,5	0,019350
0,808667	0,5	0,026100
0,817000	0,5	0,036050
0,825333	0,5	0,025650
0,833667	0,5	0,022500
0,842000	0,5	0,028550
0,850333	0,5	0,035400
0,858667	0,5	0,051800
0,867000	0,5	0,044850
0,875333	0,5	0,041400
0,883667	0,5	0,046800
0,892000	0,5	0,041200
0,900333	0,5	0,046100
0,908667	0,5	0,044100
0,917000	0,5	0,049700
0,925333	0,5	0,049500
0,933667	0,5	0,050600
0,942000	0,5	0,055600
0,950333	0,5	0,055150
0,958667	0,5	0,057000
0,967000	0,5	0,061500
0,975333	0,5	0,044100
0,983667	0,5	0,046400
0,992000	0,5	0,052000
1,000333	0,5	0,066950
1,008667	0,5	0,076900
1,017000	0,5	0,070650
1,025333	0,5	0,074750
1,033667	0,5	0,074800
1,042000	0,5	0,071450
1,050333	0,5	0,071400
1,058667	0,5	0,073050
1,067000	0,5	0,068800
1,075333	0,5	0,074550
1,083667	0,5	0,068900
1,092000	0,5	0,072700
1,100333	0,5	0,060550
1,108667	0,5	0,082200
1,117000	0,5	0,074750
1,125333	0,5	0,069750
1,133667	0,5	0,064500
1,142000	0,5	0,074500
1,150333	0,5	0,087350
1,158667	0,5	0,095750
1,167000	0,5	0,089750
1,175333	0,5	0,091100
1,183667	0,5	0,090950
1,192000	0,5	0,091400
1,200333	0,5	0,088150
1,208667	0,5	0,089500
1,217000	0,5	0,085750
1,225333	0,5	0,084250
1,233667	0,5	0,086450
1,242000	0,5	0,074700
1,250333	0,5	0,078750
1,258667	0,5	0,083000
1,267000	0,5	0,068200
1,275333	0,5	0,066700
1,283667	0,5	0,064300
1,292000	0,5	0,073900
1,300333	0,5	0,091300
1,308667	0,5	0,087300
1,317000	0,5	0,088600
1,325333	0,5	0,078000
1,333667	0,5	0,085000
1,342000	0,5	0,072050
1,350333	0,5	0,076100
1,358667	0,5	0,067550
1,367000	0,5	0,060800
1,375333	0,5	0,059600
1,383667	0,5	0,052250
1,392000	0,5	0,048250
1,400333	0,5	0,058200
1,408667	0,5	0,053400
1,417000	0,5	0,036600
1,425333	0,5	0,031500
1,433667	0,5	0,032500
1,442000	0,5	0,044500
1,450333	0,5	0,046900
1,458667	0,5	0,050600
1,467000	0,5	0,041650
1,475333	0,5	0,045100
1,483667	0,5	0,035800
1,492000	0,5	0,038650
1,500333	0,5	0,027150
1,508667	0,5	0,021750
1,517000	0,5	0,013300
1,525333	0,5	0,011650
1,533667	0,5	0,008900
1,542000	0,5	0,002700
1,550333	0,5	-0,002550
1,558667	0,5	-0,062650
1,567000	0,5	-0,257900
1,575333	0,5	-0,687350
1,583667	0,5	-1,164200
1,592000	0,5	-1,061050
1,600333	0,5	0,548950
1,608667	0,5	5,238200
1,617000	0,5	15,242700
1,625333	0,5	30,152700
1,633667	0,5	44,081701
1,642000	0,5	49,860351
1,650333	0,5	46,026901
1,658667	0,5	36,976751
1,667000	0,5	27,662400
1,675333	0,5	20,352600
1,683667	0,5	15,260000
1,692000	0,5	11,870900
1,700333	0,5	9,670850
1,708667	0,5	8,151450
1,717000	0,5	7,094050
1,725333	0,5	6,318750
1,733667	0,5	5,727500
1,742000	0,5	5,282850
1,750333	0,5	4,939550
1,758667	0,5	4,744450
1,767000	0,5	4,689650
1,775333	0,5	4,699100
1,783667	0,5	4,695800
1,792000	0,5	4,639850
1,800333	0,5	4,523200
1,808667	0,5	4,372350
1,817000	0,5	4,186100
1,825333	0,5	3,996350
1,833667	0,5	3,784250
1,842000	0,5	3,598000
1,850333	0,5	3,417900
1,858667	0,5	3,234750
1,867000	0,5	3,071350
1,875333	0,5	2,945100
1,883667	0,5	2,842850
1,892000	0,5	2,768500
1,900333	0,5	2,698650
1,908667	0,5	2,685500
1,917000	0,5	2,757250
1,925333	0,5	2,953950
1,933667	0,5	3,265900
1,942000	0,5	3,563550
1,950333	0,5	3,598350
1,958667	0,5	3,285650
1,967000	0,5	2,825700
1,975333	0,5	2,424800
1,983667	0,5	2,185050
1,992000	0,5	2,090000
2,000333	0,5	2,086150
2,008667	0,5	2,105350
2,017000	0,5	2,150000
2,025333	0,5	2,196700
2,033667	0,5	2,244550
2,042000	0,5	2,283600
2,050333	0,5	2,310850
2,058667	0,5	2,328950
2,067000	0,5	2,346650
2,075333	0,5	2,357600
2,083667	0,5	2,383350
2,092000	0,5	2,412700
2,100333	0,5	2,447100
2,108667	0,5	2,490100
2,117000	0,5	2,536500
2,125333	0,5	2,591150
2,133667	0,5	2,636400
2,142000	0,5	2,693500
2,150333	0,5	2,733950
2,158667	0,5	2,781650
2,167000	0,5	2,838000
2,175333	0,5	2,915100
2,183667	0,5	3,009550
2,192000	0,5	3,109400
2,200333	0,5	3,205050
2,208667	0,5	3,338500
2,217000	0,5	3,493600
2,225333	0,5	3,693200
2,233667	0,5	3,898300
2,242000	0,5	4,063000
2,250333	0,5	4,124300
2,258667	0,5	4,109800
2,267000	0,5	4,066900
2,275333	0,5	4,050200
2,283667	0,5	4,096000
2,292000	0,5	4,168450
2,300333	0,5	4,242200
2,308667	0,5	4,330850
2,317000	0,5	4,429350
2,325333	0,5	4,535350
2,333667	0,5	4,653000
2,342000	0,5	4,748550
2,350333	0,5	4,862000
2,358667	0,5	4,963150
2,367000	0,5	5,091200
2,375333	0,5	5,231900
2,383667	0,5	5,417750
2,392000	0,5	5,640300
2,400333	0,5	5,909350
2,408667	0,5	6,201850
2,417000	0,5	6,499850
2,425333	0,5	6,805200
2,433667	0,5	7,204450
2,442000	0,5	7,788900
2,450333	0,5	8,682750
2,458667	0,5	9,853000
2,467000	0,5	10,949300
2,475333	0,5	11,485000
2,483667	0,5	11,208850
2,492000	0,5	10,338550
2,500333	0,5	9,279300
2,508667	0,5	8,370650
2,517000	0,5	7,712700
2,525333	0,5	7,287550
2,533667	0,5	7,006900
2,542000	0,5	6,833850
2,550333	0,5	6,716600
2,558667	0,5	6,640600
2,567000	0,5	6,582500
2,575333	0,5	6,540050
2,583667	0,5	6,507550
2,592000	0,5	6,445800
2,600333	0,5	6,371200
2,608667	0,5	6,305400
2,617000	0,5	6,247650
2,625333	0,5	6,209850
2,633667	0,5	6,175800
2,642000	0,5	6,152100
2,650333	0,5	6,160450
2,658667	0,5	6,219100
2,667000	0,5	6,329100
2,675333	0,5	6,457550
2,683667	0,5	6,556450
2,692000	0,5	6,549450
2,700333	0,5	6,434500
2,708667	0,5	6,225200
2,717000	0,5	6,002350
2,725333	0,5	5,783150
2,733667	0,5	5,638550
2,742000	0,5	5,492850
2,750333	0,5	5,392550
2,758667	0,5	5,309950
2,767000	0,5	5,237350
2,775333	0,5	5,178600
2,783667	0,5	5,097400
2,792000	0,5	5,016350
2,800333	0,5	4,942900
2,808667	0,5	4,861950
2,817000	0,5	4,776100
2,825333	0,5	4,685950
2,833667	0,5	4,589450
2,842000	0,5	4,490450
2,850333	0,5	4,392350
2,858667	0,5	4,300400
2,867000	0,5	4,199750
2,875333	0,5	4,108350
2,883667	0,5	4,032800
2,892000	0,5	3,935400
2,900333	0,5	3,850100
2,908667	0,5	3,772750
2,917000	0,5	3,701500
2,925333	0,5	3,644550
2,933667	0,5	3,560300
2,942000	0,5	3,486650
2,950333	0,5	3,409400
2,958667	0,5	3,331750
2,967000	0,5	3,247300
2,975333	0,5	3,167900
2,983667	0,5	3,089700
2,992000	0,5	3,003050
3,000333	0,5	2,928600
3,008667	0,5	2,849950
3,017000	0,5	2,777850
3,025333	0,5	2,713050
3,033667	0,5	2,642250
3,042000	0,5	2,570700
3,050333	0,5	2,511250
3,058667	0,5	2,453100
3,067000	0,5	2,400650
3,075333	0,5	2,346450
3,083667	0,5	2,287100
3,092000	0,5	2,219750
3,100333	0,5	2,161800
3,108667	0,5	2,101450
3,117000	0,5	2,047850
3,125333	0,5	1,985300
3,133667	0,5	1,932450
3,142000	0,5	1,875450
3,150333	0,5	1,821300
3,158667	0,5	1,770450
3,167000	0,5	1,720450
3,175333	0,5	1,675400
3,183667	0,5	1,619600
3,192000	0,5	1,561650
3,200333	0,5	1,515250
3,208667	0,5	1,477600
3,217000	0,5	1,441750
3,225333	0,5	1,410900
3,233667	0,5	1,362950
3,242000	0,5	1,328000
3,250333	0,5	1,290750
3,258667	0,5	1,258500
3,267000	0,5	1,222600
3,275333	0,5	1,189850
3,283667	0,5	1,154150
3,292000	0,5	1,122150
3,300333	0,5	1,086300
3,308667	0,5	1,045450
3,317000	0,5	1,011750
3,325333	0,5	0,988650
3,333667	0,5	0,944200
3,342000	0,5	0,911950
3,350333	0,5	0,879650
3,358667	0,5	0,869450
3,367000	0,5	0,852850
3,375333	0,5	0,830550
3,383667	0,5	0,813050
3,392000	0,5	0,796850
3,400333	0,5	0,790700
3,408667	0,5	0,779000
3,417000	0,5	0,772150
3,425333	0,5	0,763500
3,433667	0,5	0,763050
3,442000	0,5	0,765450
3,450333	0,5	0,775700
3,458667	0,5	0,789950
3,467000	0,5	0,838050
3,475333	0,5	0,884150
3,483667	0,5	0,938600
3,492000	0,5	0,996900
3,500333	0,5	1,056800
3,508667	0,5	1,097250
3,517000	0,5	1,099900
3,525333	0,5	1,068600
3,533667	0,5	1,013150
3,542000	0,5	0,939950
3,550333	0,5	0,870550
3,558667	0,5	0,802000
3,567000	0,5	0,740150
3,575333	0,5	0,687250
3,583667	0,5	0,636800
3,592000	0,5	0,597100
3,600333	0,5	0,548050
3,608667	0,5	0,499900
3,617000	0,5	0,470700
3,625333	0,5	0,431500
3,633667	0,5	0,397100
3,642000	0,5	0,377700
3,650333	0,5	0,360150
3,658667	0,5	0,368800
3,667000	0,5	0,360350
3,675333	0,5	0,353350
3,683667	0,5	0,347450
3,692000	0,5	0,354150
3,700333	0,5	0,347000
3,708667	0,5	0,342900
3,717000	0,5	0,339550
3,725333	0,5	0,334300
3,733667	0,5	0,336000
3,742000	0,5	0,330050
3,750333	0,5	0,321800
3,758667	0,5	0,310900
3,767000	0,5	0,318350
3,775333	0,5	0,300300
3,783667	0,5	0,295400
3,792000	0,5	0,289450
3,800333	0,5	0,280300
3,808667	0,5	0,281350
3,817000	0,5	0,265200
3,825333	0,5	0,248450
3,833667	0,5	0,240550
3,842000	0,5	0,225250
3,850333	0,5	0,213500
3,858667	0,5	0,200600
3,867000	0,5	0,185100
3,875333	0,5	0,171900
3,883667	0,5	0,167800
3,892000	0,5	0,162750
3,900333	0,5	0,145250
3,908667	0,5	0,143900
3,917000	0,5	0,146550
3,925333	0,5	0,132750
3,933667	0,5	0,126900
3,942000	0,5	0,131150
3,950333	0,5	0,133450
3,958667	0,5	0,151450
3,967000	0,5	0,140250
3,975333	0,5	0,146300
3,983667	0,5	0,146100
3,992000	0,5	0,144400
4,000333	0,5	0,134600
4,008667	0,5	0,133150
4,017000	0,5	0,122450
4,025333	0,5	0,120050
4,033667	0,5	0,118450
4,042000	0,5	0,105550
4,050333	0,5	0,096500
4,058667	0,5	0,099200
4,067000	0,5	0,092150
4,075333	0,5	0,087500
4,083667	0,5	0,088750
4,092000	0,5	0,095100
4,100333	0,5	0,102750
4,108667	0,5	0,111150
4,117000	0,5	0,117200
4,125333	0,5	0,119350
4,133667	0,5	0,131600
4,142000	0,5	0,140950
4,150333	0,5	0,158600
4,158667	0,5	0,174800
4,167000	0,5	0,198750
4,175333	0,5	0,231200
4,183667	0,5	0,268800
4,192000	0,5	0,300950
4,200333	0,5	0,351400
4,208667	0,5	0,414150
4,217000	0,5	0,485650
4,225333	0,5	0,567750
4,233667	0,5	0,690400
4,242000	0,5	0,859850
4,250333	0,5	1,103100
4,258667	0,5	1,449250
4,267000	0,5	1,911350
4,275333	0,5	2,525200
4,283667	0,5	3,278800
4,292000	0,5	4,134400
4,300333	0,5	5,006000
4,308667	0,5	5,794100
4,317000	0,5	6,381250
4,325333	0,5	6,691050
4,333667	0,5	6,681150
4,342000	0,5	6,367700
4,350333	0,5	5,823450
4,358667	0,5	5,131550
4,367000	0,5	4,365950
4,375333	0,5	3,632750
4,383667	0,5	2,964250
4,392000	0,5	2,407300
4,400333	0,5	1,945800
4,408667	0,5	1,572900
4,417000	0,5	1,281950
4,425333	0,5	1,053800
4,433667	0,5	0,877400
4,442000	0,5	0,744350
4,450333	0,5	0,640200
4,458667	0,5	0,564650
4,467000	0,5	0,506400
4,475333	0,5	0,459150
4,483667	0,5	0,429650
4,492000	0,5	0,404900
4,500333	0,5	0,409650
4,508667	0,5	0,412300
4,517000	0,5	0,413900
4,525333	0,5	0,420050
4,533667	0,5	0,430300
4,542000	0,5	0,441600
4,550333	0,5	0,437700
4,558667	0,5	0,421400
4,567000	0,5	0,403000
4,575333	0,5	0,373400
4,583667	0,5	0,343400
4,592000	0,5	0,305950
4,600333	0,5	0,274950
4,608667	0,5	0,244050
4,617000	0,5	0,216900
4,625333	0,5	0,201300
4,633667	0,5	0,174900
4,642000	0,5	0,158150
4,650333	0,5	0,157000
4,658667	0,5	0,137700
4,667000	0,5	0,122850
4,675333	0,5	0,114400
4,683667	0,5	0,105450
4,692000	0,5	0,113500
4,700333	0,5	0,102950
4,708667	0,5	0,099100
4,717000	0,5	0,091150
4,725333	0,5	0,089450
4,733667	0,5	0,081900
4,742000	0,5	0,084800
4,750333	0,5	0,075950
4,758667	0,5	0,076150
4,767000	0,5	0,073750
4,775333	0,5	0,072600
4,783667	0,5	0,069600
4,792000	0,5	0,065400
4,800333	0,5	0,071600
4,808667	0,5	0,058800
4,817000	0,5	0,056900
4,825333	0,5	0,053800
4,833667	0,5	0,055450
4,842000	0,5	0,067650
4,850333	0,5	0,068450
4,858667	0,5	0,068050
4,867000	0,5	0,076100
4,875333	0,5	0,079100
4,883667	0,5	0,092700
4,892000	0,5	0,099600
4,900333	0,5	0,111650
4,908667	0,5	0,120600
4,917000	0,5	0,131950
4,925333	0,5	0,142900
4,933667	0,5	0,143700
4,942000	0,5	0,145750
4,950333	0,5	0,150600
4,958667	0,5	0,130700
4,967000	0,5	0,120750
4,975333	0,5	0,108250
4,983667	0,5	0,101900
4,992000	0,5	0,102050
5,000333	0,5	0,087650
5,008667	0,5	0,078700
5,017000	0,5	0,072200
5,025333	0,5	0,068300
5,033667	0,5	0,062950
5,042000	0,5	0,060600
5,050333	0,5	0,055300
5,058667	0,5	0,057000
5,067000	0,5	0,057200
5,075333	0,5	0,055450
5,083667	0,5	0,048850
5,092000	0,5	0,052050
5,100333	0,5	0,047450
5,108667	0,5	0,041650
5,117000	0,5	0,038000
5,125333	0,5	0,041350
5,133667	0,5	0,048450
5,142000	0,5	0,055400
5,150333	0,5	0,050950
5,158667	0,5	0,051850
5,167000	0,5	0,048550
5,175333	0,5	0,046450
5,183667	0,5	0,048600
5,192000	0,5	0,039000
5,200333	0,5	0,041300
5,208667	0,5	0,038300
5,217000	0,5	0,036400
5,225333	0,5	0,031150
5,233667	0,5	0,032750
5,242000	0,5	0,038400
5,250333	0,5	0,032100
5,258667	0,5	0,024700
5,267000	0,5	0,023550
5,275333	0,5	0,029950
5,283667	0,5	0,035250
5,292000	0,5	0,038200
5,300333	0,5	0,038200
5,308667	0,5	0,037250
5,317000	0,5	0,035950
5,325333	0,5	0,032150
5,333667	0,5	0,029450
5,342000	0,5	0,029200
5,350333	0,5	0,026000
5,358667	0,5	0,029800
5,367000	0,5	0,024250
5,375333	0,5	0,025750
5,383667	0,5	0,026000
5,392000	0,5	0,029600
5,400333	0,5	0,018200
5,408667	0,5	0,017000
5,417000	0,5	0,013050
5,425333	0,5	0,019150
5,433667	0,5	0,024250
5,442000	0,5	0,030400
5,450333	0,5	0,024850
5,458667	0,5	0,027750
5,467000	0,5	0,026400
5,475333	0,5	0,024400
5,483667	0,5	0,025900
5,492000	0,5	0,025900
5,500333	0,5	0,024750
5,508667	0,5	0,026100
5,517000	0,5	0,022400
5,525333	0,5	0,018250
5,533667	0,5	0,019300
5,542000	0,5	0,017900
5,550333	0,5	0,011100
5,558667	0,5	0,004750
5,567000	0,5	0,008950
5,575333	0,5	0,015250
5,583667	0,5	0,019600
5,592000	0,5	0,019000
5,600333	0,5	0,026450
5,608667	0,5	0,029100
5,617000	0,5	0,039400
5,625333	0,5	0,044550
5,633667	0,5	0,053300
5,642000	0,5	0,061300
5,650333	0,5	0,064650
5,658667	0,5	0,070550
5,667000	0,5	0,076500
5,675333	0,5	0,072850
5,683667	0,5	0,088900
5,692000	0,5	0,086000
5,700333	0,5	0,079350
5,708667	0,5	0,074000
5,717000	0,5	0,071500
5,725333	0,5	0,074900
5,733667	0,5	0,061000
5,742000	0,5	0,050800
5,750333	0,5	0,035450
5,758667	0,5	0,024200
5,767000	0,5	0,004200
5,775333	0,5	-0,008000
5,783667	0,5	-0,025250
5,792000	0,5	-0,033650
5,800333	0,5	-0,045000
5,808667	0,5	-0,053450
5,817000	0,5	-0,063500
5,825333	0,5	-0,072700
5,833667	0,5	-0,067750
5,842000	0,5	-0,079700
5,850333	0,5	-0,088300
5,858667	0,5	-0,089050
5,867000	0,5	-0,093200
5,875333	0,5	-0,084850
5,883667	0,5	-0,087700
5,892000	0,5	-0,092050
5,900333	0,5	-0,087000
5,908667	0,5	-0,089600
5,917000	0,5	-0,087300
5,925333	0,5	-0,083050
5,933667	0,5	-0,080150
5,942000	0,5	-0,080350
5,950333	0,5	-0,076150
5,958667	0,5	-0,068900
5,967000	0,5	-0,065600
5,975333	0,5	-0,058600
5,983667	0,5	-0,051500
5,992000	0,5	-0,057900
6,000333	0,5	-0,061400
6,008667	0,5	-0,060600
6,017000	0,5	-0,059500
6,025333	0,5	-0,058300
6,033667	0,5	-0,064300
6,042000	0,5	-0,068800
6,050333	0,5	-0,074750
6,058667	0,5	-0,082100
6,067000	0,5	-0,086250
6,075333	0,5	-0,092300
6,083667	0,5	-0,101700
6,092000	0,5	-0,104750
6,100333	0,5	-0,106600
6,108667	0,5	-0,106350
6,117000	0,5	-0,113700
6,125333	0,5	-0,109450
6,133667	0,5	-0,115200
6,142000	0,5	-0,118950
6,150333	0,5	-0,119500
6,158667	0,5	-0,117050
6,167000	0,5	-0,111850
6,175333	0,5	-0,108150
6,183667	0,5	-0,108350
6,192000	0,5	-0,102850
6,200333	0,5	-0,105800
6,208667	0,5	-0,103550
6,217000	0,5	-0,104150
6,225333	0,5	-0,104450
6,233667	0,5	-0,101800
6,242000	0,5	-0,103100
6,250333	0,5	-0,106800
6,258667	0,5	-0,107400
6,267000	0,5	-0,103400
6,275333	0,5	-0,098650
6,283667	0,5	-0,094750
6,292000	0,5	-0,094900
6,300333	0,5	-0,087650
6,308667	0,5	-0,073150
6,317000	0,5	-0,057950
6,325333	0,5	-0,045450
6,333667	0,5	-0,033300
6,342000	0,5	-0,026150
6,350333	0,5	-0,018500
6,358667	0,5	-0,022700
6,367000	0,5	-0,022600
6,375333	0,5	-0,029650
6,383667	0,5	-0,039250
6,392000	0,5	-0,044600
6,400333	0,5	-0,051200
6,408667	0,5	-0,061450
6,417000	0,5	-0,062150
6,425333	0,5	-0,059400
6,433667	0,5	-0,062450
6,442000	0,5	-0,069050
6,450333	0,5	-0,062100
6,458667	0,5	-0,056550
6,467000	0,5	-0,043900
6,475333	0,5	-0,038650
6,483667	0,5	-0,033350
6,492000	0,5	-0,025500
6,500333	0,5	-0,025550
6,508667	0,5	-0,019800
6,517000	0,5	-0,016600
6,525333	0,5	-0,011050
6,533667	0,5	-0,014750
6,542000	0,5	-0,009200
6,550333	0,5	-0,007550
6,558667	0,5	-0,008150
6,567000	0,5	0,002700
6,575333	0,5	0,008200
6,583667	0,5	0,009500
6,592000	0,5	0,014650
6,600333	0,5	0,028950
6,608667	0,5	0,050450
6,617000	0,5	0,077200
6,625333	0,5	0,101200
6,633667	0,5	0,138900
6,642000	0,5	0,184100
6,650333	0,5	0,233350
6,658667	0,5	0,284300
6,667000	0,5	0,329200
6,675333	0,5	0,370400
6,683667	0,5	0,396650
6,692000	0,5	0,405950
6,700333	0,5	0,396100
6,708667	0,5	0,368700
6,717000	0,5	0,343400
6,725333	0,5	0,290450
6,733667	0,5	0,241450
6,742000	0,5	0,196850
6,750333	0,5	0,165050
6,758667	0,5	0,141850
6,767000	0,5	0,122000
6,775333	0,5	0,107100
6,783667	0,5	0,096550
6,792000	0,5	0,094350
6,800333	0,5	0,087250
6,808667	0,5	0,089200
6,817000	0,5	0,087700
6,825333	0,5	0,090000
6,833667	0,5	0,090550
6,842000	0,5	0,087350
6,850333	0,5	0,085050
6,858667	0,5	0,088000
6,867000	0,5	0,091000
6,875333	0,5	0,091150
6,883667	0,5	0,088500
6,892000	0,5	0,093900
6,900333	0,5	0,099000
6,908667	0,5	0,108450
6,917000	0,5	0,111600
6,925333	0,5	0,112500
6,933667	0,5	0,113200
6,942000	0,5	0,115500
6,950333	0,5	0,116700
6,958667	0,5	0,121400
6,967000	0,5	0,122750
6,975333	0,5	0,121150
6,983667	0,5	0,122450
6,992000	0,5	0,125450
7,000333	0,5	0,120750
7,008667	0,5	0,126000
7,017000	0,5	0,123700
7,025333	0,5	0,119350
7,033667	0,5	0,120550
7,042000	0,5	0,120150
7,050333	0,5	0,128950
7,058667	0,5	0,134500
7,067000	0,5	0,139600
7,075333	0,5	0,142550
7,083667	0,5	0,144000
7,092000	0,5	0,146100
7,100333	0,5	0,150450
7,108667	0,5	0,150350
7,117000	0,5	0,151450
7,125333	0,5	0,156750
7,133667	0,5	0,155450
7,142000	0,5	0,158900
7,150333	0,5	0,155750
7,158667	0,5	0,160400
7,167000	0,5	0,161150
7,175333	0,5	0,160000
7,183667	0,5	0,160450
7,192000	0,5	0,164500
7,200333	0,5	0,170150
7,208667	0,5	0,182500
7,217000	0,5	0,183600
7,225333	0,5	0,185600
7,233667	0,5	0,187500
7,242000	0,5	0,190600
7,250333	0,5	0,191700
7,258667	0,5	0,196750
7,267000	0,5	0,194500
7,275333	0,5	0,203950
7,283667	0,5	0,202200
7,292000	0,5	0,199000
7,300333	0,5	0,202450
7,308667	0,5	0,209550
7,317000	0,5	0,208450
7,325333	0,5	0,208200
7,333667	0,5	0,212300
7,342000	0,5	0,217150
7,350333	0,5	0,224500
7,358667	0,5	0,230250
7,367000	0,5	0,235850
7,375333	0,5	0,239900
7,383667	0,5	0,246600
7,392000	0,5	0,248250
7,400333	0,5	0,257350
7,408667	0,5	0,267950
7,417000	0,5	0,276200
7,425333	0,5	0,289050
7,433667	0,5	0,305550
7,442000	0,5	0,316500
7,450333	0,5	0,329750
7,458667	0,5	0,337200
7,467000	0,5	0,333100
7,475333	0,5	0,325800
7,483667	0,5	0,319300
7,492000	0,5	0,314700
7,500333	0,5	0,314500
7,508667	0,5	0,309450
7,517000	0,5	0,307450
7,525333	0,5	0,310600
7,533667	0,5	0,314800
7,542000	0,5	0,320100
7,550333	0,5	0,323100
7,558667	0,5	0,324350
7,567000	0,5	0,324900
7,575333	0,5	0,331300
7,583667	0,5	0,331500
7,592000	0,5	0,333400
7,600333	0,5	0,338800
7,608667	0,5	0,341800
7,617000	0,5	0,343700
7,625333	0,5	0,348300
7,633667	0,5	0,352200
7,642000	0,5	0,364150
7,650333	0,5	0,374650
7,658667	0,5	0,376000
7,667000	0,5	0,384550
7,675333	0,5	0,390400
7,683667	0,5	0,394500
7,692000	0,5	0,395250
7,700333	0,5	0,398400
7,708667	0,5	0,399000
7,717000	0,5	0,401300
7,725333	0,5	0,401400
7,733667	0,5	0,400500
7,742000	0,5	0,399050
7,750333	0,5	0,404000
7,758667	0,5	0,403150
7,767000	0,5	0,406250
7,775333	0,5	0,407450
7,783667	0,5	0,409600
7,792000	0,5	0,415850
7,800333	0,5	0,420100
7,808667	0,5	0,425950
7,817000	0,5	0,429400
7,825333	0,5	0,431200
7,833667	0,5	0,435200
7,842000	0,5	0,438800
7,850333	0,5	0,441500
7,858667	0,5	0,448350
7,867000	0,5	0,451600
7,875333	0,5	0,455100
7,883667	0,5	0,458550
7,892000	0,5	0,461300
7,900333	0,5	0,471500
7,908667	0,5	0,473800
7,917000	0,5	0,479950
7,925333	0,5	0,491300
7,933667	0,5	0,497800
7,942000	0,5	0,505050
7,950333	0,5	0,511400
7,958667	0,5	0,515350
7,967000	0,5	0,518500
7,975333	0,5	0,518100
7,983667	0,5	0,520350
7,992000	0,5	0,528400
8,000333	0,5	0,528500
8,008667	0,5	0,538150
8,017000	0,5	0,547600
8,025333	0,5	0,554000
8,033667	0,5	0,563450
8,042000	0,5	0,573150
8,050333	0,5	0,582350
8,058667	0,5	0,589700
8,067000	0,5	0,594700
8,075333	0,5	0,595350
8,083667	0,5	0,598350
8,092000	0,5	0,603500
8,100333	0,5	0,602050
8,108667	0,5	0,602600
8,117000	0,5	0,600750
8,125333	0,5	0,608650
8,133667	0,5	0,613500
8,142000	0,5	0,625100
8,150333	0,5	0,640950
8,158667	0,5	0,661300
8,167000	0,5	0,675150
8,175333	0,5	0,684800
8,183667	0,5	0,685000
8,192000	0,5	0,679150
8,200333	0,5	0,667900
8,208667	0,5	0,656450
8,217000	0,5	0,646150
8,225333	0,5	0,640000
8,233667	0,5	0,639750
8,242000	0,5	0,640800
8,250333	0,5	0,644350
8,258667	0,5	0,646700
8,267000	0,5	0,645850
8,275333	0,5	0,647050
8,283667	0,5	0,647450
8,292000	0,5	0,647350
8,300333	0,5	0,645450
8,308667	0,5	0,648650
8,317000	0,5	0,650950
8,325333	0,5	0,649000
8,333667	0,5	0,650200
8,342000	0,5	0,653350
8,350333	0,5	0,654200
8,358667	0,5	0,654400
8,367000	0,5	0,655200
8,375333	0,5	0,661950
8,383667	0,5	0,671850
8,392000	0,5	0,683950
8,400333	0,5	0,693500
8,408667	0,5	0,702050
8,417000	0,5	0,711650
8,425333	0,5	0,715000
8,433667	0,5	0,718100
8,442000	0,5	0,725750
8,450333	0,5	0,733600
8,458667	0,5	0,751050
8,467000	0,5	0,771900
8,475333	0,5	0,809450
8,483667	0,5	0,862250
8,492000	0,5	0,928300
8,500333	0,5	0,995550
8,508667	0,5	1,054000
8,517000	0,5	1,091450
8,525333	0,5	1,100350
8,533667	0,5	1,079950
8,542000	0,5	1,036100
8,550333	0,5	0,979950
8,558667	0,5	0,918300
8,567000	0,5	0,866350
8,575333	0,5	0,820950
8,583667	0,5	0,788100
8,592000	0,5	0,765100
8,600333	0,5	0,749050
8,608667	0,5	0,744950
8,617000	0,5	0,738400
8,625333	0,5	0,732900
8,633667	0,5	0,732250
8,642000	0,5	0,735000
8,650333	0,5	0,732200
8,658667	0,5	0,734400
8,667000	0,5	0,737150
8,675333	0,5	0,738750
8,683667	0,5	0,749300
8,692000	0,5	0,757400
8,700333	0,5	0,770850
8,708667	0,5	0,790200
8,717000	0,5	0,812650
8,725333	0,5	0,829800
8,733667	0,5	0,839750
8,742000	0,5	0,840150
8,750333	0,5	0,829100
8,758667	0,5	0,810750
8,767000	0,5	0,792950
8,775333	0,5	0,776050
8,783667	0,5	0,762650
8,792000	0,5	0,757600
8,800333	0,5	0,748750
8,808667	0,5	0,742750
8,817000	0,5	0,741550
8,825333	0,5	0,741650
8,833667	0,5	0,741350
8,842000	0,5	0,745200
8,850333	0,5	0,748550
8,858667	0,5	0,750800
8,867000	0,5	0,751850
8,875333	0,5	0,751100
8,883667	0,5	0,752400
8,892000	0,5	0,752150
8,900333	0,5	0,750800
8,908667	0,5	0,751300
8,917000	0,5	0,748700
8,925333	0,5	0,746650
8,933667	0,5	0,747750
8,942000	0,5	0,744650
8,950333	0,5	0,742450
8,958667	0,5	0,740950
8,967000	0,5	0,739500
8,975333	0,5	0,740250
8,983667	0,5	0,739850
8,992000	0,5	0,741400
9,000333	0,5	0,739350
9,008667	0,5	0,740350
9,017000	0,5	0,741950
9,025333	0,5	0,740700
9,033667	0,5	0,743150
9,042000	0,5	0,744900
9,050333	0,5	0,747050
9,058667	0,5	0,748750
9,067000	0,5	0,749350
9,075333	0,5	0,749200
9,083667	0,5	0,754300
9,092000	0,5	0,758500
9,100333	0,5	0,763800
9,108667	0,5	0,763900
9,117000	0,5	0,770600
9,125333	0,5	0,775500
9,133667	0,5	0,775200
9,142000	0,5	0,774100
9,150333	0,5	0,771900
9,158667	0,5	0,770050
9,167000	0,5	0,770000
9,175333	0,5	0,777000
9,183667	0,5	0,791000
9,192000	0,5	0,813650
9,200333	0,5	0,835300
9,208667	0,5	0,855500
9,217000	0,5	0,869250
9,225333	0,5	0,874600
9,233667	0,5	0,878700
9,242000	0,5	0,871550
9,250333	0,5	0,859900
9,258667	0,5	0,846800
9,267000	0,5	0,838900
9,275333	0,5	0,825200
9,283667	0,5	0,816900
9,292000	0,5	0,802500
9,300333	0,5	0,793350
9,308667	0,5	0,784800
9,317000	0,5	0,774450
9,325333	0,5	0,767400
9,333667	0,5	0,761750
9,342000	0,5	0,757100
9,350333	0,5	0,754650
9,358667	0,5	0,753500
9,367000	0,5	0,755100
9,375333	0,5	0,755250
9,383667	0,5	0,762450
9,392000	0,5	0,765500
9,400333	0,5	0,771450
9,408667	0,5	0,772400
9,417000	0,5	0,777400
9,425333	0,5	0,779800
9,433667	0,5	0,777400
9,442000	0,5	0,774350
9,450333	0,5	0,767400
9,458667	0,5	0,763450
9,467000	0,5	0,759950
9,475333	0,5	0,753800
9,483667	0,5	0,750800
9,492000	0,5	0,748450
9,500333	0,5	0,743800
9,508667	0,5	0,743450
9,517000	0,5	0,741450
9,525333	0,5	0,740350
9,533667	0,5	0,740150
9,542000	0,5	0,737900
9,550333	0,5	0,735700
9,558667	0,5	0,731000
9,567000	0,5	0,737150
9,575333	0,5	0,744550
9,583667	0,5	0,749900
9,592000	0,5	0,764250
9,600333	0,5	0,775650
9,608667	0,5	0,785800
9,617000	0,5	0,788650
9,625333	0,5	0,788000
9,633667	0,5	0,780550
9,642000	0,5	0,775900
9,650333	0,5	0,766200
9,658667	0,5	0,760100
9,667000	0,5	0,754250
9,675333	0,5	0,761700
9,683667	0,5	0,765300
9,692000	0,5	0,773350
9,700333	0,5	0,781050
9,708667	0,5	0,788200
9,717000	0,5	0,792000
9,725333	0,5	0,792150
9,733667	0,5	0,786150
9,742000	0,5	0,783000
9,750333	0,5	0,769550
9,758667	0,5	0,760950
9,767000	0,5	0,752450
9,775333	0,5	0,741600
9,783667	0,5	0,728600
9,792000	0,5	0,724250
9,800333	0,5	0,713550
9,808667	0,5	0,713250
9,817000	0,5	0,710750
9,825333	0,5	0,709200
9,833667	0,5	0,705100
9,842000	0,5	0,703650
9,850333	0,5	0,702000
9,858667	0,5	0,703750
9,867000	0,5	0,704350
9,875333	0,5	0,707950
9,883667	0,5	0,707000
9,892000	0,5	0,702800
9,900333	0,5	0,697750
9,908667	0,5	0,698350
9,917000	0,5	0,694550
9,925333	0,5	0,693050
9,933667	0,5	0,694000
9,942000	0,5	0,694950
9,950333	0,5	0,702800
9,958667	0,5	0,706150
9,967000	0,5	0,714450
9,975333	0,5	0,717850
9,983667	0,5	0,710800
9,992000	0,5	0,700800
10,000333	0,5	0,687150
10,008667	0,5	0,674350
10,017000	0,5	0,663850
10,025333	0,5	0,650700
10,033667	0,5	0,643800
10,042000	0,5	0,634350
10,050333	0,5	0,630550
10,058667	0,5	0,626200
10,067000	0,5	0,622850
10,075333	0,5	0,620800
10,083667	0,5	0,617250
10,092000	0,5	0,615000
10,100333	0,5	0,612850
10,108667	0,5	0,610600
10,117000	0,5	0,604400
10,125333	0,5	0,606950
10,133667	0,5	0,607350
10,142000	0,5	0,608800
10,150333	0,5	0,614100
10,158667	0,5	0,628450
10,167000	0,5	0,646650
10,175333	0,5	0,659300
10,183667	0,5	0,670250
10,192000	0,5	0,671000
10,200333	0,5	0,667900
10,208667	0,5	0,660400
10,217000	0,5	0,647900
10,225333	0,5	0,633100
10,233667	0,5	0,621250
10,242000	0,5	0,617300
10,250333	0,5	0,604000
10,258667	0,5	0,600700
10,267000	0,5	0,599000
10,275333	0,5	0,596700
10,283667	0,5	0,596800
10,292000	0,5	0,593600
10,300333	0,5	0,586150
10,308667	0,5	0,582550
10,317000	0,5	0,582000
10,325333	0,5	0,579750
10,333667	0,5	0,577100
10,342000	0,5	0,577400
10,350333	0,5	0,575000
10,358667	0,5	0,578250
10,367000	0,5	0,575050
10,375333	0,5	0,573150
10,383667	0,5	0,571600
10,392000	0,5	0,565850
10,400333	0,5	0,563300
10,408667	0,5	0,559100
10,417000	0,5	0,558400
10,425333	0,5	0,550250
10,433667	0,5	0,541600
10,442000	0,5	0,528950
10,450333	0,5	0,524300
10,458667	0,5	0,517150
10,467000	0,5	0,510000
10,475333	0,5	0,503500
10,483667	0,5	0,497050
10,492000	0,5	0,494150
10,500333	0,5	0,490400
10,508667	0,5	0,491250
10,517000	0,5	0,490750
10,525333	0,5	0,495750
10,533667	0,5	0,500950
10,542000	0,5	0,512550
10,550333	0,5	0,523200
10,558667	0,5	0,543350
10,567000	0,5	0,555000
10,575333	0,5	0,560600
10,583667	0,5	0,556550
10,592000	0,5	0,547450
10,600333	0,5	0,537900
10,608667	0,5	0,524450
10,617000	0,5	0,506050
10,625333	0,5	0,491600
10,633667	0,5	0,479150
10,642000	0,5	0,467200
10,650333	0,5	0,457850
10,658667	0,5	0,447650
10,667000	0,5	0,440000
10,675333	0,5	0,433600
10,683667	0,5	0,429150
10,692000	0,5	0,425400
10,700333	0,5	0,415900
10,708667	0,5	0,422050
10,717000	0,5	0,421550
10,725333	0,5	0,419600
10,733667	0,5	0,419450
10,742000	0,5	0,412850
10,750333	0,5	0,422050
10,758667	0,5	0,421800
10,767000	0,5	0,422200
10,775333	0,5	0,421900
10,783667	0,5	0,425600
10,792000	0,5	0,426400
10,800333	0,5	0,424850
10,808667	0,5	0,421250
10,817000	0,5	0,417700
10,825333	0,5	0,410450
10,833667	0,5	0,406650
10,842000	0,5	0,399050
10,850333	0,5	0,394700
10,858667	0,5	0,398950
10,867000	0,5	0,399650
10,875333	0,5	0,409250
10,883667	0,5	0,414900
10,892000	0,5	0,427400
10,900333	0,5	0,440500
10,908667	0,5	0,454750
10,917000	0,5	0,460650
10,925333	0,5	0,458800
10,933667	0,5	0,452600
10,942000	0,5	0,443150
10,950333	0,5	0,431400
10,958667	0,5	0,418000
10,967000	0,5	0,401650
10,975333	0,5	0,390350
10,983667	0,5	0,378900
10,992000	0,5	0,366300
11,000333	0,5	0,360300
11,008667	0,5	0,355050
11,017000	0,5	0,349100
11,025333	0,5	0,340850
11,033667	0,5	0,337050
11,042000	0,5	0,335400
11,050333	0,5	0,344450
11,058667	0,5	0,346700
11,067000	0,5	0,350700
11,075333	0,5	0,354700
11,083667	0,5	0,357600
11,092000	0,5	0,360900
11,100333	0,5	0,361250
11,108667	0,5	0,365500
11,117000	0,5	0,368650
11,125333	0,5	0,369800
11,133667	0,5	0,368500
11,142000	0,5	0,362650
11,150333	0,5	0,365050
11,158667	0,5	0,365500
11,167000	0,5	0,363700
11,175333	0,5	0,371550
11,183667	0,5	0,374200
11,192000	0,5	0,386200
11,200333	0,5	0,399300
11,208667	0,5	0,407350
11,217000	0,5	0,405550
11,225333	0,5	0,405100
11,233667	0,5	0,393150
11,242000	0,5	0,383550
11,250333	0,5	0,372450
11,258667	0,5	0,361700
11,267000	0,5	0,352100
11,275333	0,5	0,345550
11,283667	0,5	0,330850
11,292000	0,5	0,325050
11,300333	0,5	0,319450
11,308667	0,5	0,318400
11,317000	0,5	0,313050
11,325333	0,5	0,307800
11,333667	0,5	0,307450
11,342000	0,5	0,314050
11,350333	0,5	0,319350
11,358667	0,5	0,325400
11,367000	0,5	0,332250
11,375333	0,5	0,339650
11,383667	0,5	0,345300
11,392000	0,5	0,352350
11,400333	0,5	0,358900
11,408667	0,5	0,363200
11,417000	0,5	0,368250
11,425333	0,5	0,366850
11,433667	0,5	0,359650
11,442000	0,5	0,359600
11,450333	0,5	0,356600
11,458667	0,5	0,347850
11,467000	0,5	0,340800
11,475333	0,5	0,328550
11,483667	0,5	0,327750
11,492000	0,5	0,323050
11,500333	0,5	0,322750
11,508667	0,5	0,320950
11,517000	0,5	0,318850
11,525333	0,5	0,314900
11,533667	0,5	0,314650
11,542000	0,5	0,317800
11,550333	0,5	0,318700
11,558667	0,5	0,322650
11,567000	0,5	0,329900
11,575333	0,5	0,333300
11,583667	0,5	0,324550
11,592000	0,5	0,326800
11,600333	0,5	0,317950
11,608667	0,5	0,304700
11,617000	0,5	0,287200
11,625333	0,5	0,268900
11,633667	0,5	0,253600
11,642000	0,5	0,245700
11,650333	0,5	0,232900
11,658667	0,5	0,223950
11,667000	0,5	0,217500
11,675333	0,5	0,211750
11,683667	0,5	0,205100
11,692000	0,5	0,200300
11,700333	0,5	0,196500
11,708667	0,5	0,195550
11,717000	0,5	0,198000
11,725333	0,5	0,198200
11,733667	0,5	0,197300
11,742000	0,5	0,207050
11,750333	0,5	0,211400
11,758667	0,5	0,212400
11,767000	0,5	0,213150
11,775333	0,5	0,210450
11,783667	0,5	0,218250
11,792000	0,5	0,211300
11,800333	0,5	0,208750
11,808667	0,5	0,193550
11,817000	0,5	0,189300
11,825333	0,5	0,172500
11,833667	0,5	0,165800
11,842000	0,5	0,160950
11,850333	0,5	0,158400
11,858667	0,5	0,154900
11,867000	0,5	0,160900
11,875333	0,5	0,161800
11,883667	0,5	0,167000
11,892000	0,5	0,174650
11,900333	0,5	0,158600
11,908667	0,5	0,103450
11,917000	0,5	0,005150
11,925333	0,5	-0,094600
11,933667	0,5	-0,173950
11,942000	0,5	-0,237100
11,950333	0,5	-0,288600
11,958667	0,5	-0,324000
11,967000	0,5	-0,350350
11,975333	0,5	-0,363950
11,983667	0,5	-0,381650
11,992000	0,5	-0,393950
12,000333	0,5	-0,404100
12,008667	0,5	-0,411700
12,017000	0,5	-0,425200
12,025333	0,5	-0,434350
12,033667	0,5	-0,435850
12,042000	0,5	-0,439050
12,050333	0,5	-0,445000
12,058667	0,5	-0,450500
12,067000	0,5	-0,451700
12,075333	0,5	-0,454250
12,083667	0,5	-0,446300
12,092000	0,5	-0,440550
12,100333	0,5	-0,432800
12,108667	0,5	-0,421800
12,117000	0,5	-0,411250
12,125333	0,5	-0,402350
12,133667	0,5	-0,389150
12,142000	0,5	-0,382000
12,150333	0,5	-0,372700
12,158667	0,5	-0,367200
12,167000	0,5	-0,362650
12,175333	0,5	-0,364500
12,183667	0,5	-0,361400
12,192000	0,5	-0,362250
12,200333	0,5	-0,367150
12,208667	0,5	-0,374800
12,217000	0,5	-0,384900
12,225333	0,5	-0,386700
12,233667	0,5	-0,386250
12,242000	0,5	-0,389150
12,250333	0,5	-0,383400
12,258667	0,5	-0,381650
12,267000	0,5	-0,378800
12,275333	0,5	-0,370000
12,283667	0,5	-0,363250
12,292000	0,5	-0,356550
12,300333	0,5	-0,353850
12,308667	0,5	-0,347300
12,317000	0,5	-0,356950
12,325333	0,5	-0,358150
12,333667	0,5	-0,355650
12,342000	0,5	-0,359350
12,350333	0,5	-0,362650
12,358667	0,5	-0,370150
12,367000	0,5	-0,374750
12,375333	0,5	-0,376500
12,383667	0,5	-0,378950
12,392000	0,5	-0,375850
12,400333	0,5	-0,374850
12,408667	0,5	-0,374050
12,417000	0,5	-0,372000
12,425333	0,5	-0,370100
12,433667	0,5	-0,367150
12,442000	0,5	-0,363950
12,450333	0,5	-0,358550
12,458667	0,5	-0,352500
12,467000	0,5	-0,355950
12,475333	0,5	-0,344750
12,483667	0,5	-0,338850
12,492000	0,5	-0,335300
12,500333	0,5	-0,327800
12,508667	0,5	-0,330500
12,517000	0,5	-0,320100
12,525333	0,5	-0,309500
12,533667	0,5	-0,298700
12,542000	0,5	-0,293850
12,550333	0,5	-0,282150
12,558667	0,5	-0,276100
12,567000	0,5	-0,269300
12,575333	0,5	-0,259950
12,583667	0,5	-0,257250
12,592000	0,5	-0,249800
12,600333	0,5	-0,247450
12,608667	0,5	-0,245300
12,617000	0,5	-0,252700
12,625333	0,5	-0,242850
12,633667	0,5	-0,242400
12,642000	0,5	-0,243700
12,650333	0,5	-0,248450
12,658667	0,5	-0,251750
12,667000	0,5	-0,246000
12,675333	0,5	-0,242500
12,683667	0,5	-0,240000
12,692000	0,5	-0,231950
12,700333	0,5	-0,228800
12,708667	0,5	-0,221150
12,717000	0,5	-0,219500
12,725333	0,5	-0,210400
12,733667	0,5	-0,203550
12,742000	0,5	-0,200650
12,750333	0,5	-0,191300
12,758667	0,5	-0,185050
12,767000	0,5	-0,178550
12,775333	0,5	-0,168900
12,783667	0,5	-0,163700
12,792000	0,5	-0,160550
12,800333	0,5	-0,153900
12,808667	0,5	-0,150350
12,817000	0,5	-0,135200
12,825333	0,5	-0,126150
12,833667	0,5	-0,114200
12,842000	0,5	-0,112750
12,850333	0,5	-0,104300
12,858667	0,5	-0,100400
12,867000	0,5	-0,097350
12,875333	0,5	-0,095600
12,883667	0,5	-0,093400
12,892000	0,5	-0,087700
12,900333	0,5	-0,082300
12,908667	0,5	-0,092300
12,917000	0,5	-0,081400
12,925333	0,5	-0,073350
12,933667	0,5	-0,071250
12,942000	0,5	-0,071750
12,950333	0,5	-0,074400
12,958667	0,5	-0,071700
12,967000	0,5	-0,069300
12,975333	0,5	-0,063800
12,983667	0,5	-0,063650
12,992000	0,5	-0,058500
13,000333	0,5	-0,061300
13,008667	0,5	-0,061600
13,017000	0,5	-0,061100
13,025333	0,5	-0,056150
13,033667	0,5	-0,057800
13,042000	0,5	-0,057350
13,050333	0,5	-0,056550
13,058667	0,5	-0,059700
13,067000	0,5	-0,053450
13,075333	0,5	-0,053950
13,083667	0,5	-0,055600
13,092000	0,5	-0,057850
13,100333	0,5	-0,067450
13,108667	0,5	-0,068600
13,117000	0,5	-0,059250
13,125333	0,5	-0,062050
13,133667	0,5	-0,060650
13,142000	0,5	-0,061600
13,150333	0,5	-0,057950
13,158667	0,5	-0,060000
13,167000	0,5	-0,058200
13,175333	0,5	-0,064750
13,183667	0,5	-0,061250
13,192000	0,5	-0,061350
13,200333	0,5	-0,065400
13,208667	0,5	-0,069400
13,217000	0,5	-0,063400
13,225333	0,5	-0,063850
13,233667	0,5	-0,066250
13,242000	0,5	-0,074500
13,250333	0,5	-0,072250
13,258667	0,5	-0,073450
13,267000	0,5	-0,070800
13,275333	0,5	-0,068700
13,283667	0,5	-0,066750
13,292000	0,5	-0,065950
13,300333	0,5	-0,069400
13,308667	0,5	-0,064200
13,317000	0,5	-0,064400
13,325333	0,5	-0,066600
13,333667	0,5	-0,066350
13,342000	0,5	-0,066550
13,350333	0,5	-0,078250
13,358667	0,5	-0,073400
13,367000	0,5	-0,071000
13,375333	0,5	-0,073650
13,383667	0,5	-0,079900
13,392000	0,5	-0,081300
13,400333	0,5	-0,086450
13,408667	0,5	-0,080900
13,417000	0,5	-0,083000
13,425333	0,5	-0,077750
13,433667	0,5	-0,076550
13,442000	0,5	-0,073600
13,450333	0,5	-0,071200
13,458667	0,5	-0,070950
13,467000	0,5	-0,070350
13,475333	0,5	-0,069450
13,483667	0,5	-0,064600
13,492000	0,5	-0,067450
13,500333	0,5	-0,079000
13,508667	0,5	-0,070350
13,517000	0,5	-0,067050
13,525333	0,5	-0,071800
13,533667	0,5	-0,075850
13,542000	0,5	-0,085700
13,550333	0,5	-0,078900
13,558667	0,5	-0,081100
13,567000	0,5	-0,080850
13,575333	0,5	-0,082800
13,583667	0,5	-0,079700
13,592000	0,5	-0,076300
13,600333	0,5	-0,073950
13,608667	0,5	-0,070000
13,617000	0,5	-0,069450
13,625333	0,5	-0,065950
13,633667	0,5	-0,069000
13,642000	0,5	-0,072700
13,650333	0,5	-0,082400
13,658667	0,5	-0,079450
13,667000	0,5	-0,081950
13,675333	0,5	-0,087050
13,683667	0,5	-0,093600
13,692000	0,5	-0,102250
13,700333	0,5	-0,104300
13,708667	0,5	-0,104600
13,717000	0,5	-0,107850
13,725333	0,5	-0,106800
13,733667	0,5	-0,101450
13,742000	0,5	-0,095100
13,750333	0,5	-0,087150
13,758667	0,5	-0,078900
13,767000	0,5	-0,078400
13,775333	0,5	-0,086300
13,783667	0,5	-0,088550
13,792000	0,5	-0,106650
13,800333	0,5	-0,107050
13,808667	0,5	-0,101800
13,817000	0,5	-0,103900
13,825333	0,5	-0,108950
13,833667	0,5	-0,109250
13,842000	0,5	-0,111100
13,850333	0,5	-0,100400
13,858667	0,5	-0,099150
13,867000	0,5	-0,091150
13,875333	0,5	-0,086500
13,883667	0,5	-0,074450
13,892000	0,5	-0,067600
13,900333	0,5	-0,055350
13,908667	0,5	-0,060300
13,917000	0,5	-0,065600
13,925333	0,5	-0,079100
13,933667	0,5	-0,088800
13,942000	0,5	-0,112900
13,950333	0,5	-0,114600
13,958667	0,5	-0,119100
13,967000	0,5	-0,123000
13,975333	0,5	-0,120750
13,983667	0,5	-0,125050
13,992000	0,5	-0,118600
14,000333	0,5	-0,109850
14,008667	0,5	-0,098350
14,017000	0,5	-0,091300
14,025333	0,5	-0,082400
14,033667	0,5	-0,084850
14,042000	0,5	-0,084850
14,050333	0,5	-0,098500
14,058667	0,5	-0,112500
14,067000	0,5	-0,127100
14,075333	0,5	-0,133800
14,083667	0,5	-0,144750
14,092000	0,5	-0,155650
14,100333	0,5	-0,145500
14,108667	0,5	-0,137700
14,117000	0,5	-0,133300
14,125333	0,5	-0,126450
14,133667	0,5	-0,130550
14,142000	0,5	-0,126050
14,150333	0,5	-0,126200
14,158667	0,5	-0,129200
14,167000	0,5	-0,135450
14,175333	0,5	-0,146050
14,183667	0,5	-0,157600
14,192000	0,5	-0,171950
14,200333	0,5	-0,177650
14,208667	0,5	-0,183550
14,217000	0,5	-0,175700
14,225333	0,5	-0,175850
14,233667	0,5	-0,175250
14,242000	0,5	-0,171100
14,250333	0,5	-0,165300
14,258667	0,5	-0,171000
14,267000	0,5	-0,174000
14,275333	0,5	-0,192050
14,283667	0,5	-0,199650
14,292000	0,5	-0,209000
14,300333	0,5	-0,212650
14,308667	0,5	-0,216750
14,317000	0,5	-0,217250
14,325333	0,5	-0,215900
14,333667	0,5	-0,211350
14,342000	0,5	-0,200900
14,350333	0,5	-0,199000
14,358667	0,5	-0,195000
14,367000	0,5	-0,191500
14,375333	0,5	-0,194300
14,383667	0,5	-0,212600
14,392000	0,5	-0,208450
14,400333	0,5	-0,213800
14,408667	0,5	-0,221100
14,417000	0,5	-0,230000
14,425333	0,5	-0,238650
14,433667	0,5	-0,239150
14,442000	0,5	-0,238050
14,450333	0,5	-0,241600
14,458667	0,5	-0,240700
14,467000	0,5	-0,242450
14,475333	0,5	-0,244500
14,483667	0,5	-0,251100
14,492000	0,5	-0,252750
14,500333	0,5	-0,253450
14,508667	0,5	-0,258550
14,517000	0,5	-0,254150
14,525333	0,5	-0,257100
14,533667	0,5	-0,267200
14,542000	0,5	-0,260200
14,550333	0,5	-0,263200
14,558667	0,5	-0,270600
14,567000	0,5	-0,275800
14,575333	0,5	-0,289600
14,583667	0,5	-0,284600
14,592000	0,5	-0,285300
14,600333	0,5	-0,284750
14,608667	0,5	-0,286050
14,617000	0,5	-0,289950
14,625333	0,5	-0,295100
14,633667	0,5	-0,295400
14,642000	0,5	-0,296500
14,650333	0,5	-0,301200
14,658667	0,5	-0,300650
14,667000	0,5	-0,301550
14,675333	0,5	-0,307500
14,683667	0,5	-0,310950
14,692000	0,5	-0,304150
14,700333	0,5	-0,301300
14,708667	0,5	-0,305600
14,717000	0,5	-0,312850
14,725333	0,5	-0,313000
14,733667	0,5	-0,314200
14,742000	0,5	-0,309750
14,750333	0,5	-0,315100
14,758667	0,5	-0,315350
14,767000	0,5	-0,316950
14,775333	0,5	-0,320050
14,783667	0,5	-0,322350
14,792000	0,5	-0,318750
14,800333	0,5	-0,319150
14,808667	0,5	-0,316550
14,817000	0,5	-0,313950
14,825333	0,5	-0,325050
14,833667	0,5	-0,320550
14,842000	0,5	-0,319650
14,850333	0,5	-0,322600
14,858667	0,5	-0,332450
14,867000	0,5	-0,338800
14,875333	0,5	-0,344800
14,883667	0,5	-0,335400
14,892000	0,5	-0,339400
14,900333	0,5	-0,335600
14,908667	0,5	-0,337150
14,917000	0,5	-0,337650
14,925333	0,5	-0,341800
14,933667	0,5	-0,340100
14,942000	0,5	-0,345200
14,950333	0,5	-0,340750
14,958667	0,5	-0,338100
14,967000	0,5	-0,337200
14,975333	0,5	-0,350100
14,983667	0,5	-0,340100
14,992000	0,5	-0,344350
15,000333	0,5	-0,343650
15,008667	0,5	-0,351450
15,017000	0,5	-0,362500
15,025333	0,5	-0,357000
15,033667	0,5	-0,356350
15,042000	0,5	-0,357550
15,050333	0,5	-0,357450
15,058667	0,5	-0,359150
15,067000	0,5	-0,362250
15,075333	0,5	-0,362900
15,083667	0,5	-0,365500
15,092000	0,5	-0,362650
15,100333	0,5	-0,363900
15,108667	0,5	-0,359550
15,117000	0,5	-0,370350
15,125333	0,5	-0,366050
15,133667	0,5	-0,363450
15,142000	0,5	-0,368550
15,150333	0,5	-0,371200
15,158667	0,5	-0,381850
15,167000	0,5	-0,384850
15,175333	0,5	-0,387800
15,183667	0,5	-0,385950
15,192000	0,5	-0,383900
15,200333	0,5	-0,383650
15,208667	0,5	-0,380850
15,217000	0,5	-0,381550
15,225333	0,5	-0,386400
15,233667	0,5	-0,383750
15,242000	0,5	-0,387950
15,250333	0,5	-0,378950
15,258667	0,5	-0,384200
15,267000	0,5	-0,393100
15,275333	0,5	-0,391850
15,283667	0,5	-0,384150
15,292000	0,5	-0,389850
15,300333	0,5	-0,396350
15,308667	0,5	-0,403050
15,317000	0,5	-0,404200
15,325333	0,5	-0,396000
15,333667	0,5	-0,395350
15,342000	0,5	-0,397900
15,350333	0,5	-0,394000
15,358667	0,5	-0,397350
15,367000	0,5	-0,395300
15,375333	0,5	-0,392500
15,383667	0,5	-0,394850
15,392000	0,5	-0,394150
15,400333	0,5	-0,394250
15,408667	0,5	-0,392650
15,417000	0,5	-0,402400
15,425333	0,5	-0,394850
15,433667	0,5	-0,392050
15,442000	0,5	-0,397300
15,450333	0,5	-0,404550
15,458667	0,5	-0,409800
15,467000	0,5	-0,411250
15,475333	0,5	-0,409450
15,483667	0,5	-0,413750
15,492000	0,5	-0,407800
15,500333	0,5	-0,405350
15,508667	0,5	-0,398450
15,517000	0,5	-0,397000
15,525333	0,5	-0,394450
15,533667	0,5	-0,393700
15,542000	0,5	-0,392450
15,550333	0,5	-0,388800
15,558667	0,5	-0,395950
15,567000	0,5	-0,397650
15,575333	0,5	-0,389400
15,583667	0,5	-0,388650
15,592000	0,5	-0,394100
15,600333	0,5	-0,401100
15,608667	0,5	-0,400150
15,617000	0,5	-0,397150
15,625333	0,5	-0,403300
15,633667	0,5	-0,403400
15,642000	0,5	-0,412550
15,650333	0,5	-0,414600
15,658667	0,5	-0,421800
15,667000	0,5	-0,427350
15,675333	0,5	-0,425800
15,683667	0,5	-0,428050
15,692000	0,5	-0,420300
15,700333	0,5	-0,419250
15,708667	0,5	-0,431650
15,717000	0,5	-0,427400
15,725333	0,5	-0,425000
15,733667	0,5	-0,427600
15,742000	0,5	-0,431600
15,750333	0,5	-0,448100
15,758667	0,5	-0,442300
15,767000	0,5	-0,448400
15,775333	0,5	-0,444350
15,783667	0,5	-0,448300
15,792000	0,5	-0,442450
15,800333	0,5	-0,449850
15,808667	0,5	-0,443900
15,817000	0,5	-0,447350
15,825333	0,5	-0,446650
15,833667	0,5	-0,448250
15,842000	0,5	-0,442850
15,850333	0,5	-0,441550
15,858667	0,5	-0,454350
15,867000	0,5	-0,447250
15,875333	0,5	-0,450750
15,883667	0,5	-0,447300
15,892000	0,5	-0,454900
15,900333	0,5	-0,464800
15,908667	0,5	-0,465200
15,917000	0,5	-0,457800
15,925333	0,5	-0,459150
15,933667	0,5	-0,456450
15,942000	0,5	-0,458950
15,950333	0,5	-0,453650
15,958667	0,5	-0,458500
15,967000	0,5	-0,455950
15,975333	0,5	-0,460750
15,983667	0,5	-0,455850
15,992000	0,5	-0,456700
16,000333	0,5	-0,458150
16,008667	0,5	-0,463100
16,017000	0,5	-0,452400
16,025333	0,5	-0,459600
16,033667	0,5	-0,460750
16,042000	0,5	-0,474400
16,050333	0,5	-0,478650
16,058667	0,5	-0,475950
16,067000	0,5	-0,472350
16,075333	0,5	-0,468700
16,083667	0,5	-0,471200
16,092000	0,5	-0,467700
16,100333	0,5	-0,466850
16,108667	0,5	-0,466100
16,117000	0,5	-0,466100
16,125333	0,5	-0,465300
16,133667	0,5	-0,459250
16,142000	0,5	-0,456150
16,150333	0,5	-0,463850
16,158667	0,5	-0,457200
16,167000	0,5	-0,451400
16,175333	0,5	-0,452500
16,183667	0,5	-0,452950
16,192000	0,5	-0,463100
16,200333	0,5	-0,467200
16,208667	0,5	-0,468650
16,217000	0,5	-0,464100
16,225333	0,5	-0,464700
16,233667	0,5	-0,460650
16,242000	0,5	-0,461550
16,250333	0,5	-0,457400
16,258667	0,5	-0,459900
16,267000	0,5	-0,457050
16,275333	0,5	-0,460250
16,283667	0,5	-0,447850
16,292000	0,5	-0,455650
16,300333	0,5	-0,456450
16,308667	0,5	-0,454850
16,317000	0,5	-0,453450
16,325333	0,5	-0,458750
16,333667	0,5	-0,463700
16,342000	0,5	-0,466900
16,350333	0,5	-0,470050
16,358667	0,5	-0,465950
16,367000	0,5	-0,462700
16,375333	0,5	-0,460250
16,383667	0,5	-0,461050
16,392000	0,5	-0,457450
16,400333	0,5	-0,459400
16,408667	0,5	-0,451900
16,417000	0,5	-0,454400
16,425333	0,5	-0,448500
16,433667	0,5	-0,447350
16,442000	0,5	-0,453200
16,450333	0,5	-0,455400
16,458667	0,5	-0,442850
16,467000	0,5	-0,445350
16,475333	0,5	-0,443050
16,483667	0,5	-0,455850
16,492000	0,5	-0,453650
16,500333	0,5	-0,454850
16,508667	0,5	-0,454350
16,517000	0,5	-0,457200
16,525333	0,5	-0,449800
16,533667	0,5	-0,449950
16,542000	0,5	-0,448750
16,550333	0,5	-0,450000
16,558667	0,5	-0,451100
16,567000	0,5	-0,444500
16,575333	0,5	-0,444950
16,583667	0,5	-0,435650
16,592000	0,5	-0,449950
16,600333	0,5	-0,436150
16,608667	0,5	-0,432250
16,617000	0,5	-0,430550
16,625333	0,5	-0,433300
16,633667	0,5	-0,444100
16,642000	0,5	-0,433200
16,650333	0,5	-0,429500
16,658667	0,5	-0,427850
16,667000	0,5	-0,423350
16,675333	0,5	-0,419000
16,683667	0,5	-0,416350
16,692000	0,5	-0,412050
16,700333	0,5	-0,408250
16,708667	0,5	-0,408350
16,717000	0,5	-0,407000
16,725333	0,5	-0,398350
16,733667	0,5	-0,392850
16,742000	0,5	-0,400500
16,750333	0,5	-0,389200
16,758667	0,5	-0,385550
16,767000	0,5	-0,384150
16,775333	0,5	-0,380900
16,783667	0,5	-0,393250
16,792000	0,5	-0,382100
16,800333	0,5	-0,383000
16,808667	0,5	-0,375800
16,817000	0,5	-0,375650
16,825333	0,5	-0,367550
16,833667	0,5	-0,366900
16,842000	0,5	-0,359650
16,850333	0,5	-0,359550
16,858667	0,5	-0,358300
16,867000	0,5	-0,355800
16,875333	0,5	-0,349250
16,883667	0,5	-0,349800
16,892000	0,5	-0,347950
16,900333	0,5	-0,335650
16,908667	0,5	-0,333600
16,917000	0,5	-0,334600
16,925333	0,5	-0,342950
16,933667	0,5	-0,345950
16,942000	0,5	-0,349850
16,950333	0,5	-0,338450
16,958667	0,5	-0,339550
16,967000	0,5	-0,328250
16,975333	0,5	-0,330950
16,983667	0,5	-0,325950
16,992000	0,5	-0,325250
17,000333	0,5	-0,321200
17,008667	0,5	-0,323650
17,017000	0,5	-0,321750
17,025333	0,5	-0,316600
17,033667	0,5	-0,320000
17,042000	0,5	-0,316350
17,050333	0,5	-0,306650
17,058667	0,5	-0,306550
17,067000	0,5	-0,312800
17,075333	0,5	-0,320650
17,083667	0,5	-0,324150
17,092000	0,5	-0,316400
17,100333	0,5	-0,316450
17,108667	0,5	-0,312650
17,117000	0,5	-0,312900
17,125333	0,5	-0,308250
17,133667	0,5	-0,310650
17,142000	0,5	-0,307950
17,150333	0,5	-0,312100
17,158667	0,5	-0,307050
17,167000	0,5	-0,300400
17,175333	0,5	-0,307050
17,183667	0,5	-0,316100
17,192000	0,5	-0,304250
17,200333	0,5	-0,299800
17,208667	0,5	-0,305700
17,217000	0,5	-0,312700
17,225333	0,5	-0,317050
17,233667	0,5	-0,316550
17,242000	0,5	-0,326200
17,250333	0,5	-0,320550
17,258667	0,5	-0,320100
17,267000	0,5	-0,312350
17,275333	0,5	-0,315550
17,283667	0,5	-0,317150
17,292000	0,5	-0,316950
17,300333	0,5	-0,318550
17,308667	0,5	-0,312650
17,317000	0,5	-0,311600
17,325333	0,5	-0,322650
17,333667	0,5	-0,320300
17,342000	0,5	-0,316750
17,350333	0,5	-0,318800
17,358667	0,5	-0,325250
17,367000	0,5	-0,343950
17,375333	0,5	-0,341600
17,383667	0,5	-0,338800
17,392000	0,5	-0,340600
17,400333	0,5	-0,341650
17,408667	0,5	-0,344300
17,417000	0,5	-0,344900
17,425333	0,5	-0,345700
17,433667	0,5	-0,352900
17,442000	0,5	-0,352250
17,450333	0,5	-0,356800
17,458667	0,5	-0,352500
17,467000	0,5	-0,352550
17,475333	0,5	-0,370400
17,483667	0,5	-0,364850
17,492000	0,5	-0,361200
17,500333	0,5	-0,368550
17,508667	0,5	-0,375250
17,517000	0,5	-0,391250
17,525333	0,5	-0,388350
17,533667	0,5	-0,393350
17,542000	0,5	-0,394850
17,550333	0,5	-0,398100
17,558667	0,5	-0,397200
17,567000	0,5	-0,398550
17,575333	0,5	-0,399700
17,583667	0,5	-0,398850
17,592000	0,5	-0,405800
17,600333	0,5	-0,411450
17,608667	0,5	-0,411150
17,617000	0,5	-0,410400
17,625333	0,5	-0,424700
17,633667	0,5	-0,416150
17,642000	0,5	-0,421700
17,650333	0,5	-0,425050
17,658667	0,5	-0,438750
17,667000	0,5	-0,446100
17,675333	0,5	-0,443600
17,683667	0,5	-0,444400
17,692000	0,5	-0,447850
17,700333	0,5	-0,446950
17,708667	0,5	-0,449950
17,717000	0,5	-0,449650
17,725333	0,5	-0,455850
17,733667	0,5	-0,463400
17,742000	0,5	-0,459400
17,750333	0,5	-0,467650
17,758667	0,5	-0,460100
17,767000	0,5	-0,467650
17,775333	0,5	-0,470400
17,783667	0,5	-0,471450
17,792000	0,5	-0,471700
17,800333	0,5	-0,481500
17,808667	0,5	-0,492250
17,817000	0,5	-0,499300
17,825333	0,5	-0,496150
17,833667	0,5	-0,506400
17,842000	0,5	-0,508750
17,850333	0,5	-0,510150
17,858667	0,5	-0,507100
17,867000	0,5	-0,508750
17,875333	0,5	-0,510150
17,883667	0,5	-0,511150
17,892000	0,5	-0,516250
17,900333	0,5	-0,509750
17,908667	0,5	-0,511750
17,917000	0,5	-0,523000
17,925333	0,5	-0,523550
17,933667	0,5	-0,524800
17,942000	0,5	-0,527500
17,950333	0,5	-0,536100
17,958667	0,5	-0,551650
17,967000	0,5	-0,549300
17,975333	0,5	-0,552650
17,983667	0,5	-0,548000
17,992000	0,5	-0,554950
18,000333	0,5	-0,550000
18,008667	0,5	-0,553450
18,017000	0,5	-0,556150
18,025333	0,5	-0,559500
18,033667	0,5	-0,562500
18,042000	0,5	-0,559900
18,050333	0,5	-0,556750
18,058667	0,5	-0,564700
18,067000	0,5	-0,569850
18,075333	0,5	-0,565150
18,083667	0,5	-0,568700
18,092000	0,5	-0,574350
18,100333	0,5	-0,589600
18,108667	0,5	-0,594950
18,117000	0,5	-0,599600
18,125333	0,5	-0,598150
18,133667	0,5	-0,600700
18,142000	0,5	-0,597650
18,150333	0,5	-0,603900
18,158667	0,5	-0,606850
18,167000	0,5	-0,606600
18,175333	0,5	-0,605300
18,183667	0,5	-0,605500
18,192000	0,5	-0,601300
18,200333	0,5	-0,605750
18,208667	0,5	-0,615950
18,217000	0,5	-0,612750
18,225333	0,5	-0,613600
18,233667	0,5	-0,617250
18,242000	0,5	-0,622100
18,250333	0,5	-0,635850
18,258667	0,5	-0,639350
18,267000	0,5	-0,630350
18,275333	0,5	-0,639900
18,283667	0,5	-0,639850
18,292000	0,5	-0,640150
18,300333	0,5	-0,634700
18,308667	0,5	-0,637100
18,317000	0,5	-0,638050
18,325333	0,5	-0,640700
18,333667	0,5	-0,641700
18,342000	0,5	-0,639050
18,350333	0,5	-0,636800
18,358667	0,5	-0,653050
18,367000	0,5	-0,639750
18,375333	0,5	-0,636700
18,383667	0,5	-0,638600
18,392000	0,5	-0,643750
18,400333	0,5	-0,654300
18,408667	0,5	-0,651300
18,417000	0,5	-0,656250
18,425333	0,5	-0,649350
18,433667	0,5	-0,655550
18,442000	0,5	-0,647850
18,450333	0,5	-0,651350
18,458667	0,5	-0,648750
18,467000	0,5	-0,649550
18,475333	0,5	-0,647800
18,483667	0,5	-0,651650
18,492000	0,5	-0,643600
18,500333	0,5	-0,654300
18,508667	0,5	-0,647750
18,517000	0,5	-0,643800
18,525333	0,5	-0,641550
18,533667	0,5	-0,645600
18,542000	0,5	-0,650550
18,550333	0,5	-0,650400
18,558667	0,5	-0,649450
18,567000	0,5	-0,649800
18,575333	0,5	-0,652050
18,583667	0,5	-0,643950
18,592000	0,5	-0,649750
18,600333	0,5	-0,645500
18,608667	0,5	-0,646000
18,617000	0,5	-0,644850
18,625333	0,5	-0,646200
18,633667	0,5	-0,649150
18,642000	0,5	-0,641000
18,650333	0,5	-0,651100
18,658667	0,5	-0,645050
18,667000	0,5	-0,639600
18,675333	0,5	-0,644600
18,683667	0,5	-0,646150
18,692000	0,5	-0,660350
18,700333	0,5	-0,659250
18,708667	0,5	-0,650850
18,717000	0,5	-0,659250
18,725333	0,5	-0,657550
18,733667	0,5	-0,659850
18,742000	0,5	-0,656550
18,750333	0,5	-0,657750
18,758667	0,5	-0,657050
18,767000	0,5	-0,662750
18,775333	0,5	-0,658800
18,783667	0,5	-0,660750
18,792000	0,5	-0,654450
18,800333	0,5	-0,671850
18,808667	0,5	-0,659300
18,817000	0,5	-0,668650
18,825333	0,5	-0,663650
18,833667	0,5	-0,670950
18,842000	0,5	-0,688550
18,850333	0,5	-0,685700
18,858667	0,5	-0,685800
18,867000	0,5	-0,687300
18,875333	0,5	-0,687350
18,883667	0,5	-0,687750
18,892000	0,5	-0,692000
18,900333	0,5	-0,685550
18,908667	0,5	-0,689900
18,917000	0,5	-0,689400
18,925333	0,5	-0,689600
18,933667	0,5	-0,683800
18,942000	0,5	-0,692800
18,950333	0,5	-0,691750
18,958667	0,5	-0,691250
18,967000	0,5	-0,691600
18,975333	0,5	-0,698400
18,983667	0,5	-0,706750
18,992000	0,5	-0,718200
19,000333	0,5	-0,716250
19,008667	0,5	-0,722250
19,017000	0,5	-0,721150
19,025333	0,5	-0,717250
19,033667	0,5	-0,719350
19,042000	0,5	-0,717000
19,050333	0,5	-0,719100
19,058667	0,5	-0,719250
19,067000	0,5	-0,723050
19,075333	0,5	-0,710550
19,083667	0,5	-0,717050
19,092000	0,5	-0,722600
19,100333	0,5	-0,718450
19,108667	0,5	-0,716150
19,117000	0,5	-0,720500
19,125333	0,5	-0,726200
19,133667	0,5	-0,739100
19,142000	0,5	-0,737600
19,150333	0,5	-0,739650
19,158667	0,5	-0,733600
19,167000	0,5	-0,737850
19,175333	0,5	-0,733700
19,183667	0,5	-0,733050
19,192000	0,5	-0,729450
19,200333	0,5	-0,734000
19,208667	0,5	-0,737450
19,217000	0,5	-0,732450
19,225333	0,5	-0,725550
19,233667	0,5	-0,732150
19,242000	0,5	-0,739750
19,250333	0,5	-0,727600
19,258667	0,5	-0,726950
19,267000	0,5	-0,727600
19,275333	0,5	-0,740550
19,283667	0,5	-0,744200
19,292000	0,5	-0,747800
19,300333	0,5	-0,743200
19,308667	0,5	-0,749400
19,317000	0,5	-0,742300
19,325333	0,5	-0,740750
19,333667	0,5	-0,738800
19,342000	0,5	-0,737200
19,350333	0,5	-0,738100
19,358667	0,5	-0,735200
19,367000	0,5	-0,740150
19,375333	0,5	-0,729900
19,383667	0,5	-0,745500
19,392000	0,5	-0,737500
19,400333	0,5	-0,734400
19,408667	0,5	-0,737250
19,417000	0,5	-0,739800
19,425333	0,5	-0,751400
19,433667	0,5	-0,751150
19,442000	0,5	-0,743450
19,450333	0,5	-0,752150
19,458667	0,5	-0,743650
19,467000	0,5	-0,749700
19,475333	0,5	-0,744800
19,483667	0,5	-0,748450
19,492000	0,5	-0,741900
19,500333	0,5	-0,744600
19,508667	0,5	-0,745350
19,517000	0,5	-0,733400
19,525333	0,5	-0,731900
19,533667	0,5	-0,746700
19,542000	0,5	-0,732550
19,550333	0,5	-0,732250
19,558667	0,5	-0,736950
19,567000	0,5	-0,740050
19,575333	0,5	-0,753300
19,583667	0,5	-0,739850
19,592000	0,5	-0,745900
19,600333	0,5	-0,744650
19,608667	0,5	-0,747700
19,617000	0,5	-0,741000
19,625333	0,5	-0,742950
19,633667	0,5	-0,736150
19,642000	0,5	-0,738750
19,650333	0,5	-0,737650
19,658667	0,5	-0,737350
19,667000	0,5	-0,731150
19,675333	0,5	-0,735850
19,683667	0,5	-0,741950
19,692000	0,5	-0,725950
19,700333	0,5	-0,730750
19,708667	0,5	-0,735300
19,717000	0,5	-0,746400
19,725333	0,5	-0,748750
19,733667	0,5	-0,747250
19,742000	0,5	-0,737350
19,750333	0,5	-0,741550
19,758667	0,5	-0,737700
19,767000	0,5	-0,737050
19,775333	0,5	-0,731900
19,783667	0,5	-0,730450
19,792000	0,5	-0,729400
19,800333	0,5	-0,734650
19,808667	0,5	-0,733700
19,817000	0,5	-0,723150
19,825333	0,5	-0,727050
19,833667	0,5	-0,721600
19,842000	0,5	-0,713750
19,850333	0,5	-0,714850
19,858667	0,5	-0,726500
19,867000	0,5	-0,731000
19,875333	0,5	-0,730000
19,883667	0,5	-0,724350
19,892000	0,5	-0,725500
19,900333	0,5	-0,726300
19,908667	0,5	-0,727600
19,917000	0,5	-0,718000
19,925333	0,5	-0,717050
19,933667	0,5	-0,709600
19,942000	0,5	-0,711700
19,950333	0,5	-0,702250
19,958667	0,5	-0,693950
19,967000	0,5	-0,690000
19,975333	0,5	-0,695200
19,983667	0,5	-0,683700
19,992000	0,5	-0,685050
20,000333	0,5	-0,683450
20,008667	0,5	-0,692800
20,017000	0,5	-0,701500
20,025333	0,5	-0,695100
20,033667	0,5	-0,691850
20,042000	0,5	-0,682650
20,050333	0,5	-0,685800
20,058667	0,5	-0,675400
20,067000	0,5	-0,675000
20,075333	0,5	-0,664000
20,083667	0,5	-0,668350
20,092000	0,5	-0,664000
20,100333	0,5	-0,661300
20,108667	0,5	-0,653950
20,117000	0,5	-0,665400
20,125333	0,5	-0,659550
20,133667	0,5	-0,651650
20,142000	0,5	-0,657150
20,150333	0,5	-0,661100
20,158667	0,5	-0,674150
20,167000	0,5	-0,675850
20,175333	0,5	-0,675300
20,183667	0,5	-0,665850
20,192000	0,5	-0,667800
20,200333	0,5	-0,671600
20,208667	0,5	-0,670850
20,217000	0,5	-0,661650
20,225333	0,5	-0,655650
20,233667	0,5	-0,655450
20,242000	0,5	-0,654300
20,250333	0,5	-0,648650
20,258667	0,5	-0,649100
20,267000	0,5	-0,658100
20,275333	0,5	-0,654800
20,283667	0,5	-0,648500
20,292000	0,5	-0,654150
20,300333	0,5	-0,667500
20,308667	0,5	-0,677550
20,317000	0,5	-0,675000
20,325333	0,5	-0,672400
20,333667	0,5	-0,676400
20,342000	0,5	-0,669900
20,350333	0,5	-0,667850
20,358667	0,5	-0,667200
20,367000	0,5	-0,665450
20,375333	0,5	-0,660050
20,383667	0,5	-0,667100
20,392000	0,5	-0,657600
20,400333	0,5	-0,651200
20,408667	0,5	-0,656200
20,417000	0,5	-0,663200
20,425333	0,5	-0,651500
20,433667	0,5	-0,655300
20,442000	0,5	-0,658600
20,450333	0,5	-0,671350
20,458667	0,5	-0,676200
20,467000	0,5	-0,661200
20,475333	0,5	-0,661500
20,483667	0,5	-0,658850
20,492000	0,5	-0,662250
20,500333	0,5	-0,665800
20,508667	0,5	-0,662350
20,517000	0,5	-0,652150
20,525333	0,5	-0,656150
20,533667	0,5	-0,648350
20,542000	0,5	-0,639300
20,550333	0,5	-0,627650
20,558667	0,5	-0,638900
20,567000	0,5	-0,631000
20,575333	0,5	-0,627450
20,583667	0,5	-0,627750
20,592000	0,5	-0,635600
20,600333	0,5	-0,652950
20,608667	0,5	-0,640100
20,617000	0,5	-0,635900
20,625333	0,5	-0,634950
20,633667	0,5	-0,633900
20,642000	0,5	-0,632250
20,650333	0,5	-0,631550
20,658667	0,5	-0,623900
20,667000	0,5	-0,619650
20,675333	0,5	-0,614400
20,683667	0,5	-0,616750
20,692000	0,5	-0,598650
20,700333	0,5	-0,594200
20,708667	0,5	-0,602900
20,717000	0,5	-0,596000
20,725333	0,5	-0,594750
20,733667	0,5	-0,593300
20,742000	0,5	-0,602850
20,750333	0,5	-0,613150
20,758667	0,5	-0,602650
20,767000	0,5	-0,595900
20,775333	0,5	-0,592100
20,783667	0,5	-0,586900
20,792000	0,5	-0,582950
20,800333	0,5	-0,580750
20,808667	0,5	-0,574050
20,817000	0,5	-0,561550
20,825333	0,5	-0,562050
20,833667	0,5	-0,542100
20,842000	0,5	-0,527950
20,850333	0,5	-0,515450
20,858667	0,5	-0,517000
20,867000	0,5	-0,510800
20,875333	0,5	-0,507250
20,883667	0,5	-0,508850
20,892000	0,5	-0,515550
20,900333	0,5	-0,520700
20,908667	0,5	-0,507750
20,917000	0,5	-0,498200
20,925333	0,5	-0,497950
20,933667	0,5	-0,488050
20,942000	0,5	-0,481900
20,950333	0,5	-0,480450
20,958667	0,5	-0,472650
20,967000	0,5	-0,471700
20,975333	0,5	-0,463250
20,983667	0,5	-0,447550
20,992000	0,5	-0,431800
21,000333	0,5	-0,439600
21,008667	0,5	-0,434450
21,017000	0,5	-0,430850
21,025333	0,5	-0,428400
21,033667	0,5	-0,439600
21,042000	0,5	-0,438150
21,050333	0,5	-0,430800
21,058667	0,5	-0,420150
21,067000	0,5	-0,413800
21,075333	0,5	-0,403900
21,083667	0,5	-0,397900
21,092000	0,5	-0,388250
21,100333	0,5	-0,387000
21,108667	0,5	-0,380450
21,117000	0,5	-0,369300
21,125333	0,5	-0,361700
21,133667	0,5	-0,338750
21,142000	0,5	-0,333600
21,150333	0,5	-0,331150
21,158667	0,5	-0,326400
21,167000	0,5	-0,329900
21,175333	0,5	-0,332950
21,183667	0,5	-0,340850
21,192000	0,5	-0,341450
21,200333	0,5	-0,339950
21,208667	0,5	-0,330750
21,217000	0,5	-0,318250
21,225333	0,5	-0,315400
21,233667	0,5	-0,303850
21,242000	0,5	-0,298500
21,250333	0,5	-0,288250
21,258667	0,5	-0,275950
21,267000	0,5	-0,265500
21,275333	0,5	-0,234850
21,283667	0,5	-0,208750
21,292000	0,5	-0,199100
21,300333	0,5	-0,191500
21,308667	0,5	-0,167850
21,317000	0,5	-0,151550
21,325333	0,5	-0,130450
21,333667	0,5	-0,125900
21,342000	0,5	-0,102200
21,350333	0,5	-0,094450
21,358667	0,5	-0,098350
21,367000	0,5	-0,098300
21,375333	0,5	-0,095450
21,383667	0,5	-0,094950
21,392000	0,5	-0,090250
21,400333	0,5	-0,085550
21,408667	0,5	-0,074250
21,417000	0,5	-0,051550
21,425333	0,5	-0,016950
21,433667	0,5	0,002750
21,442000	0,5	-0,001250
21,450333	0,5	0,001300
21,458667	0,5	0,001300
21,467000	0,5	-0,004150
21,475333	0,5	-0,012950
21,483667	0,5	-0,004750
21,492000	0,5	0,002350
21,500333	0,5	0,006700
21,508667	0,5	0,019900
21,517000	0,5	0,032450
21,525333	0,5	0,043750
21,533667	0,5	0,056750
21,542000	0,5	0,073500
21,550333	0,5	0,085000
21,558667	0,5	0,103800
21,567000	0,5	0,132100
21,575333	0,5	0,151700
21,583667	0,5	0,159900
21,592000	0,5	0,168300
21,600333	0,5	0,165900
21,608667	0,5	0,176900
21,617000	0,5	0,175800
21,625333	0,5	0,182650
21,633667	0,5	0,206150
21,642000	0,5	0,226750
21,650333	0,5	0,239850
21,658667	0,5	0,253000
21,667000	0,5	0,265400
21,675333	0,5	0,281300
21,683667	0,5	0,300000
21,692000	0,5	0,316450
21,700333	0,5	0,328050
21,708667	0,5	0,348400
21,717000	0,5	0,383150
21,725333	0,5	0,402900
21,733667	0,5	0,408050
21,742000	0,5	0,423800
21,750333	0,5	0,436800
21,758667	0,5	0,445850
21,767000	0,5	0,454850
21,775333	0,5	0,460150
21,783667	0,5	0,487200
21,792000	0,5	0,502850
21,800333	0,5	0,524850
21,808667	0,5	0,550100
21,817000	0,5	0,575250
21,825333	0,5	0,601500
21,833667	0,5	0,626700
21,842000	0,5	0,659200
21,850333	0,5	0,681800
21,858667	0,5	0,726500
21,867000	0,5	0,764250
21,875333	0,5	0,787650
21,883667	0,5	0,812400
21,892000	0,5	0,837150
21,900333	0,5	0,849900
21,908667	0,5	0,868550
21,917000	0,5	0,880550
21,925333	0,5	0,895250
21,933667	0,5	0,912950
21,942000	0,5	0,932100
21,950333	0,5	0,950350
21,958667	0,5	0,966450
21,967000	0,5	0,986000
21,975333	0,5	1,003550
21,983667	0,5	1,026300
21,992000	0,5	1,040100
22,000333	0,5	1,069850
22,008667	0,5	1,103150
22,017000	0,5	1,122800
22,025333	0,5	1,144700
22,033667	0,5	1,179000
22,042000	0,5	1,195450
22,050333	0,5	1,221900
22,058667	0,5	1,233750
22,067000	0,5	1,258900
22,075333	0,5	1,291950
22,083667	0,5	1,327600
22,092000	0,5	1,356650
22,100333	0,5	1,395100
22,108667	0,5	1,435050
22,117000	0,5	1,465400
22,125333	0,5	1,503800
22,133667	0,5	1,526350
22,142000	0,5	1,553350
22,150333	0,5	1,581000
22,158667	0,5	1,610300
22,167000	0,5	1,625750
22,175333	0,5	1,669900
22,183667	0,5	1,708450
22,192000	0,5	1,733200
22,200333	0,5	1,762750
22,208667	0,5	1,793600
22,217000	0,5	1,835600
22,225333	0,5	1,872450
22,233667	0,5	1,918500
22,242000	0,5	1,958800
22,250333	0,5	2,001350
22,258667	0,5	2,047900
22,267000	0,5	2,107700
22,275333	0,5	2,153950
22,283667	0,5	2,211500
22,292000	0,5	2,255750
22,300333	0,5	2,300600
22,308667	0,5	2,335300
22,317000	0,5	2,401300
22,325333	0,5	2,445650
22,333667	0,5	2,496050
22,342000	0,5	2,533100
22,350333	0,5	2,570550
22,358667	0,5	2,613750
22,367000	0,5	2,670000
22,375333	0,5	2,717400
22,383667	0,5	2,764950
22,392000	0,5	2,815000
22,400333	0,5	2,869700
22,408667	0,5	2,928200
22,417000	0,5	2,979550
22,425333	0,5	3,042800
22,433667	0,5	3,094650
22,442000	0,5	3,137600
22,450333	0,5	3,186850
22,458667	0,5	3,246950
22,467000	0,5	3,323850
22,475333	0,5	3,383700
22,483667	0,5	3,431250
22,492000	0,5	3,476550
22,500333	0,5	3,517250
22,508667	0,5	3,579950
22,517000	0,5	3,632200
22,525333	0,5	3,689350
22,533667	0,5	3,741400
22,542000	0,5	3,791100
22,550333	0,5	3,842700
22,558667	0,5	3,885300
22,567000	0,5	3,938350
22,575333	0,5	3,980050
22,583667	0,5	4,015950
22,592000	0,5	4,015500
22,600333	0,5	4,075900
22,608667	0,5	4,116800
22,617000	0,5	4,163750
22,625333	0,5	4,187200
22,633667	0,5	4,204850
22,642000	0,5	4,208050
22,650333	0,5	4,207900
22,658667	0,5	4,224800
22,667000	0,5	4,225900
22,675333	0,5	4,222700
22,683667	0,5	4,217150
22,692000	0,5	4,215600
22,700333	0,5	4,201500
22,708667	0,5	4,189850
22,717000	0,5	4,161300
22,725333	0,5	4,130650
22,733667	0,5	4,052350
22,742000	0,5	3,994850
22,750333	0,5	3,945100
22,758667	0,5	3,901100
22,767000	0,5	3,829750
22,775333	0,5	3,740450
22,783667	0,5	3,640500
22,792000	0,5	3,535100
22,800333	0,5	3,422100
22,808667	0,5	3,324500
22,817000	0,5	3,214850
22,825333	0,5	3,098250
22,833667	0,5	2,980900
22,842000	0,5	2,865050
22,850333	0,5	2,745600
22,858667	0,5	2,627500
22,867000	0,5	2,507600
22,875333	0,5	2,389000
22,883667	0,5	2,221300
22,892000	0,5	2,104300
22,900333	0,5	2,001250
22,908667	0,5	1,860750
22,917000	0,5	1,721350
22,925333	0,5	1,577250
22,933667	0,5	1,438950
22,942000	0,5	1,297500
22,950333	0,5	1,152750
22,958667	0,5	1,012850
22,967000	0,5	0,878050
22,975333	0,5	0,746450
22,983667	0,5	0,613050
22,992000	0,5	0,489000
23,000333	0,5	0,369250
23,008667	0,5	0,245400
23,017000	0,5	0,136050
23,025333	0,5	0,037200
23,033667	0,5	-0,075000
23,042000	0,5	-0,176500
23,050333	0,5	-0,306900
23,058667	0,5	-0,430100
23,067000	0,5	-0,518650
23,075333	0,5	-0,617550
23,083667	0,5	-0,697300
23,092000	0,5	-0,781000
23,100333	0,5	-0,862100
23,108667	0,5	-0,937750
23,117000	0,5	-1,002050
23,125333	0,5	-1,065050
23,133667	0,5	-1,124650
23,142000	0,5	-1,182450
23,150333	0,5	-1,237550
23,158667	0,5	-1,282900
23,167000	0,5	-1,333150
23,175333	0,5	-1,362650
23,183667	0,5	-1,404250
23,192000	0,5	-1,446050
23,200333	0,5	-1,517750
23,208667	0,5	-1,575000
23,217000	0,5	-1,614050
23,225333	0,5	-1,639300
23,233667	0,5	-1,663400
23,242000	0,5	-1,690800
23,250333	0,5	-1,721650
23,258667	0,5	-1,733850
23,267000	0,5	-1,753050
23,275333	0,5	-1,765200
23,283667	0,5	-1,779100
23,292000	0,5	-1,782900
23,300333	0,5	-1,795300
23,308667	0,5	-1,807450
23,317000	0,5	-1,802950
23,325333	0,5	-1,811100
23,333667	0,5	-1,822550
23,342000	0,5	-1,836000
23,350333	0,5	-1,860050
23,358667	0,5	-1,869350
23,367000	0,5	-1,867150
23,375333	0,5	-1,873400
23,383667	0,5	-1,866350
23,392000	0,5	-1,878050
23,400333	0,5	-1,868900
23,408667	0,5	-1,868450
23,417000	0,5	-1,860650
23,425333	0,5	-1,855350
23,433667	0,5	-1,844200
23,442000	0,5	-1,836800
23,450333	0,5	-1,826250
23,458667	0,5	-1,814150
23,467000	0,5	-1,801800
23,475333	0,5	-1,794000
23,483667	0,5	-1,784700
23,492000	0,5	-1,778250
23,500333	0,5	-1,783650
23,508667	0,5	-1,777750
23,517000	0,5	-1,769500
23,525333	0,5	-1,757900
23,533667	0,5	-1,750050
23,542000	0,5	-1,746550
23,550333	0,5	-1,740650
23,558667	0,5	-1,727550
23,567000	0,5	-1,720100
23,575333	0,5	-1,709250
23,583667	0,5	-1,701600
23,592000	0,5	-1,685600
23,600333	0,5	-1,673850
23,608667	0,5	-1,659350
23,617000	0,5	-1,656200
23,625333	0,5	-1,634650
23,633667	0,5	-1,625100
23,642000	0,5	-1,614000
23,650333	0,5	-1,605450
23,658667	0,5	-1,595350
23,667000	0,5	-1,587750
23,675333	0,5	-1,576350
23,683667	0,5	-1,566950
23,692000	0,5	-1,551350
23,700333	0,5	-1,544000
23,708667	0,5	-1,530250
23,717000	0,5	-1,521250
23,725333	0,5	-1,509700
23,733667	0,5	-1,496750
23,742000	0,5	-1,483350
23,750333	0,5	-1,473500
23,758667	0,5	-1,463950
23,767000	0,5	-1,467400
23,775333	0,5	-1,444250
23,783667	0,5	-1,446850
23,792000	0,5	-1,411500
23,800333	0,5	-1,405150
23,808667	0,5	-1,393400
23,817000	0,5	-1,388000
23,825333	0,5	-1,389250
23,833667	0,5	-1,365600
23,842000	0,5	-1,351550
23,850333	0,5	-1,339700
23,858667	0,5	-1,324800
23,867000	0,5	-1,302850
23,875333	0,5	-1,290800
23,883667	0,5	-1,270650
23,892000	0,5	-1,260800
23,900333	0,5	-1,237550
23,908667	0,5	-1,242000
23,917000	0,5	-1,226450
23,925333	0,5	-1,233050
23,933667	0,5	-1,192350
23,942000	0,5	-1,176100
23,950333	0,5	-1,166800
23,958667	0,5	-1,163200
23,967000	0,5	-1,162500
23,975333	0,5	-1,164050
23,983667	0,5	-1,145000
23,992000	0,5	-1,129400
24,000333	0,5	-1,107900
24,008667	0,5	-1,098700
24,017000	0,5	-1,082050
24,025333	0,5	-1,065850
24,033667	0,5	-1,049350
24,042000	0,5	-1,027500
24,050333	0,5	-1,023400
24,058667	0,5	-1,009850
24,067000	0,5	-0,998200
24,075333	0,5	-1,003250
24,083667	0,5	-0,965150
24,092000	0,5	-0,939100
24,100333	0,5	-0,936750
24,108667	0,5	-0,922400
24,117000	0,5	-0,937650
24,125333	0,5	-0,919600
24,133667	0,5	-0,908750
24,142000	0,5	-0,885000
24,150333	0,5	-0,886900
24,158667	0,5	-0,861700
24,167000	0,5	-0,851650
24,175333	0,5	-0,830900
24,183667	0,5	-0,819350
24,192000	0,5	-0,807800
24,200333	0,5	-0,797800
24,208667	0,5	-0,807600
24,217000	0,5	-0,785000
24,225333	0,5	-0,787600
24,233667	0,5	-0,747250
24,242000	0,5	-0,731450
24,250333	0,5	-0,727250
24,258667	0,5	-0,720800
24,267000	0,5	-0,721900
24,275333	0,5	-0,705750
24,283667	0,5	-0,686450
24,292000	0,5	-0,680950
24,300333	0,5	-0,661000
24,308667	0,5	-0,656700
24,317000	0,5	-0,640550
24,325333	0,5	-0,623400
24,333667	0,5	-0,611600
24,342000	0,5	-0,604800
24,350333	0,5	-0,610550
24,358667	0,5	-0,589100
24,367000	0,5	-0,590600
24,375333	0,5	-0,582900
24,383667	0,5	-0,553150
24,392000	0,5	-0,545050
24,400333	0,5	-0,542750
24,408667	0,5	-0,546150
24,417000	0,5	-0,548150
24,425333	0,5	-0,520100
24,433667	0,5	-0,518550
24,442000	0,5	-0,512300
24,450333	0,5	-0,508150
24,458667	0,5	-0,488350
24,467000	0,5	-0,480800
24,475333	0,5	-0,459500
24,483667	0,5	-0,452250
24,492000	0,5	-0,441850
24,500333	0,5	-0,445250
24,508667	0,5	-0,426100
24,517000	0,5	-0,437900
24,525333	0,5	-0,409000
24,533667	0,5	-0,397600
24,542000	0,5	-0,397050
24,550333	0,5	-0,393950
24,558667	0,5	-0,399500
24,567000	0,5	-0,395300
24,575333	0,5	-0,386400
24,583667	0,5	-0,374550
24,592000	0,5	-0,371600
24,600333	0,5	-0,361150
24,608667	0,5	-0,356050
24,617000	0,5	-0,344300
24,625333	0,5	-0,339000
24,633667	0,5	-0,330450
24,642000	0,5	-0,331550
24,650333	0,5	-0,327400
24,658667	0,5	-0,313650
24,667000	0,5	-0,310500
24,675333	0,5	-0,294450
24,683667	0,5	-0,282850
24,692000	0,5	-0,280100
24,700333	0,5	-0,282850
24,708667	0,5	-0,294300
24,717000	0,5	-0,283250
24,725333	0,5	-0,271850
24,733667	0,5	-0,271150
24,742000	0,5	-0,269750
24,750333	0,5	-0,262700
24,758667	0,5	-0,254100
24,767000	0,5	-0,250550
24,775333	0,5	-0,242650
24,783667	0,5	-0,238900
24,792000	0,5	-0,231050
24,800333	0,5	-0,226550
24,808667	0,5	-0,224200
24,817000	0,5	-0,226550
24,825333	0,5	-0,210800
24,833667	0,5	-0,209050
24,842000	0,5	-0,205400
24,850333	0,5	-0,212800
24,858667	0,5	-0,215750
24,867000	0,5	-0,211600
24,875333	0,5	-0,202550
24,883667	0,5	-0,196750
24,892000	0,5	-0,191050
24,900333	0,5	-0,185150
24,908667	0,5	-0,181700
24,917000	0,5	-0,176450
24,925333	0,5	-0,168650
24,933667	0,5	-0,169550
24,942000	0,5	-0,168350
24,950333	0,5	-0,157650
24,958667	0,5	-0,164700
24,967000	0,5	-0,156850
24,975333	0,5	-0,151350
24,983667	0,5	-0,149300
24,992000	0,5	-0,151300
25,000333	0,5	-0,153550
25,008667	0,5	-0,156700
25,017000	0,5	-0,151050
25,025333	0,5	-0,148600
25,033667	0,5	-0,144950
25,042000	0,5	-0,141500
25,050333	0,5	-0,140150
25,058667	0,5	-0,134600
25,067000	0,5	-0,130950
25,075333	0,5	-0,127250
25,083667	0,5	-0,122650
25,092000	0,5	-0,116050
25,100333	0,5	-0,110650
25,108667	0,5	-0,118650
25,117000	0,5	-0,112900
25,125333	0,5	-0,110600
25,133667	0,5	-0,113200
25,142000	0,5	-0,113450
25,150333	0,5	-0,116750
25,158667	0,5	-0,116650
25,167000	0,5	-0,113350
25,175333	0,5	-0,111100
25,183667	0,5	-0,110450
25,192000	0,5	-0,107200
25,200333	0,5	-0,105550
25,208667	0,5	-0,103150
25,217000	0,5	-0,100550
25,225333	0,5	-0,099700
25,233667	0,5	-0,099900
25,242000	0,5	-0,095450
25,250333	0,5	-0,091000
25,258667	0,5	-0,094800
25,267000	0,5	-0,089300
25,275333	0,5	-0,087350
25,283667	0,5	-0,085150
25,292000	0,5	-0,090250
25,300333	0,5	-0,091250
25,308667	0,5	-0,088000
25,317000	0,5	-0,087600
25,325333	0,5	-0,089000
25,333667	0,5	-0,085100
25,342000	0,5	-0,088300
25,350333	0,5	-0,083500
25,358667	0,5	-0,085300
25,367000	0,5	-0,081800
25,375333	0,5	-0,082100
25,383667	0,5	-0,083350
25,392000	0,5	-0,081600
25,400333	0,5	-0,080600
25,408667	0,5	-0,078650
25,417000	0,5	-0,080600
25,425333	0,5	-0,078350
25,433667	0,5	-0,076500
25,442000	0,5	-0,076050
25,450333	0,5	-0,074800
25,458667	0,5	-0,076800
25,467000	0,5	-0,074850
25,475333	0,5	-0,075900
25,483667	0,5	-0,074550
25,492000	0,5	-0,075750
25,500333	0,5	-0,072550
25,508667	0,5	-0,073400
25,517000	0,5	-0,074050
25,525333	0,5	-0,074300
25,533667	0,5	-0,075250
25,542000	0,5	-0,076350
25,550333	0,5	-0,070850
25,558667	0,5	-0,073400
25,567000	0,5	-0,073950
25,575333	0,5	-0,071900
25,583667	0,5	-0,070200
25,592000	0,5	-0,071250
25,600333	0,5	-0,068000
25,608667	0,5	-0,069700
25,617000	0,5	-0,064550
25,625333	0,5	-0,065550
25,633667	0,5	-0,067950
25,642000	0,5	-0,065700
25,650333	0,5	-0,065400
25,658667	0,5	-0,065650
25,667000	0,5	-0,067600
25,675333	0,5	-0,066700
25,683667	0,5	-0,067400
25,692000	0,5	-0,067550
25,700333	0,5	-0,065700
25,708667	0,5	-0,068950
25,717000	0,5	-0,066200
25,725333	0,5	-0,068200
25,733667	0,5	-0,063850
25,742000	0,5	-0,061350
25,750333	0,5	-0,059000
25,758667	0,5	-0,057400
25,767000	0,5	-0,059850
25,775333	0,5	-0,056700
25,783667	0,5	-0,055750
25,792000	0,5	-0,053300
25,800333	0,5	-0,057750
25,808667	0,5	-0,057300
25,817000	0,5	-0,056700
25,825333	0,5	-0,056850
25,833667	0,5	-0,054000
25,842000	0,5	-0,056100
25,850333	0,5	-0,055000
25,858667	0,5	-0,060100
25,867000	0,5	-0,056900
25,875333	0,5	-0,059050
25,883667	0,5	-0,050250
25,892000	0,5	-0,046400
25,900333	0,5	-0,048200
25,908667	0,5	-0,047550
25,917000	0,5	-0,044100
25,925333	0,5	-0,044950
25,933667	0,5	-0,044400
25,942000	0,5	-0,044550
25,950333	0,5	-0,042850
25,958667	0,5	-0,044600
25,967000	0,5	-0,045950
25,975333	0,5	-0,042650
25,983667	0,5	-0,041950
25,992000	0,5	-0,039950
26,000333	0,5	-0,044550
