File Path	chrom://chromeleon01/ikbm_chromeleon/2022/ICS-5000/ED1/Esteban/20220612_Cell_7_4_eg.seq/158.smp/ED_1.channel/ED_1.chm
Channel	ED_1

Injection Information:
Data Vault	ikbm_chromeleon
Injection	CelS2_04h-EGS_3
Injection Number	93
Position	GE2
Comment	
Processing Method	Stop sequence after Cell Death
Instrument Method	ICS5000_PA200_FullNative_Ox_26min_ED1
Type	Unknown
Status	Finished
Injection Date	14.06.2022
Injection Time	11:55:21
Injection Volume (µl)	5,0
Dilution Factor	1,0000
Weight	1,0000

Chromatogram Data Information:
Time Min. (min)	0,000333
Time Max. (min)	26,000333
Data Points	3121
Detector	EDet1
Generating Data System	Chromeleon 7.2.9.11323
Exporting Data System	Chromeleon 7.2.9.0
Operator	Instrument Controller
Signal Quantity	
Signal Unit	nC
Signal Min.	-2,830300
Signal Max.	120,524952
Channel	ED_1
Driver Name	DC-5000
Channel Type	Evaluation
Min. Step (s)	0,5
Max. Step (s)	0,5
Average Step (s)	0,5

Signal Parameter Information:
Signal Info	

Chromatogram Data:
Time (min)	Step (s)	Value (nC)
0,000333	n.a.	-0,076600
0,008667	0,5	-0,082800
0,017000	0,5	-0,076050
0,025333	0,5	-0,056850
0,033667	0,5	-0,075750
0,042000	0,5	-2,275900
0,050333	0,5	0,082700
0,058667	0,5	-0,013450
0,067000	0,5	0,007550
0,075333	0,5	-0,053400
0,083667	0,5	-0,861450
0,092000	0,5	-0,093400
0,100333	0,5	-0,113900
0,108667	0,5	-0,082250
0,117000	0,5	-0,044700
0,125333	0,5	-0,054950
0,133667	0,5	-0,048750
0,142000	0,5	-0,046600
0,150333	0,5	-0,044000
0,158667	0,5	-0,049000
0,167000	0,5	-0,035500
0,175333	0,5	-0,058150
0,183667	0,5	-0,064550
0,192000	0,5	-0,066100
0,200333	0,5	-0,050350
0,208667	0,5	-0,075850
0,217000	0,5	-0,084050
0,225333	0,5	-0,048500
0,233667	0,5	-0,120600
0,242000	0,5	-0,147950
0,250333	0,5	-0,068850
0,258667	0,5	-0,062850
0,267000	0,5	-0,039150
0,275333	0,5	-0,058900
0,283667	0,5	-0,036250
0,292000	0,5	-0,038150
0,300333	0,5	-0,032600
0,308667	0,5	-0,019000
0,317000	0,5	-0,048200
0,325333	0,5	-0,066800
0,333667	0,5	-0,070750
0,342000	0,5	-0,070950
0,350333	0,5	-0,063600
0,358667	0,5	-0,078850
0,367000	0,5	-0,049050
0,375333	0,5	-0,073950
0,383667	0,5	-0,078200
0,392000	0,5	-0,076100
0,400333	0,5	-0,091400
0,408667	0,5	-0,051750
0,417000	0,5	-0,049600
0,425333	0,5	-0,050350
0,433667	0,5	-0,066700
0,442000	0,5	-0,044850
0,450333	0,5	-0,053450
0,458667	0,5	-0,057300
0,467000	0,5	-0,073200
0,475333	0,5	-0,056500
0,483667	0,5	-0,086350
0,492000	0,5	-0,090800
0,500333	0,5	-0,068700
0,508667	0,5	-0,069500
0,517000	0,5	-0,041850
0,525333	0,5	-0,068050
0,533667	0,5	-0,073900
0,542000	0,5	-0,078550
0,550333	0,5	-0,067550
0,558667	0,5	-0,042950
0,567000	0,5	-0,034450
0,575333	0,5	-0,055900
0,583667	0,5	-0,045800
0,592000	0,5	-0,038800
0,600333	0,5	-0,045800
0,608667	0,5	-0,044750
0,617000	0,5	-0,044850
0,625333	0,5	-0,045300
0,633667	0,5	-0,044750
0,642000	0,5	-0,040500
0,650333	0,5	-0,038700
0,658667	0,5	-0,050900
0,667000	0,5	-0,011350
0,675333	0,5	-0,055200
0,683667	0,5	-0,065050
0,692000	0,5	-0,056250
0,700333	0,5	-0,036600
0,708667	0,5	-0,001850
0,717000	0,5	-0,031950
0,725333	0,5	-0,019950
0,733667	0,5	-0,026450
0,742000	0,5	-0,012350
0,750333	0,5	-0,010650
0,758667	0,5	-0,010050
0,767000	0,5	-0,022700
0,775333	0,5	-0,016250
0,783667	0,5	-0,019700
0,792000	0,5	-0,017550
0,800333	0,5	-0,024100
0,808667	0,5	-0,008200
0,817000	0,5	0,002050
0,825333	0,5	-0,016350
0,833667	0,5	-0,020800
0,842000	0,5	-0,007350
0,850333	0,5	-0,002450
0,858667	0,5	0,029200
0,867000	0,5	0,017500
0,875333	0,5	0,021200
0,883667	0,5	0,012800
0,892000	0,5	0,020200
0,900333	0,5	0,021550
0,908667	0,5	0,021150
0,917000	0,5	0,016700
0,925333	0,5	0,010100
0,933667	0,5	0,017300
0,942000	0,5	0,017950
0,950333	0,5	0,024450
0,958667	0,5	0,041950
0,967000	0,5	0,028250
0,975333	0,5	0,001850
0,983667	0,5	0,007950
0,992000	0,5	0,013900
1,000333	0,5	0,045300
1,008667	0,5	0,055950
1,017000	0,5	0,060300
1,025333	0,5	0,049500
1,033667	0,5	0,054950
1,042000	0,5	0,042850
1,050333	0,5	0,042600
1,058667	0,5	0,040350
1,067000	0,5	0,040600
1,075333	0,5	0,039350
1,083667	0,5	0,039400
1,092000	0,5	0,048650
1,100333	0,5	0,043350
1,108667	0,5	0,063650
1,117000	0,5	0,041900
1,125333	0,5	0,034900
1,133667	0,5	0,033650
1,142000	0,5	0,048300
1,150333	0,5	0,066300
1,158667	0,5	0,079850
1,167000	0,5	0,065300
1,175333	0,5	0,072700
1,183667	0,5	0,066800
1,192000	0,5	0,072550
1,200333	0,5	0,061700
1,208667	0,5	0,064600
1,217000	0,5	0,058200
1,225333	0,5	0,061950
1,233667	0,5	0,066650
1,242000	0,5	0,055250
1,250333	0,5	0,067750
1,258667	0,5	0,078750
1,267000	0,5	0,056100
1,275333	0,5	0,051400
1,283667	0,5	0,055200
1,292000	0,5	0,071300
1,300333	0,5	0,089400
1,308667	0,5	0,081950
1,317000	0,5	0,093350
1,325333	0,5	0,084600
1,333667	0,5	0,089700
1,342000	0,5	0,079900
1,350333	0,5	0,083650
1,358667	0,5	0,076600
1,367000	0,5	0,080950
1,375333	0,5	0,076650
1,383667	0,5	0,073900
1,392000	0,5	0,060300
1,400333	0,5	0,085300
1,408667	0,5	0,076750
1,417000	0,5	0,064400
1,425333	0,5	0,063100
1,433667	0,5	0,068550
1,442000	0,5	0,092650
1,450333	0,5	0,094550
1,458667	0,5	0,084950
1,467000	0,5	0,082650
1,475333	0,5	0,090250
1,483667	0,5	0,085600
1,492000	0,5	0,088100
1,500333	0,5	0,078050
1,508667	0,5	0,078050
1,517000	0,5	0,069200
1,525333	0,5	0,073600
1,533667	0,5	0,074000
1,542000	0,5	0,062100
1,550333	0,5	0,075100
1,558667	0,5	0,020300
1,567000	0,5	-0,154250
1,575333	0,5	-0,573850
1,583667	0,5	-1,099000
1,592000	0,5	-1,138950
1,600333	0,5	0,016400
1,608667	0,5	3,433100
1,617000	0,5	10,491850
1,625333	0,5	20,691300
1,633667	0,5	29,830750
1,642000	0,5	33,216000
1,650333	0,5	30,307200
1,658667	0,5	24,337700
1,667000	0,5	18,523550
1,675333	0,5	14,159000
1,683667	0,5	11,289400
1,692000	0,5	9,501700
1,700333	0,5	8,515250
1,708667	0,5	8,024700
1,717000	0,5	7,870000
1,725333	0,5	7,639350
1,733667	0,5	7,169950
1,742000	0,5	6,563900
1,750333	0,5	5,971000
1,758667	0,5	5,509800
1,767000	0,5	5,221300
1,775333	0,5	5,183450
1,783667	0,5	5,546100
1,792000	0,5	6,282450
1,800333	0,5	7,154750
1,808667	0,5	7,835650
1,817000	0,5	8,131750
1,825333	0,5	8,019700
1,833667	0,5	7,578450
1,842000	0,5	7,028050
1,850333	0,5	6,535800
1,858667	0,5	6,126150
1,867000	0,5	5,831000
1,875333	0,5	5,546200
1,883667	0,5	5,234700
1,892000	0,5	4,938150
1,900333	0,5	4,655650
1,908667	0,5	4,445950
1,917000	0,5	4,260200
1,925333	0,5	4,093800
1,933667	0,5	3,940750
1,942000	0,5	3,870000
1,950333	0,5	3,909200
1,958667	0,5	4,007950
1,967000	0,5	4,048300
1,975333	0,5	3,921700
1,983667	0,5	3,732300
1,992000	0,5	3,613700
2,000333	0,5	3,634450
2,008667	0,5	3,891950
2,017000	0,5	4,615400
2,025333	0,5	6,245400
2,033667	0,5	9,348650
2,042000	0,5	13,544550
2,050333	0,5	16,948950
2,058667	0,5	17,523500
2,067000	0,5	15,435850
2,075333	0,5	12,525850
2,083667	0,5	10,318300
2,092000	0,5	9,142750
2,100333	0,5	8,652900
2,108667	0,5	8,302350
2,117000	0,5	7,772300
2,125333	0,5	7,095600
2,133667	0,5	6,500250
2,142000	0,5	6,117750
2,150333	0,5	5,947950
2,158667	0,5	6,037300
2,167000	0,5	6,467550
2,175333	0,5	7,142100
2,183667	0,5	7,740850
2,192000	0,5	7,898000
2,200333	0,5	7,609400
2,208667	0,5	7,184250
2,217000	0,5	6,809500
2,225333	0,5	6,507750
2,233667	0,5	6,243800
2,242000	0,5	6,024550
2,250333	0,5	5,836850
2,258667	0,5	5,726350
2,267000	0,5	5,678550
2,275333	0,5	5,700650
2,283667	0,5	5,770200
2,292000	0,5	5,847150
2,300333	0,5	5,843400
2,308667	0,5	5,830950
2,317000	0,5	5,824250
2,325333	0,5	5,855100
2,333667	0,5	5,911750
2,342000	0,5	5,981900
2,350333	0,5	6,104750
2,358667	0,5	6,238350
2,367000	0,5	6,349500
2,375333	0,5	6,407150
2,383667	0,5	6,445100
2,392000	0,5	6,468500
2,400333	0,5	6,504400
2,408667	0,5	6,537300
2,417000	0,5	6,568650
2,425333	0,5	6,572750
2,433667	0,5	6,604600
2,442000	0,5	6,616850
2,450333	0,5	6,620700
2,458667	0,5	6,627600
2,467000	0,5	6,648800
2,475333	0,5	6,684350
2,483667	0,5	6,728100
2,492000	0,5	6,784000
2,500333	0,5	6,885100
2,508667	0,5	6,986250
2,517000	0,5	7,057350
2,525333	0,5	7,041350
2,533667	0,5	6,925700
2,542000	0,5	6,765050
2,550333	0,5	6,618550
2,558667	0,5	6,529150
2,567000	0,5	6,460500
2,575333	0,5	6,401300
2,583667	0,5	6,372500
2,592000	0,5	6,320750
2,600333	0,5	6,276600
2,608667	0,5	6,246700
2,617000	0,5	6,226950
2,625333	0,5	6,231950
2,633667	0,5	6,224850
2,642000	0,5	6,228400
2,650333	0,5	6,247000
2,658667	0,5	6,296400
2,667000	0,5	6,371500
2,675333	0,5	6,526050
2,683667	0,5	6,815300
2,692000	0,5	7,366600
2,700333	0,5	8,250400
2,708667	0,5	9,388150
2,717000	0,5	10,511450
2,725333	0,5	11,249150
2,733667	0,5	11,491350
2,742000	0,5	11,269850
2,750333	0,5	10,936850
2,758667	0,5	10,773950
2,767000	0,5	11,016900
2,775333	0,5	11,805750
2,783667	0,5	13,335850
2,792000	0,5	16,086900
2,800333	0,5	21,191350
2,808667	0,5	30,405750
2,817000	0,5	45,744101
2,825333	0,5	67,388651
2,833667	0,5	91,717101
2,842000	0,5	111,756802
2,850333	0,5	120,524952
2,858667	0,5	115,934502
2,867000	0,5	101,149202
2,875333	0,5	81,969851
2,883667	0,5	63,389501
2,892000	0,5	48,025251
2,900333	0,5	36,596051
2,908667	0,5	28,621500
2,917000	0,5	23,293650
2,925333	0,5	19,808150
2,933667	0,5	17,448400
2,942000	0,5	15,759650
2,950333	0,5	14,429400
2,958667	0,5	13,357000
2,967000	0,5	12,450550
2,975333	0,5	11,644500
2,983667	0,5	10,804750
2,992000	0,5	9,915200
3,000333	0,5	8,990350
3,008667	0,5	8,086050
3,017000	0,5	7,287800
3,025333	0,5	6,638250
3,033667	0,5	6,087400
3,042000	0,5	5,632000
3,050333	0,5	5,269300
3,058667	0,5	4,971450
3,067000	0,5	4,741400
3,075333	0,5	4,533050
3,083667	0,5	4,347650
3,092000	0,5	4,165950
3,100333	0,5	4,013350
3,108667	0,5	3,861300
3,117000	0,5	3,725200
3,125333	0,5	3,595800
3,133667	0,5	3,484850
3,142000	0,5	3,383950
3,150333	0,5	3,323550
3,158667	0,5	3,286400
3,167000	0,5	3,291150
3,175333	0,5	3,325250
3,183667	0,5	3,323200
3,192000	0,5	3,277600
3,200333	0,5	3,198000
3,208667	0,5	3,062250
3,217000	0,5	2,916650
3,225333	0,5	2,745350
3,233667	0,5	2,572700
3,242000	0,5	2,435300
3,250333	0,5	2,327350
3,258667	0,5	2,250200
3,267000	0,5	2,194900
3,275333	0,5	2,162700
3,283667	0,5	2,143400
3,292000	0,5	2,145050
3,300333	0,5	2,149000
3,308667	0,5	2,161300
3,317000	0,5	2,187000
3,325333	0,5	2,265500
3,333667	0,5	2,346100
3,342000	0,5	2,479250
3,350333	0,5	2,624950
3,358667	0,5	2,741350
3,367000	0,5	2,780450
3,375333	0,5	2,692650
3,383667	0,5	2,522450
3,392000	0,5	2,313450
3,400333	0,5	2,088600
3,408667	0,5	1,896500
3,417000	0,5	1,738450
3,425333	0,5	1,626300
3,433667	0,5	1,549250
3,442000	0,5	1,500450
3,450333	0,5	1,476350
3,458667	0,5	1,432050
3,467000	0,5	1,413000
3,475333	0,5	1,380350
3,483667	0,5	1,334650
3,492000	0,5	1,290050
3,500333	0,5	1,266850
3,508667	0,5	1,239450
3,517000	0,5	1,219300
3,525333	0,5	1,173800
3,533667	0,5	1,153300
3,542000	0,5	1,124750
3,550333	0,5	1,116350
3,558667	0,5	1,098850
3,567000	0,5	1,094300
3,575333	0,5	1,082900
3,583667	0,5	1,072600
3,592000	0,5	1,063100
3,600333	0,5	1,040400
3,608667	0,5	1,014500
3,617000	0,5	1,012900
3,625333	0,5	0,994100
3,633667	0,5	0,970100
3,642000	0,5	0,954400
3,650333	0,5	0,597800
3,658667	0,5	0,985750
3,667000	0,5	0,972100
3,675333	0,5	0,965000
3,683667	0,5	0,968250
3,692000	0,5	0,975850
3,700333	0,5	0,974700
3,708667	0,5	0,983050
3,717000	0,5	0,970550
3,725333	0,5	0,968850
3,733667	0,5	0,957800
3,742000	0,5	0,944250
3,750333	0,5	0,927550
3,758667	0,5	0,899750
3,767000	0,5	0,889150
3,775333	0,5	0,853050
3,783667	0,5	0,825200
3,792000	0,5	0,805900
3,800333	0,5	0,803750
3,808667	0,5	0,816000
3,817000	0,5	0,809650
3,825333	0,5	0,792550
3,833667	0,5	0,794850
3,842000	0,5	0,788300
3,850333	0,5	0,795450
3,858667	0,5	0,793900
3,867000	0,5	0,807100
3,875333	0,5	0,819700
3,883667	0,5	0,839800
3,892000	0,5	0,883850
3,900333	0,5	0,946900
3,908667	0,5	1,026550
3,917000	0,5	1,166100
3,925333	0,5	1,314700
3,933667	0,5	1,503950
3,942000	0,5	1,720200
3,950333	0,5	1,934350
3,958667	0,5	2,098500
3,967000	0,5	2,172550
3,975333	0,5	2,150850
3,983667	0,5	2,041700
3,992000	0,5	1,872250
4,000333	0,5	1,660350
4,008667	0,5	1,454050
4,017000	0,5	1,265250
4,025333	0,5	1,115100
4,033667	0,5	0,996400
4,042000	0,5	0,909700
4,050333	0,5	0,844050
4,058667	0,5	0,816950
4,067000	0,5	0,781700
4,075333	0,5	0,744350
4,083667	0,5	0,729050
4,092000	0,5	0,708000
4,100333	0,5	0,721950
4,108667	0,5	0,726500
4,117000	0,5	0,717200
4,125333	0,5	0,708100
4,133667	0,5	0,698200
4,142000	0,5	0,692800
4,150333	0,5	0,685650
4,158667	0,5	0,684650
4,167000	0,5	0,683500
4,175333	0,5	0,680850
4,183667	0,5	0,686500
4,192000	0,5	0,684350
4,200333	0,5	0,689550
4,208667	0,5	0,713900
4,217000	0,5	0,712500
4,225333	0,5	0,705600
4,233667	0,5	0,718300
4,242000	0,5	0,726200
4,250333	0,5	0,756350
4,258667	0,5	0,751400
4,267000	0,5	0,754900
4,275333	0,5	0,746850
4,283667	0,5	0,755750
4,292000	0,5	0,752750
4,300333	0,5	0,763500
4,308667	0,5	0,763600
4,317000	0,5	0,765450
4,325333	0,5	0,767800
4,333667	0,5	0,769150
4,342000	0,5	0,779200
4,350333	0,5	0,771650
4,358667	0,5	0,784000
4,367000	0,5	0,762400
4,375333	0,5	0,761750
4,383667	0,5	0,775650
4,392000	0,5	0,810650
4,400333	0,5	0,858800
4,408667	0,5	0,899200
4,417000	0,5	0,956450
4,425333	0,5	1,043750
4,433667	0,5	1,138950
4,442000	0,5	1,265350
4,450333	0,5	1,412400
4,458667	0,5	1,590700
4,467000	0,5	1,810150
4,475333	0,5	2,077550
4,483667	0,5	2,418450
4,492000	0,5	2,819800
4,500333	0,5	3,331050
4,508667	0,5	3,950850
4,517000	0,5	4,655550
4,525333	0,5	5,471550
4,533667	0,5	6,356900
4,542000	0,5	7,256550
4,550333	0,5	8,084300
4,558667	0,5	8,719650
4,567000	0,5	9,129600
4,575333	0,5	9,225750
4,583667	0,5	9,006950
4,592000	0,5	8,477900
4,600333	0,5	7,717000
4,608667	0,5	6,794850
4,617000	0,5	5,828650
4,625333	0,5	4,887050
4,633667	0,5	4,040300
4,642000	0,5	3,306050
4,650333	0,5	2,732750
4,658667	0,5	2,278750
4,667000	0,5	1,931150
4,675333	0,5	1,685350
4,683667	0,5	1,523150
4,692000	0,5	1,420200
4,700333	0,5	1,353500
4,708667	0,5	1,305800
4,717000	0,5	1,282200
4,725333	0,5	1,280100
4,733667	0,5	1,281950
4,742000	0,5	1,301750
4,750333	0,5	1,320050
4,758667	0,5	1,349900
4,767000	0,5	1,388550
4,775333	0,5	1,453650
4,783667	0,5	1,530150
4,792000	0,5	1,638550
4,800333	0,5	1,775950
4,808667	0,5	1,917750
4,817000	0,5	2,068000
4,825333	0,5	2,226100
4,833667	0,5	2,358850
4,842000	0,5	2,455250
4,850333	0,5	2,472250
4,858667	0,5	2,421100
4,867000	0,5	2,312550
4,875333	0,5	2,159800
4,883667	0,5	1,973850
4,892000	0,5	1,781300
4,900333	0,5	1,601600
4,908667	0,5	1,438100
4,917000	0,5	1,308600
4,925333	0,5	1,199100
4,933667	0,5	1,124450
4,942000	0,5	1,058400
4,950333	0,5	1,016600
4,958667	0,5	0,964350
4,967000	0,5	0,937650
4,975333	0,5	0,915800
4,983667	0,5	0,913100
4,992000	0,5	0,909900
5,000333	0,5	0,902600
5,008667	0,5	0,888050
5,017000	0,5	0,887200
5,025333	0,5	0,878900
5,033667	0,5	0,873400
5,042000	0,5	0,867800
5,050333	0,5	0,860000
5,058667	0,5	0,855250
5,067000	0,5	0,848350
5,075333	0,5	0,848800
5,083667	0,5	0,840150
5,092000	0,5	0,850000
5,100333	0,5	0,843150
5,108667	0,5	0,829750
5,117000	0,5	0,829600
5,125333	0,5	0,834750
5,133667	0,5	0,852200
5,142000	0,5	0,868800
5,150333	0,5	0,871300
5,158667	0,5	0,887750
5,167000	0,5	0,893400
5,175333	0,5	0,908700
5,183667	0,5	0,875650
5,192000	0,5	0,876800
5,200333	0,5	0,958750
5,208667	0,5	0,979800
5,217000	0,5	1,013700
5,225333	0,5	1,045000
5,233667	0,5	1,091050
5,242000	0,5	1,141100
5,250333	0,5	1,254500
5,258667	0,5	1,373100
5,267000	0,5	1,556700
5,275333	0,5	1,801150
5,283667	0,5	2,104250
5,292000	0,5	2,515150
5,300333	0,5	2,964100
5,308667	0,5	3,430000
5,317000	0,5	3,891400
5,325333	0,5	4,276150
5,333667	0,5	4,548600
5,342000	0,5	4,660300
5,350333	0,5	4,620450
5,358667	0,5	4,427900
5,367000	0,5	4,122800
5,375333	0,5	3,742950
5,383667	0,5	3,338200
5,392000	0,5	2,948600
5,400333	0,5	2,561700
5,408667	0,5	2,231700
5,417000	0,5	1,962400
5,425333	0,5	1,745650
5,433667	0,5	1,581050
5,442000	0,5	1,433350
5,450333	0,5	1,273800
5,458667	0,5	1,237250
5,467000	0,5	1,169800
5,475333	0,5	1,118700
5,483667	0,5	1,072850
5,492000	0,5	1,045300
5,500333	0,5	1,012550
5,508667	0,5	0,995750
5,517000	0,5	0,977500
5,525333	0,5	0,957450
5,533667	0,5	0,949950
5,542000	0,5	0,953900
5,550333	0,5	0,932950
5,558667	0,5	0,928650
5,567000	0,5	0,929700
5,575333	0,5	0,935100
5,583667	0,5	0,947100
5,592000	0,5	0,935100
5,600333	0,5	0,927550
5,608667	0,5	0,919100
5,617000	0,5	0,909600
5,625333	0,5	0,902900
5,633667	0,5	0,890400
5,642000	0,5	0,868400
5,650333	0,5	0,846650
5,658667	0,5	0,827750
5,667000	0,5	0,799700
5,675333	0,5	0,758650
5,683667	0,5	0,742150
5,692000	0,5	0,709400
5,700333	0,5	0,678400
5,708667	0,5	0,649650
5,717000	0,5	0,630750
5,725333	0,5	0,617050
5,733667	0,5	0,607550
5,742000	0,5	0,591100
5,750333	0,5	0,572100
5,758667	0,5	0,563400
5,767000	0,5	0,559650
5,775333	0,5	0,539200
5,783667	0,5	0,538000
5,792000	0,5	0,526800
5,800333	0,5	0,522950
5,808667	0,5	0,521850
5,817000	0,5	0,505100
5,825333	0,5	0,508550
5,833667	0,5	0,514100
5,842000	0,5	0,510950
5,850333	0,5	0,497600
5,858667	0,5	0,492950
5,867000	0,5	0,490900
5,875333	0,5	0,498200
5,883667	0,5	0,486050
5,892000	0,5	0,477650
5,900333	0,5	0,462500
5,908667	0,5	0,461500
5,917000	0,5	0,447200
5,925333	0,5	0,446200
5,933667	0,5	0,445400
5,942000	0,5	0,459600
5,950333	0,5	0,477200
5,958667	0,5	0,492850
5,967000	0,5	0,516250
5,975333	0,5	0,531100
5,983667	0,5	0,553450
5,992000	0,5	0,546200
6,000333	0,5	0,530800
6,008667	0,5	0,510000
6,017000	0,5	0,496000
6,025333	0,5	0,482500
6,033667	0,5	0,456900
6,042000	0,5	0,429700
6,050333	0,5	0,421650
6,058667	0,5	0,409900
6,067000	0,5	0,408400
6,075333	0,5	0,415550
6,083667	0,5	0,429100
6,092000	0,5	0,445300
6,100333	0,5	0,461950
6,108667	0,5	0,476400
6,117000	0,5	0,477400
6,125333	0,5	0,485050
6,133667	0,5	0,476150
6,142000	0,5	0,453150
6,150333	0,5	0,437800
6,158667	0,5	0,429150
6,167000	0,5	0,420750
6,175333	0,5	0,417050
6,183667	0,5	0,400650
6,192000	0,5	0,395300
6,200333	0,5	0,377900
6,208667	0,5	0,368350
6,217000	0,5	0,348850
6,225333	0,5	0,336950
6,233667	0,5	0,322450
6,242000	0,5	0,316400
6,250333	0,5	0,310150
6,258667	0,5	0,296450
6,267000	0,5	0,286100
6,275333	0,5	0,297050
6,283667	0,5	0,284650
6,292000	0,5	0,271750
6,300333	0,5	0,264050
6,308667	0,5	0,262550
6,317000	0,5	0,278150
6,325333	0,5	0,273650
6,333667	0,5	0,271500
6,342000	0,5	0,272200
6,350333	0,5	0,273900
6,358667	0,5	0,276800
6,367000	0,5	0,282850
6,375333	0,5	0,283400
6,383667	0,5	0,294900
6,392000	0,5	0,301750
6,400333	0,5	0,313350
6,408667	0,5	0,315900
6,417000	0,5	0,327900
6,425333	0,5	0,342500
6,433667	0,5	0,335300
6,442000	0,5	0,329800
6,450333	0,5	0,329000
6,458667	0,5	0,327200
6,467000	0,5	0,341600
6,475333	0,5	0,340600
6,483667	0,5	0,344600
6,492000	0,5	0,361350
6,500333	0,5	0,374200
6,508667	0,5	0,385500
6,517000	0,5	0,391700
6,525333	0,5	0,394350
6,533667	0,5	0,389050
6,542000	0,5	0,385700
6,550333	0,5	0,379800
6,558667	0,5	0,373950
6,567000	0,5	0,363750
6,575333	0,5	0,366350
6,583667	0,5	0,349300
6,592000	0,5	0,347600
6,600333	0,5	0,348550
6,608667	0,5	0,359400
6,617000	0,5	0,371000
6,625333	0,5	0,367500
6,633667	0,5	0,375050
6,642000	0,5	0,379050
6,650333	0,5	0,379000
6,658667	0,5	0,383850
6,667000	0,5	0,383450
6,675333	0,5	0,386400
6,683667	0,5	0,389400
6,692000	0,5	0,393150
6,700333	0,5	0,396450
6,708667	0,5	0,395150
6,717000	0,5	0,405150
6,725333	0,5	0,411600
6,733667	0,5	0,405300
6,742000	0,5	0,408650
6,750333	0,5	0,416400
6,758667	0,5	0,431450
6,767000	0,5	0,445150
6,775333	0,5	0,448500
6,783667	0,5	0,456450
6,792000	0,5	0,458650
6,800333	0,5	0,463900
6,808667	0,5	0,466050
6,817000	0,5	0,469500
6,825333	0,5	0,469350
6,833667	0,5	0,474900
6,842000	0,5	0,481800
6,850333	0,5	0,481950
6,858667	0,5	0,488750
6,867000	0,5	0,499750
6,875333	0,5	0,497350
6,883667	0,5	0,494550
6,892000	0,5	0,497550
6,900333	0,5	0,504350
6,908667	0,5	0,527900
6,917000	0,5	0,543650
6,925333	0,5	0,570900
6,933667	0,5	0,606150
6,942000	0,5	0,668550
6,950333	0,5	0,752350
6,958667	0,5	0,879700
6,967000	0,5	1,035300
6,975333	0,5	1,222550
6,983667	0,5	1,416600
6,992000	0,5	1,589200
7,000333	0,5	1,710750
7,008667	0,5	1,773450
7,017000	0,5	1,758400
7,025333	0,5	1,672350
7,033667	0,5	1,544800
7,042000	0,5	1,394600
7,050333	0,5	1,245500
7,058667	0,5	1,103350
7,067000	0,5	0,973950
7,075333	0,5	0,855500
7,083667	0,5	0,768150
7,092000	0,5	0,698800
7,100333	0,5	0,658100
7,108667	0,5	0,629300
7,117000	0,5	0,622400
7,125333	0,5	0,610300
7,133667	0,5	0,606350
7,142000	0,5	0,593100
7,150333	0,5	0,573900
7,158667	0,5	0,562700
7,167000	0,5	0,546300
7,175333	0,5	0,525950
7,183667	0,5	0,516100
7,192000	0,5	0,512600
7,200333	0,5	0,523900
7,208667	0,5	0,532800
7,217000	0,5	0,536700
7,225333	0,5	0,542850
7,233667	0,5	0,549350
7,242000	0,5	0,561450
7,250333	0,5	0,577150
7,258667	0,5	0,602400
7,267000	0,5	0,626700
7,275333	0,5	0,657150
7,283667	0,5	0,679050
7,292000	0,5	0,694350
7,300333	0,5	0,698050
7,308667	0,5	0,707650
7,317000	0,5	0,698700
7,325333	0,5	0,688750
7,333667	0,5	0,689000
7,342000	0,5	0,701150
7,350333	0,5	0,729650
7,358667	0,5	0,764850
7,367000	0,5	0,797650
7,375333	0,5	0,834000
7,383667	0,5	0,854800
7,392000	0,5	0,862050
7,400333	0,5	0,840800
7,408667	0,5	0,805650
7,417000	0,5	0,761650
7,425333	0,5	0,716200
7,433667	0,5	0,683400
7,442000	0,5	0,656950
7,450333	0,5	0,647550
7,458667	0,5	0,678000
7,467000	0,5	0,724300
7,475333	0,5	0,820250
7,483667	0,5	0,978350
7,492000	0,5	1,207050
7,500333	0,5	1,514300
7,508667	0,5	1,867100
7,517000	0,5	2,267900
7,525333	0,5	2,695350
7,533667	0,5	3,152950
7,542000	0,5	3,645050
7,550333	0,5	4,245000
7,558667	0,5	5,080850
7,567000	0,5	6,426100
7,575333	0,5	8,716850
7,583667	0,5	12,549650
7,592000	0,5	18,506650
7,600333	0,5	26,736750
7,608667	0,5	36,499851
7,617000	0,5	45,953151
7,625333	0,5	52,915201
7,633667	0,5	55,665551
7,642000	0,5	53,740051
7,650333	0,5	47,929151
7,658667	0,5	39,781901
7,667000	0,5	30,985650
7,675333	0,5	22,899300
7,683667	0,5	16,310300
7,692000	0,5	11,438750
7,700333	0,5	8,078100
7,708667	0,5	5,856800
7,717000	0,5	4,412700
7,725333	0,5	3,470300
7,733667	0,5	2,844650
7,742000	0,5	2,410650
7,750333	0,5	2,107100
7,758667	0,5	1,890650
7,767000	0,5	1,734550
7,775333	0,5	1,614350
7,783667	0,5	1,523900
7,792000	0,5	1,446650
7,800333	0,5	1,397000
7,808667	0,5	1,363250
7,817000	0,5	1,364650
7,825333	0,5	1,380350
7,833667	0,5	1,391750
7,842000	0,5	1,371850
7,850333	0,5	1,317550
7,858667	0,5	1,236050
7,867000	0,5	1,151700
7,875333	0,5	1,070800
7,883667	0,5	0,993150
7,892000	0,5	0,926300
7,900333	0,5	0,876550
7,908667	0,5	0,831700
7,917000	0,5	0,804150
7,925333	0,5	0,797000
7,933667	0,5	0,808250
7,942000	0,5	0,833100
7,950333	0,5	0,846600
7,958667	0,5	0,844500
7,967000	0,5	0,821700
7,975333	0,5	0,790700
7,983667	0,5	0,749550
7,992000	0,5	0,710250
8,000333	0,5	0,676900
8,008667	0,5	0,642400
8,017000	0,5	0,620100
8,025333	0,5	0,611850
8,033667	0,5	0,610050
8,042000	0,5	0,622100
8,050333	0,5	0,627550
8,058667	0,5	0,620250
8,067000	0,5	0,604300
8,075333	0,5	0,596250
8,083667	0,5	0,603400
8,092000	0,5	0,627550
8,100333	0,5	0,673350
8,108667	0,5	0,723900
8,117000	0,5	0,769200
8,125333	0,5	0,782600
8,133667	0,5	0,765550
8,142000	0,5	0,720550
8,150333	0,5	0,667700
8,158667	0,5	0,619300
8,167000	0,5	0,581300
8,175333	0,5	0,545600
8,183667	0,5	0,520550
8,192000	0,5	0,499250
8,200333	0,5	0,484650
8,208667	0,5	0,472650
8,217000	0,5	0,470800
8,225333	0,5	0,480800
8,233667	0,5	0,491500
8,242000	0,5	0,512650
8,250333	0,5	0,524250
8,258667	0,5	0,530950
8,267000	0,5	0,533850
8,275333	0,5	0,529950
8,283667	0,5	0,518700
8,292000	0,5	0,511000
8,300333	0,5	0,503500
8,308667	0,5	0,504050
8,317000	0,5	0,509150
8,325333	0,5	0,517900
8,333667	0,5	0,526100
8,342000	0,5	0,531050
8,350333	0,5	0,529750
8,358667	0,5	0,515450
8,367000	0,5	0,494100
8,375333	0,5	0,476000
8,383667	0,5	0,462650
8,392000	0,5	0,451250
8,400333	0,5	0,450400
8,408667	0,5	0,460350
8,417000	0,5	0,480100
8,425333	0,5	0,522700
8,433667	0,5	0,580400
8,442000	0,5	0,661100
8,450333	0,5	0,753600
8,458667	0,5	0,844200
8,467000	0,5	0,903100
8,475333	0,5	0,916350
8,483667	0,5	0,889550
8,492000	0,5	0,842700
8,500333	0,5	0,784600
8,508667	0,5	0,728900
8,517000	0,5	0,681500
8,525333	0,5	0,638650
8,533667	0,5	0,611550
8,542000	0,5	0,587950
8,550333	0,5	0,579200
8,558667	0,5	0,591850
8,567000	0,5	0,629750
8,575333	0,5	0,695800
8,583667	0,5	0,783000
8,592000	0,5	0,883550
8,600333	0,5	0,989600
8,608667	0,5	1,094250
8,617000	0,5	1,193100
8,625333	0,5	1,304550
8,633667	0,5	1,450000
8,642000	0,5	1,650850
8,650333	0,5	1,924050
8,658667	0,5	2,275350
8,667000	0,5	2,696100
8,675333	0,5	3,170250
8,683667	0,5	3,700450
8,692000	0,5	4,327250
8,700333	0,5	5,191300
8,708667	0,5	6,628500
8,717000	0,5	9,299000
8,725333	0,5	14,172450
8,733667	0,5	22,115600
8,742000	0,5	32,988900
8,750333	0,5	44,887451
8,758667	0,5	54,521151
8,767000	0,5	58,783701
8,775333	0,5	56,439601
8,783667	0,5	48,631751
8,792000	0,5	38,022701
8,800333	0,5	27,373900
8,808667	0,5	18,509500
8,817000	0,5	12,075650
8,825333	0,5	7,857700
8,833667	0,5	5,280250
8,842000	0,5	3,758050
8,850333	0,5	2,860700
8,858667	0,5	2,317150
8,867000	0,5	1,976300
8,875333	0,5	1,750850
8,883667	0,5	1,592250
8,892000	0,5	1,479400
8,900333	0,5	1,391700
8,908667	0,5	1,326150
8,917000	0,5	1,273200
8,925333	0,5	1,226500
8,933667	0,5	1,194450
8,942000	0,5	1,166300
8,950333	0,5	1,144150
8,958667	0,5	1,124600
8,967000	0,5	1,110350
8,975333	0,5	1,102100
8,983667	0,5	1,093450
8,992000	0,5	1,090000
9,000333	0,5	1,085250
9,008667	0,5	1,084750
9,017000	0,5	1,083550
9,025333	0,5	1,081900
9,033667	0,5	1,081850
9,042000	0,5	1,088150
9,050333	0,5	1,100350
9,058667	0,5	1,114750
9,067000	0,5	1,125400
9,075333	0,5	1,135350
9,083667	0,5	1,143900
9,092000	0,5	1,131100
9,100333	0,5	1,109250
9,108667	0,5	1,084200
9,117000	0,5	1,058450
9,125333	0,5	1,039400
9,133667	0,5	1,021900
9,142000	0,5	1,007500
9,150333	0,5	0,995350
9,158667	0,5	0,973200
9,167000	0,5	0,946100
9,175333	0,5	0,919600
9,183667	0,5	0,889050
9,192000	0,5	0,867550
9,200333	0,5	0,849700
9,208667	0,5	0,839600
9,217000	0,5	0,836250
9,225333	0,5	0,835900
9,233667	0,5	0,841300
9,242000	0,5	0,846150
9,250333	0,5	0,856650
9,258667	0,5	0,869350
9,267000	0,5	0,885750
9,275333	0,5	0,910600
9,283667	0,5	0,932950
9,292000	0,5	0,957200
9,300333	0,5	0,984800
9,308667	0,5	1,017550
9,317000	0,5	1,047150
9,325333	0,5	1,070450
9,333667	0,5	1,091300
9,342000	0,5	1,109950
9,350333	0,5	1,143950
9,358667	0,5	1,187450
9,367000	0,5	1,231050
9,375333	0,5	1,257050
9,383667	0,5	1,254150
9,392000	0,5	1,219600
9,400333	0,5	1,162200
9,408667	0,5	1,108400
9,417000	0,5	1,059650
9,425333	0,5	1,017050
9,433667	0,5	0,985500
9,442000	0,5	0,964750
9,450333	0,5	0,946500
9,458667	0,5	0,939850
9,467000	0,5	0,935650
9,475333	0,5	0,937200
9,483667	0,5	0,938850
9,492000	0,5	0,935600
9,500333	0,5	0,934150
9,508667	0,5	0,932250
9,517000	0,5	0,931450
9,525333	0,5	0,933300
9,533667	0,5	0,945850
9,542000	0,5	0,954700
9,550333	0,5	0,972550
9,558667	0,5	0,997750
9,567000	0,5	1,026700
9,575333	0,5	1,058400
9,583667	0,5	1,086900
9,592000	0,5	1,103350
9,600333	0,5	1,105650
9,608667	0,5	1,086700
9,617000	0,5	1,061200
9,625333	0,5	1,029400
9,633667	0,5	1,000000
9,642000	0,5	0,980800
9,650333	0,5	0,967200
9,658667	0,5	0,959550
9,667000	0,5	0,961900
9,675333	0,5	0,974100
9,683667	0,5	0,993250
9,692000	0,5	1,018250
9,700333	0,5	1,049950
9,708667	0,5	1,086100
9,717000	0,5	1,119350
9,725333	0,5	1,151250
9,733667	0,5	1,170700
9,742000	0,5	1,179900
9,750333	0,5	1,178350
9,758667	0,5	1,171200
9,767000	0,5	1,154700
9,775333	0,5	1,140800
9,783667	0,5	1,135100
9,792000	0,5	1,136850
9,800333	0,5	1,151800
9,808667	0,5	1,177250
9,817000	0,5	1,221300
9,825333	0,5	1,288500
9,833667	0,5	1,375150
9,842000	0,5	1,482150
9,850333	0,5	1,608350
9,858667	0,5	1,746100
9,867000	0,5	1,882900
9,875333	0,5	2,002600
9,883667	0,5	2,087550
9,892000	0,5	2,126000
9,900333	0,5	2,110300
9,908667	0,5	2,042900
9,917000	0,5	1,935050
9,925333	0,5	1,803300
9,933667	0,5	1,668400
9,942000	0,5	1,554100
9,950333	0,5	1,463350
9,958667	0,5	1,408750
9,967000	0,5	1,381850
9,975333	0,5	1,377100
9,983667	0,5	1,376050
9,992000	0,5	1,368450
10,000333	0,5	1,345750
10,008667	0,5	1,313600
10,017000	0,5	1,276150
10,025333	0,5	1,243250
10,033667	0,5	1,219150
10,042000	0,5	1,208450
10,050333	0,5	1,205350
10,058667	0,5	1,203050
10,067000	0,5	1,208300
10,075333	0,5	1,207300
10,083667	0,5	1,207050
10,092000	0,5	1,201250
10,100333	0,5	1,206200
10,108667	0,5	1,208450
10,117000	0,5	1,221600
10,125333	0,5	1,242900
10,133667	0,5	1,256650
10,142000	0,5	1,263200
10,150333	0,5	1,260700
10,158667	0,5	1,250100
10,167000	0,5	1,226050
10,175333	0,5	1,196000
10,183667	0,5	1,164450
10,192000	0,5	1,134150
10,200333	0,5	1,110350
10,208667	0,5	1,093000
10,217000	0,5	1,081100
10,225333	0,5	1,074500
10,233667	0,5	1,075150
10,242000	0,5	1,080050
10,250333	0,5	1,083850
10,258667	0,5	1,087400
10,267000	0,5	1,097600
10,275333	0,5	1,107400
10,283667	0,5	1,121150
10,292000	0,5	1,138600
10,300333	0,5	1,159350
10,308667	0,5	1,189350
10,317000	0,5	1,216400
10,325333	0,5	1,231000
10,333667	0,5	1,232850
10,342000	0,5	1,224650
10,350333	0,5	1,208950
10,358667	0,5	1,192150
10,367000	0,5	1,177000
10,375333	0,5	1,163400
10,383667	0,5	1,147200
10,392000	0,5	1,133050
10,400333	0,5	1,114850
10,408667	0,5	1,091250
10,417000	0,5	1,078600
10,425333	0,5	1,064000
10,433667	0,5	1,044250
10,442000	0,5	1,037300
10,450333	0,5	1,023350
10,458667	0,5	1,017350
10,467000	0,5	1,015800
10,475333	0,5	1,015950
10,483667	0,5	1,016200
10,492000	0,5	1,019000
10,500333	0,5	1,025100
10,508667	0,5	1,025450
10,517000	0,5	1,022800
10,525333	0,5	1,016600
10,533667	0,5	1,007250
10,542000	0,5	1,002900
10,550333	0,5	0,999900
10,558667	0,5	1,001900
10,567000	0,5	1,017900
10,575333	0,5	1,038200
10,583667	0,5	1,073150
10,592000	0,5	1,108450
10,600333	0,5	1,152100
10,608667	0,5	1,198400
10,617000	0,5	1,229650
10,625333	0,5	1,239650
10,633667	0,5	1,229900
10,642000	0,5	1,205350
10,650333	0,5	1,160800
10,658667	0,5	1,115900
10,667000	0,5	1,068200
10,675333	0,5	1,027450
10,683667	0,5	0,993050
10,692000	0,5	0,966350
10,700333	0,5	0,936600
10,708667	0,5	0,915450
10,717000	0,5	0,900500
10,725333	0,5	0,888100
10,733667	0,5	0,875300
10,742000	0,5	0,866650
10,750333	0,5	0,861150
10,758667	0,5	0,856800
10,767000	0,5	0,855300
10,775333	0,5	0,853850
10,783667	0,5	0,852050
10,792000	0,5	0,853450
10,800333	0,5	0,857750
10,808667	0,5	0,867600
10,817000	0,5	0,884500
10,825333	0,5	0,906050
10,833667	0,5	0,943550
10,842000	0,5	0,984200
10,850333	0,5	1,032700
10,858667	0,5	1,082600
10,867000	0,5	1,119950
10,875333	0,5	1,136350
10,883667	0,5	1,136750
10,892000	0,5	1,106550
10,900333	0,5	1,069600
10,908667	0,5	1,022550
10,917000	0,5	0,972150
10,925333	0,5	0,929400
10,933667	0,5	0,896700
10,942000	0,5	0,870150
10,950333	0,5	0,850600
10,958667	0,5	0,845300
10,967000	0,5	0,839350
10,975333	0,5	0,844950
10,983667	0,5	0,847800
10,992000	0,5	0,851350
11,000333	0,5	0,855850
11,008667	0,5	0,868800
11,017000	0,5	0,880850
11,025333	0,5	0,893500
11,033667	0,5	0,905700
11,042000	0,5	0,931500
11,050333	0,5	0,969900
11,058667	0,5	1,021400
11,067000	0,5	1,083850
11,075333	0,5	1,165850
11,083667	0,5	1,249000
11,092000	0,5	1,330750
11,100333	0,5	1,390500
11,108667	0,5	1,419200
11,117000	0,5	1,409900
11,125333	0,5	1,369200
11,133667	0,5	1,307500
11,142000	0,5	1,228050
11,150333	0,5	1,147100
11,158667	0,5	1,081950
11,167000	0,5	1,020450
11,175333	0,5	0,967750
11,183667	0,5	0,926600
11,192000	0,5	0,898600
11,200333	0,5	0,880400
11,208667	0,5	0,861600
11,217000	0,5	0,849950
11,225333	0,5	0,843100
11,233667	0,5	0,840400
11,242000	0,5	0,843750
11,250333	0,5	0,851050
11,258667	0,5	0,865750
11,267000	0,5	0,877850
11,275333	0,5	0,893450
11,283667	0,5	0,911550
11,292000	0,5	0,912450
11,300333	0,5	0,914950
11,308667	0,5	0,910100
11,317000	0,5	0,899900
11,325333	0,5	0,888300
11,333667	0,5	0,883650
11,342000	0,5	0,884000
11,350333	0,5	0,893800
11,358667	0,5	0,896900
11,367000	0,5	0,903150
11,375333	0,5	0,898900
11,383667	0,5	0,886500
11,392000	0,5	0,868150
11,400333	0,5	0,845750
11,408667	0,5	0,823500
11,417000	0,5	0,805900
11,425333	0,5	0,793200
11,433667	0,5	0,784350
11,442000	0,5	0,782850
11,450333	0,5	0,793700
11,458667	0,5	0,805250
11,467000	0,5	0,810150
11,475333	0,5	0,812450
11,483667	0,5	0,807250
11,492000	0,5	0,807250
11,500333	0,5	0,806600
11,508667	0,5	0,806050
11,517000	0,5	0,799850
11,525333	0,5	0,803000
11,533667	0,5	0,804950
11,542000	0,5	0,808950
11,550333	0,5	0,816150
11,558667	0,5	0,825100
11,567000	0,5	0,841250
11,575333	0,5	0,862800
11,583667	0,5	0,901100
11,592000	0,5	0,938300
11,600333	0,5	0,999400
11,608667	0,5	1,053500
11,617000	0,5	1,106700
11,625333	0,5	1,146800
11,633667	0,5	1,168850
11,642000	0,5	1,180950
11,650333	0,5	1,175000
11,658667	0,5	1,153150
11,667000	0,5	1,124750
11,675333	0,5	1,093900
11,683667	0,5	1,066750
11,692000	0,5	1,038600
11,700333	0,5	1,009800
11,708667	0,5	0,985200
11,717000	0,5	0,956700
11,725333	0,5	0,934200
11,733667	0,5	0,907850
11,742000	0,5	0,892300
11,750333	0,5	0,880800
11,758667	0,5	0,868600
11,767000	0,5	0,862250
11,775333	0,5	0,853550
11,783667	0,5	0,848200
11,792000	0,5	0,847200
11,800333	0,5	0,845850
11,808667	0,5	0,846700
11,817000	0,5	0,851250
11,825333	0,5	0,851200
11,833667	0,5	0,855250
11,842000	0,5	0,857850
11,850333	0,5	0,856850
11,858667	0,5	0,851500
11,867000	0,5	0,849500
11,875333	0,5	0,840950
11,883667	0,5	0,826750
11,892000	0,5	0,822750
11,900333	0,5	0,830350
11,908667	0,5	0,836450
11,917000	0,5	0,859050
11,925333	0,5	0,889450
11,933667	0,5	0,940850
11,942000	0,5	0,997750
11,950333	0,5	1,065750
11,958667	0,5	1,117200
11,967000	0,5	1,153300
11,975333	0,5	1,161650
11,983667	0,5	1,149200
11,992000	0,5	1,107400
12,000333	0,5	1,052950
12,008667	0,5	0,995900
12,017000	0,5	0,937100
12,025333	0,5	0,884450
12,033667	0,5	0,849250
12,042000	0,5	0,831650
12,050333	0,5	0,822350
12,058667	0,5	0,818350
12,067000	0,5	0,820900
12,075333	0,5	0,823600
12,083667	0,5	0,830150
12,092000	0,5	0,839150
12,100333	0,5	0,828400
12,108667	0,5	0,827500
12,117000	0,5	0,813500
12,125333	0,5	0,805300
12,133667	0,5	0,789850
12,142000	0,5	0,773650
12,150333	0,5	0,755850
12,158667	0,5	0,744150
12,167000	0,5	0,736000
12,175333	0,5	0,724700
12,183667	0,5	0,722350
12,192000	0,5	0,724350
12,200333	0,5	0,726950
12,208667	0,5	0,719200
12,217000	0,5	0,717000
12,225333	0,5	0,714900
12,233667	0,5	0,721850
12,242000	0,5	0,722650
12,250333	0,5	0,728700
12,258667	0,5	0,734100
12,267000	0,5	0,744900
12,275333	0,5	0,759250
12,283667	0,5	0,780200
12,292000	0,5	0,802050
12,300333	0,5	0,822000
12,308667	0,5	0,844300
12,317000	0,5	0,862600
12,325333	0,5	0,859900
12,333667	0,5	0,864250
12,342000	0,5	0,857900
12,350333	0,5	0,844900
12,358667	0,5	0,824600
12,367000	0,5	0,801850
12,375333	0,5	0,789800
12,383667	0,5	0,776250
12,392000	0,5	0,760200
12,400333	0,5	0,747950
12,408667	0,5	0,737200
12,417000	0,5	0,725200
12,425333	0,5	0,716250
12,433667	0,5	0,704900
12,442000	0,5	0,694100
12,450333	0,5	0,677950
12,458667	0,5	0,668400
12,467000	0,5	0,663850
12,475333	0,5	0,654050
12,483667	0,5	0,655500
12,492000	0,5	0,656250
12,500333	0,5	0,659100
12,508667	0,5	0,662550
12,517000	0,5	0,664950
12,525333	0,5	0,679550
12,533667	0,5	0,697250
12,542000	0,5	0,709850
12,550333	0,5	0,715400
12,558667	0,5	0,716550
12,567000	0,5	0,714550
12,575333	0,5	0,697550
12,583667	0,5	0,682350
12,592000	0,5	0,658750
12,600333	0,5	0,635550
12,608667	0,5	0,613800
12,617000	0,5	0,603700
12,625333	0,5	0,584550
12,633667	0,5	0,583350
12,642000	0,5	0,576600
12,650333	0,5	0,567500
12,658667	0,5	0,559000
12,667000	0,5	0,559800
12,675333	0,5	0,561150
12,683667	0,5	0,564700
12,692000	0,5	0,566950
12,700333	0,5	0,573600
12,708667	0,5	0,576600
12,717000	0,5	0,583600
12,725333	0,5	0,585250
12,733667	0,5	0,586050
12,742000	0,5	0,586350
12,750333	0,5	0,583000
12,758667	0,5	0,587550
12,767000	0,5	0,582800
12,775333	0,5	0,590300
12,783667	0,5	0,602400
12,792000	0,5	0,609150
12,800333	0,5	0,622450
12,808667	0,5	0,634600
12,817000	0,5	0,648850
12,825333	0,5	0,677400
12,833667	0,5	0,692700
12,842000	0,5	0,712200
12,850333	0,5	0,725550
12,858667	0,5	0,732050
12,867000	0,5	0,728800
12,875333	0,5	0,715550
12,883667	0,5	0,703150
12,892000	0,5	0,680700
12,900333	0,5	0,664700
12,908667	0,5	0,640400
12,917000	0,5	0,618450
12,925333	0,5	0,603500
12,933667	0,5	0,595150
12,942000	0,5	0,580900
12,950333	0,5	0,577800
12,958667	0,5	0,571250
12,967000	0,5	0,578250
12,975333	0,5	0,587100
12,983667	0,5	0,594750
12,992000	0,5	0,598950
13,000333	0,5	0,600100
13,008667	0,5	0,596050
13,017000	0,5	0,595350
13,025333	0,5	0,592150
13,033667	0,5	0,589850
13,042000	0,5	0,583400
13,050333	0,5	0,583850
13,058667	0,5	0,570150
13,067000	0,5	0,558800
13,075333	0,5	0,557550
13,083667	0,5	0,552300
13,092000	0,5	0,552250
13,100333	0,5	0,552150
13,108667	0,5	0,559350
13,117000	0,5	0,573500
13,125333	0,5	0,580750
13,133667	0,5	0,578650
13,142000	0,5	0,573350
13,150333	0,5	0,562200
13,158667	0,5	0,554750
13,167000	0,5	0,537850
13,175333	0,5	0,530600
13,183667	0,5	0,523600
13,192000	0,5	0,529450
13,200333	0,5	0,542950
13,208667	0,5	0,549400
13,217000	0,5	0,564000
13,225333	0,5	0,581450
13,233667	0,5	0,580900
13,242000	0,5	0,571800
13,250333	0,5	0,562850
13,258667	0,5	0,560450
13,267000	0,5	0,566150
13,275333	0,5	0,569500
13,283667	0,5	0,574900
13,292000	0,5	0,575700
13,300333	0,5	0,579700
13,308667	0,5	0,578400
13,317000	0,5	0,573950
13,325333	0,5	0,562450
13,333667	0,5	0,552800
13,342000	0,5	0,544150
13,350333	0,5	0,538550
13,358667	0,5	0,520050
13,367000	0,5	0,524450
13,375333	0,5	0,519900
13,383667	0,5	0,513000
13,392000	0,5	0,505200
13,400333	0,5	0,496050
13,408667	0,5	0,501300
13,417000	0,5	0,500900
13,425333	0,5	0,500350
13,433667	0,5	0,501200
13,442000	0,5	0,497300
13,450333	0,5	0,493450
13,458667	0,5	0,492800
13,467000	0,5	0,488550
13,475333	0,5	0,485700
13,483667	0,5	0,479600
13,492000	0,5	0,482700
13,500333	0,5	0,477250
13,508667	0,5	0,455100
13,517000	0,5	0,441500
13,525333	0,5	0,424000
13,533667	0,5	0,405050
13,542000	0,5	0,386150
13,550333	0,5	0,360500
13,558667	0,5	0,352200
13,567000	0,5	0,336200
13,575333	0,5	0,318600
13,583667	0,5	0,298400
13,592000	0,5	0,269000
13,600333	0,5	0,172150
13,608667	0,5	-0,016050
13,617000	0,5	-0,233100
13,625333	0,5	-0,419000
13,633667	0,5	-0,547200
13,642000	0,5	-0,630000
13,650333	0,5	-0,682850
13,658667	0,5	-0,721000
13,667000	0,5	-0,731050
13,675333	0,5	-0,748550
13,683667	0,5	-0,760550
13,692000	0,5	-0,782000
13,700333	0,5	-0,794250
13,708667	0,5	-0,801500
13,717000	0,5	-0,803750
13,725333	0,5	-0,815300
13,733667	0,5	-0,817950
13,742000	0,5	-0,823400
13,750333	0,5	-0,823850
13,758667	0,5	-0,823650
13,767000	0,5	-0,823600
13,775333	0,5	-0,823800
13,783667	0,5	-0,822800
13,792000	0,5	-0,815150
13,800333	0,5	-0,816450
13,808667	0,5	-0,806450
13,817000	0,5	-0,794450
13,825333	0,5	-0,789000
13,833667	0,5	-0,785700
13,842000	0,5	-0,781900
13,850333	0,5	-0,774100
13,858667	0,5	-0,756450
13,867000	0,5	-0,750350
13,875333	0,5	-0,739150
13,883667	0,5	-0,735100
13,892000	0,5	-0,727750
13,900333	0,5	-0,725700
13,908667	0,5	-0,727150
13,917000	0,5	-0,727150
13,925333	0,5	-0,725750
13,933667	0,5	-0,718050
13,942000	0,5	-0,716400
13,950333	0,5	-0,721650
13,958667	0,5	-0,707400
13,967000	0,5	-0,698300
13,975333	0,5	-0,694000
13,983667	0,5	-0,694100
13,992000	0,5	-0,694500
14,000333	0,5	-0,686950
14,008667	0,5	-0,684950
14,017000	0,5	-0,678150
14,025333	0,5	-0,679600
14,033667	0,5	-0,671150
14,042000	0,5	-0,667550
14,050333	0,5	-0,656300
14,058667	0,5	-0,649500
14,067000	0,5	-0,643150
14,075333	0,5	-0,634100
14,083667	0,5	-0,618400
14,092000	0,5	-0,618650
14,100333	0,5	-0,604800
14,108667	0,5	-0,589600
14,117000	0,5	-0,577050
14,125333	0,5	-0,567500
14,133667	0,5	-0,564700
14,142000	0,5	-0,553950
14,150333	0,5	-0,541850
14,158667	0,5	-0,526700
14,167000	0,5	-0,515200
14,175333	0,5	-0,501350
14,183667	0,5	-0,485900
14,192000	0,5	-0,464550
14,200333	0,5	-0,450100
14,208667	0,5	-0,430600
14,217000	0,5	-0,419300
14,225333	0,5	-0,401900
14,233667	0,5	-0,380550
14,242000	0,5	-0,373750
14,250333	0,5	-0,348350
14,258667	0,5	-0,322100
14,267000	0,5	-0,307150
14,275333	0,5	-0,289650
14,283667	0,5	-0,285900
14,292000	0,5	-0,259650
14,300333	0,5	-0,239400
14,308667	0,5	-0,223800
14,317000	0,5	-0,202650
14,325333	0,5	-0,187700
14,333667	0,5	-0,170500
14,342000	0,5	-0,152400
14,350333	0,5	-0,131700
14,358667	0,5	-0,119550
14,367000	0,5	-0,099200
14,375333	0,5	-0,087300
14,383667	0,5	-0,061150
14,392000	0,5	-0,062600
14,400333	0,5	-0,039600
14,408667	0,5	-0,024450
14,417000	0,5	-0,013900
14,425333	0,5	-0,006150
14,433667	0,5	-0,006800
14,442000	0,5	0,008150
14,450333	0,5	0,018350
14,458667	0,5	0,027000
14,467000	0,5	0,033050
14,475333	0,5	0,035750
14,483667	0,5	0,042200
14,492000	0,5	0,048800
14,500333	0,5	0,047500
14,508667	0,5	0,047350
14,517000	0,5	0,045350
14,525333	0,5	0,049950
14,533667	0,5	0,042200
14,542000	0,5	0,034400
14,550333	0,5	0,046250
14,558667	0,5	0,034800
14,567000	0,5	0,031650
14,575333	0,5	0,021900
14,583667	0,5	0,007750
14,592000	0,5	0,010350
14,600333	0,5	0,008900
14,608667	0,5	0,008800
14,617000	0,5	0,005600
14,625333	0,5	0,004600
14,633667	0,5	0,002150
14,642000	0,5	0,002100
14,650333	0,5	-0,000750
14,658667	0,5	-0,006800
14,667000	0,5	-0,001650
14,675333	0,5	-0,002750
14,683667	0,5	-0,009100
14,692000	0,5	-0,006500
14,700333	0,5	0,000950
14,708667	0,5	-0,000700
14,717000	0,5	-0,002550
14,725333	0,5	-0,015150
14,733667	0,5	-0,015500
14,742000	0,5	-0,017300
14,750333	0,5	-0,010450
14,758667	0,5	-0,017050
14,767000	0,5	-0,019050
14,775333	0,5	-0,025700
14,783667	0,5	-0,031450
14,792000	0,5	-0,037000
14,800333	0,5	-0,035650
14,808667	0,5	-0,040500
14,817000	0,5	-0,043950
14,825333	0,5	-0,044250
14,833667	0,5	-0,053700
14,842000	0,5	-0,045900
14,850333	0,5	-0,044100
14,858667	0,5	-0,050400
14,867000	0,5	-0,058250
14,875333	0,5	-0,068250
14,883667	0,5	-0,069250
14,892000	0,5	-0,061250
14,900333	0,5	-0,067400
14,908667	0,5	-0,063850
14,917000	0,5	-0,064550
14,925333	0,5	-0,062800
14,933667	0,5	-0,059550
14,942000	0,5	-0,051000
14,950333	0,5	-0,046650
14,958667	0,5	-0,045700
14,967000	0,5	-0,037350
14,975333	0,5	-0,047400
14,983667	0,5	-0,062350
14,992000	0,5	-0,060500
15,000333	0,5	-0,068450
15,008667	0,5	-0,078450
15,017000	0,5	-0,092400
15,025333	0,5	-0,103600
15,033667	0,5	-0,096100
15,042000	0,5	-0,096850
15,050333	0,5	-0,095150
15,058667	0,5	-0,102100
15,067000	0,5	-0,108050
15,075333	0,5	-0,120300
15,083667	0,5	-0,123800
15,092000	0,5	-0,132350
15,100333	0,5	-0,137700
15,108667	0,5	-0,139750
15,117000	0,5	-0,140250
15,125333	0,5	-0,162050
15,133667	0,5	-0,163900
15,142000	0,5	-0,165750
15,150333	0,5	-0,169000
15,158667	0,5	-0,177600
15,167000	0,5	-0,189100
15,175333	0,5	-0,186500
15,183667	0,5	-0,184150
15,192000	0,5	-0,185700
15,200333	0,5	-0,185950
15,208667	0,5	-0,181450
15,217000	0,5	-0,184550
15,225333	0,5	-0,185250
15,233667	0,5	-0,193600
15,242000	0,5	-0,197050
15,250333	0,5	-0,208450
15,258667	0,5	-0,208150
15,267000	0,5	-0,216450
15,275333	0,5	-0,234450
15,283667	0,5	-0,233250
15,292000	0,5	-0,237650
15,300333	0,5	-0,243100
15,308667	0,5	-0,253550
15,317000	0,5	-0,273950
15,325333	0,5	-0,269900
15,333667	0,5	-0,269350
15,342000	0,5	-0,273000
15,350333	0,5	-0,277050
15,358667	0,5	-0,277100
15,367000	0,5	-0,274250
15,375333	0,5	-0,274400
15,383667	0,5	-0,268550
15,392000	0,5	-0,277200
15,400333	0,5	-0,280500
15,408667	0,5	-0,285600
15,417000	0,5	-0,282250
15,425333	0,5	-0,304300
15,433667	0,5	-0,297500
15,442000	0,5	-0,307750
15,450333	0,5	-0,312100
15,458667	0,5	-0,323900
15,467000	0,5	-0,340200
15,475333	0,5	-0,335050
15,483667	0,5	-0,336050
15,492000	0,5	-0,341000
15,500333	0,5	-0,343300
15,508667	0,5	-0,347450
15,517000	0,5	-0,347100
15,525333	0,5	-0,346000
15,533667	0,5	-0,345400
15,542000	0,5	-0,348100
15,550333	0,5	-0,350650
15,558667	0,5	-0,345800
15,567000	0,5	-0,356050
15,575333	0,5	-0,360000
15,583667	0,5	-0,353950
15,592000	0,5	-0,355200
15,600333	0,5	-0,366350
15,608667	0,5	-0,374450
15,617000	0,5	-0,391900
15,625333	0,5	-0,385900
15,633667	0,5	-0,390850
15,642000	0,5	-0,391900
15,650333	0,5	-0,393350
15,658667	0,5	-0,393050
15,667000	0,5	-0,394050
15,675333	0,5	-0,396450
15,683667	0,5	-0,395550
15,692000	0,5	-0,397400
15,700333	0,5	-0,391200
15,708667	0,5	-0,393050
15,717000	0,5	-0,406200
15,725333	0,5	-0,396200
15,733667	0,5	-0,397350
15,742000	0,5	-0,406600
15,750333	0,5	-0,414300
15,758667	0,5	-0,432200
15,767000	0,5	-0,427450
15,775333	0,5	-0,430000
15,783667	0,5	-0,426200
15,792000	0,5	-0,430600
15,800333	0,5	-0,427150
15,808667	0,5	-0,430800
15,817000	0,5	-0,428900
15,825333	0,5	-0,429500
15,833667	0,5	-0,432250
15,842000	0,5	-0,429400
15,850333	0,5	-0,431500
15,858667	0,5	-0,434900
15,867000	0,5	-0,444100
15,875333	0,5	-0,437350
15,883667	0,5	-0,437450
15,892000	0,5	-0,444700
15,900333	0,5	-0,460350
15,908667	0,5	-0,470800
15,917000	0,5	-0,472000
15,925333	0,5	-0,473650
15,933667	0,5	-0,484250
15,942000	0,5	-0,479350
15,950333	0,5	-0,487700
15,958667	0,5	-0,486900
15,967000	0,5	-0,491500
15,975333	0,5	-0,492100
15,983667	0,5	-0,497500
15,992000	0,5	-0,501550
16,000333	0,5	-0,503100
16,008667	0,5	-0,510000
16,017000	0,5	-0,506150
16,025333	0,5	-0,497600
16,033667	0,5	-0,498550
16,042000	0,5	-0,505250
16,050333	0,5	-0,519300
16,058667	0,5	-0,527250
16,067000	0,5	-0,521450
16,075333	0,5	-0,531900
16,083667	0,5	-0,535050
16,092000	0,5	-0,541450
16,100333	0,5	-0,539250
16,108667	0,5	-0,547550
16,117000	0,5	-0,542800
16,125333	0,5	-0,551900
16,133667	0,5	-0,550500
16,142000	0,5	-0,552800
16,150333	0,5	-0,550000
16,158667	0,5	-0,567150
16,167000	0,5	-0,558500
16,175333	0,5	-0,560850
16,183667	0,5	-0,563200
16,192000	0,5	-0,576750
16,200333	0,5	-0,595950
16,208667	0,5	-0,589100
16,217000	0,5	-0,595100
16,225333	0,5	-0,596300
16,233667	0,5	-0,604500
16,242000	0,5	-0,604650
16,250333	0,5	-0,607850
16,258667	0,5	-0,606750
16,267000	0,5	-0,610500
16,275333	0,5	-0,610700
16,283667	0,5	-0,613050
16,292000	0,5	-0,603850
16,300333	0,5	-0,610150
16,308667	0,5	-0,622800
16,317000	0,5	-0,614450
16,325333	0,5	-0,614450
16,333667	0,5	-0,621650
16,342000	0,5	-0,629950
16,350333	0,5	-0,649050
16,358667	0,5	-0,644600
16,367000	0,5	-0,645250
16,375333	0,5	-0,650350
16,383667	0,5	-0,652100
16,392000	0,5	-0,655750
16,400333	0,5	-0,655300
16,408667	0,5	-0,663500
16,417000	0,5	-0,659100
16,425333	0,5	-0,665400
16,433667	0,5	-0,665100
16,442000	0,5	-0,669350
16,450333	0,5	-0,670900
16,458667	0,5	-0,679150
16,467000	0,5	-0,665550
16,475333	0,5	-0,678700
16,483667	0,5	-0,685050
16,492000	0,5	-0,700400
16,500333	0,5	-0,704350
16,508667	0,5	-0,701250
16,517000	0,5	-0,701650
16,525333	0,5	-0,706950
16,533667	0,5	-0,706700
16,542000	0,5	-0,703850
16,550333	0,5	-0,710550
16,558667	0,5	-0,706350
16,567000	0,5	-0,709800
16,575333	0,5	-0,706600
16,583667	0,5	-0,704800
16,592000	0,5	-0,705650
16,600333	0,5	-0,719550
16,608667	0,5	-0,717300
16,617000	0,5	-0,716450
16,625333	0,5	-0,719800
16,633667	0,5	-0,735050
16,642000	0,5	-0,745350
16,650333	0,5	-0,756400
16,658667	0,5	-0,751350
16,667000	0,5	-0,756250
16,675333	0,5	-0,753250
16,683667	0,5	-0,759350
16,692000	0,5	-0,756050
16,700333	0,5	-0,754200
16,708667	0,5	-0,756550
16,717000	0,5	-0,757850
16,725333	0,5	-0,762450
16,733667	0,5	-0,751250
16,742000	0,5	-0,756850
16,750333	0,5	-0,764550
16,758667	0,5	-0,758600
16,767000	0,5	-0,760750
16,775333	0,5	-0,765150
16,783667	0,5	-0,777800
16,792000	0,5	-0,790550
16,800333	0,5	-0,788400
16,808667	0,5	-0,788950
16,817000	0,5	-0,784300
16,825333	0,5	-0,788900
16,833667	0,5	-0,785050
16,842000	0,5	-0,792950
16,850333	0,5	-0,791750
16,858667	0,5	-0,794100
16,867000	0,5	-0,794300
16,875333	0,5	-0,787900
16,883667	0,5	-0,788150
16,892000	0,5	-0,803500
16,900333	0,5	-0,810150
16,908667	0,5	-0,802850
16,917000	0,5	-0,804700
16,925333	0,5	-0,809100
16,933667	0,5	-0,829400
16,942000	0,5	-0,825650
16,950333	0,5	-0,827700
16,958667	0,5	-0,824200
16,967000	0,5	-0,831500
16,975333	0,5	-0,829750
16,983667	0,5	-0,836900
16,992000	0,5	-0,837750
17,000333	0,5	-0,839250
17,008667	0,5	-0,839700
17,017000	0,5	-0,843200
17,025333	0,5	-0,839450
17,033667	0,5	-0,834500
17,042000	0,5	-0,849000
17,050333	0,5	-0,835650
17,058667	0,5	-0,825500
17,067000	0,5	-0,825400
17,075333	0,5	-0,826300
17,083667	0,5	-0,839650
17,092000	0,5	-0,829450
17,100333	0,5	-0,825400
17,108667	0,5	-0,826500
17,117000	0,5	-0,824750
17,125333	0,5	-0,828300
17,133667	0,5	-0,821200
17,142000	0,5	-0,824050
17,150333	0,5	-0,815900
17,158667	0,5	-0,817750
17,167000	0,5	-0,812200
17,175333	0,5	-0,802300
17,183667	0,5	-0,806800
17,192000	0,5	-0,831050
17,200333	0,5	-0,831450
17,208667	0,5	-0,841100
17,217000	0,5	-0,855700
17,225333	0,5	-0,870850
17,233667	0,5	-0,897250
17,242000	0,5	-0,885700
17,250333	0,5	-0,890300
17,258667	0,5	-0,892850
17,267000	0,5	-0,898850
17,275333	0,5	-0,896800
17,283667	0,5	-0,900500
17,292000	0,5	-0,893400
17,300333	0,5	-0,895550
17,308667	0,5	-0,893650
17,317000	0,5	-0,893900
17,325333	0,5	-0,884650
17,333667	0,5	-0,893050
17,342000	0,5	-0,891650
17,350333	0,5	-0,883400
17,358667	0,5	-0,886150
17,367000	0,5	-0,891650
17,375333	0,5	-0,902650
17,383667	0,5	-0,906600
17,392000	0,5	-0,902450
17,400333	0,5	-0,898650
17,408667	0,5	-0,900450
17,417000	0,5	-0,898350
17,425333	0,5	-0,898650
17,433667	0,5	-0,890650
17,442000	0,5	-0,895450
17,450333	0,5	-0,889700
17,458667	0,5	-0,896000
17,467000	0,5	-0,886100
17,475333	0,5	-0,882850
17,483667	0,5	-0,886550
17,492000	0,5	-0,881150
17,500333	0,5	-0,873850
17,508667	0,5	-0,882450
17,517000	0,5	-0,884550
17,525333	0,5	-0,893700
17,533667	0,5	-0,894800
17,542000	0,5	-0,889150
17,550333	0,5	-0,881250
17,558667	0,5	-0,881900
17,567000	0,5	-0,877000
17,575333	0,5	-0,877550
17,583667	0,5	-0,869450
17,592000	0,5	-0,862700
17,600333	0,5	-0,863900
17,608667	0,5	-0,859250
17,617000	0,5	-0,855800
17,625333	0,5	-0,848350
17,633667	0,5	-0,860300
17,642000	0,5	-0,844650
17,650333	0,5	-0,842900
17,658667	0,5	-0,839550
17,667000	0,5	-0,850450
17,675333	0,5	-0,854700
17,683667	0,5	-0,851850
17,692000	0,5	-0,840850
17,700333	0,5	-0,838200
17,708667	0,5	-0,832200
17,717000	0,5	-0,829200
17,725333	0,5	-0,818650
17,733667	0,5	-0,814100
17,742000	0,5	-0,812350
17,750333	0,5	-0,807550
17,758667	0,5	-0,808500
17,767000	0,5	-0,798150
17,775333	0,5	-0,809350
17,783667	0,5	-0,805250
17,792000	0,5	-0,800000
17,800333	0,5	-0,800050
17,808667	0,5	-0,808150
17,817000	0,5	-0,823300
17,825333	0,5	-0,829650
17,833667	0,5	-0,825750
17,842000	0,5	-0,827850
17,850333	0,5	-0,822650
17,858667	0,5	-0,825700
17,867000	0,5	-0,822650
17,875333	0,5	-0,826950
17,883667	0,5	-0,827500
17,892000	0,5	-0,827400
17,900333	0,5	-0,828250
17,908667	0,5	-0,823400
17,917000	0,5	-0,823150
17,925333	0,5	-0,837100
17,933667	0,5	-0,826850
17,942000	0,5	-0,821450
17,950333	0,5	-0,829150
17,958667	0,5	-0,830250
17,967000	0,5	-0,851100
17,975333	0,5	-0,842800
17,983667	0,5	-0,850500
17,992000	0,5	-0,845750
18,000333	0,5	-0,853150
18,008667	0,5	-0,851000
18,017000	0,5	-0,855100
18,025333	0,5	-0,850700
18,033667	0,5	-0,851150
18,042000	0,5	-0,855100
18,050333	0,5	-0,862050
18,058667	0,5	-0,861650
18,067000	0,5	-0,865150
18,075333	0,5	-0,882900
18,083667	0,5	-0,866100
18,092000	0,5	-0,868700
18,100333	0,5	-0,872650
18,108667	0,5	-0,888950
18,117000	0,5	-0,902600
18,125333	0,5	-0,904250
18,133667	0,5	-0,897750
18,142000	0,5	-0,909800
18,150333	0,5	-0,907800
18,158667	0,5	-0,913900
18,167000	0,5	-0,916550
18,175333	0,5	-0,924850
18,183667	0,5	-0,927200
18,192000	0,5	-0,928950
18,200333	0,5	-0,932100
18,208667	0,5	-0,928450
18,217000	0,5	-0,936650
18,225333	0,5	-0,943750
18,233667	0,5	-0,937800
18,242000	0,5	-0,943700
18,250333	0,5	-0,955150
18,258667	0,5	-0,969650
18,267000	0,5	-0,982450
18,275333	0,5	-0,972550
18,283667	0,5	-0,982400
18,292000	0,5	-0,982750
18,300333	0,5	-0,991850
18,308667	0,5	-0,989250
18,317000	0,5	-0,995500
18,325333	0,5	-0,996450
18,333667	0,5	-1,000900
18,342000	0,5	-0,999300
18,350333	0,5	-0,999750
18,358667	0,5	-0,999050
18,367000	0,5	-1,021900
18,375333	0,5	-1,014200
18,383667	0,5	-1,020400
18,392000	0,5	-1,026600
18,400333	0,5	-1,041600
18,408667	0,5	-1,063100
18,417000	0,5	-1,061300
18,425333	0,5	-1,066150
18,433667	0,5	-1,065100
18,442000	0,5	-1,072950
18,450333	0,5	-1,072300
18,458667	0,5	-1,083550
18,467000	0,5	-1,079400
18,475333	0,5	-1,086550
18,483667	0,5	-1,091750
18,492000	0,5	-1,100000
18,500333	0,5	-1,097050
18,508667	0,5	-1,104100
18,517000	0,5	-1,111700
18,525333	0,5	-1,112350
18,533667	0,5	-1,116050
18,542000	0,5	-1,127050
18,550333	0,5	-1,140100
18,558667	0,5	-1,157700
18,567000	0,5	-1,162700
18,575333	0,5	-1,161650
18,583667	0,5	-1,164500
18,592000	0,5	-1,165800
18,600333	0,5	-1,172750
18,608667	0,5	-1,170800
18,617000	0,5	-1,179700
18,625333	0,5	-1,175650
18,633667	0,5	-1,182650
18,642000	0,5	-1,184250
18,650333	0,5	-1,183150
18,658667	0,5	-1,189250
18,667000	0,5	-1,192900
18,675333	0,5	-1,178300
18,683667	0,5	-1,187100
18,692000	0,5	-1,186100
18,700333	0,5	-1,209500
18,708667	0,5	-1,219800
18,717000	0,5	-1,219950
18,725333	0,5	-1,224900
18,733667	0,5	-1,230150
18,742000	0,5	-1,235150
18,750333	0,5	-1,235150
18,758667	0,5	-1,238100
18,767000	0,5	-1,239350
18,775333	0,5	-1,246400
18,783667	0,5	-1,251900
18,792000	0,5	-1,244300
18,800333	0,5	-1,244350
18,808667	0,5	-1,270650
18,817000	0,5	-1,260600
18,825333	0,5	-1,258650
18,833667	0,5	-1,273200
18,842000	0,5	-1,287450
18,850333	0,5	-1,305700
18,858667	0,5	-1,313100
18,867000	0,5	-1,315100
18,875333	0,5	-1,316450
18,883667	0,5	-1,325300
18,892000	0,5	-1,328400
18,900333	0,5	-1,335050
18,908667	0,5	-1,337000
18,917000	0,5	-1,341150
18,925333	0,5	-1,346150
18,933667	0,5	-1,348850
18,942000	0,5	-1,343050
18,950333	0,5	-1,356550
18,958667	0,5	-1,364100
18,967000	0,5	-1,364250
18,975333	0,5	-1,365500
18,983667	0,5	-1,381350
18,992000	0,5	-1,383650
19,000333	0,5	-1,397600
19,008667	0,5	-1,396250
19,017000	0,5	-1,401050
19,025333	0,5	-1,401900
19,033667	0,5	-1,405200
19,042000	0,5	-1,406900
19,050333	0,5	-1,408300
19,058667	0,5	-1,410700
19,067000	0,5	-1,417550
19,075333	0,5	-1,429300
19,083667	0,5	-1,430300
19,092000	0,5	-1,430000
19,100333	0,5	-1,448200
19,108667	0,5	-1,449850
19,117000	0,5	-1,437700
19,125333	0,5	-1,440800
19,133667	0,5	-1,444350
19,142000	0,5	-1,465350
19,150333	0,5	-1,461450
19,158667	0,5	-1,463400
19,167000	0,5	-1,465950
19,175333	0,5	-1,482100
19,183667	0,5	-1,485900
19,192000	0,5	-1,498700
19,200333	0,5	-1,502000
19,208667	0,5	-1,506900
19,217000	0,5	-1,514850
19,225333	0,5	-1,515650
19,233667	0,5	-1,518200
19,242000	0,5	-1,512800
19,250333	0,5	-1,534800
19,258667	0,5	-1,525650
19,267000	0,5	-1,530600
19,275333	0,5	-1,534700
19,283667	0,5	-1,548600
19,292000	0,5	-1,569500
19,300333	0,5	-1,566250
19,308667	0,5	-1,559000
19,317000	0,5	-1,569750
19,325333	0,5	-1,569550
19,333667	0,5	-1,565850
19,342000	0,5	-1,560500
19,350333	0,5	-1,561900
19,358667	0,5	-1,548900
19,367000	0,5	-1,537650
19,375333	0,5	-1,528150
19,383667	0,5	-1,514050
19,392000	0,5	-1,517700
19,400333	0,5	-1,544000
19,408667	0,5	-1,547200
19,417000	0,5	-1,567400
19,425333	0,5	-1,589250
19,433667	0,5	-1,611450
19,442000	0,5	-1,638800
19,450333	0,5	-1,639450
19,458667	0,5	-1,649750
19,467000	0,5	-1,647500
19,475333	0,5	-1,656850
19,483667	0,5	-1,654900
19,492000	0,5	-1,661350
19,500333	0,5	-1,661250
19,508667	0,5	-1,669050
19,517000	0,5	-1,668850
19,525333	0,5	-1,665250
19,533667	0,5	-1,661750
19,542000	0,5	-1,675450
19,550333	0,5	-1,676350
19,558667	0,5	-1,673950
19,567000	0,5	-1,678250
19,575333	0,5	-1,682600
19,583667	0,5	-1,705450
19,592000	0,5	-1,709000
19,600333	0,5	-1,714650
19,608667	0,5	-1,713650
19,617000	0,5	-1,723050
19,625333	0,5	-1,725000
19,633667	0,5	-1,735000
19,642000	0,5	-1,736150
19,650333	0,5	-1,740500
19,658667	0,5	-1,745750
19,667000	0,5	-1,749050
19,675333	0,5	-1,736200
19,683667	0,5	-1,739300
19,692000	0,5	-1,746750
19,700333	0,5	-1,735450
19,708667	0,5	-1,724450
19,717000	0,5	-1,717150
19,725333	0,5	-1,723100
19,733667	0,5	-1,724300
19,742000	0,5	-1,732800
19,750333	0,5	-1,734350
19,758667	0,5	-1,746000
19,767000	0,5	-1,759950
19,775333	0,5	-1,764750
19,783667	0,5	-1,774350
19,792000	0,5	-1,781800
19,800333	0,5	-1,782600
19,808667	0,5	-1,791550
19,817000	0,5	-1,791800
19,825333	0,5	-1,789400
19,833667	0,5	-1,803100
19,842000	0,5	-1,812450
19,850333	0,5	-1,808200
19,858667	0,5	-1,809100
19,867000	0,5	-1,821050
19,875333	0,5	-1,841300
19,883667	0,5	-1,850750
19,892000	0,5	-1,844100
19,900333	0,5	-1,850200
19,908667	0,5	-1,846250
19,917000	0,5	-1,850500
19,925333	0,5	-1,845800
19,933667	0,5	-1,854400
19,942000	0,5	-1,856200
19,950333	0,5	-1,863000
19,958667	0,5	-1,865100
19,967000	0,5	-1,859650
19,975333	0,5	-1,855500
19,983667	0,5	-1,880050
19,992000	0,5	-1,868000
20,000333	0,5	-1,873250
20,008667	0,5	-1,877350
20,017000	0,5	-1,893750
20,025333	0,5	-1,917200
20,033667	0,5	-1,906750
20,042000	0,5	-1,912750
20,050333	0,5	-1,917800
20,058667	0,5	-1,922200
20,067000	0,5	-1,922100
20,075333	0,5	-1,924400
20,083667	0,5	-1,923500
20,092000	0,5	-1,930750
20,100333	0,5	-1,929600
20,108667	0,5	-1,931400
20,117000	0,5	-1,920250
20,125333	0,5	-1,923800
20,133667	0,5	-1,934300
20,142000	0,5	-1,922800
20,150333	0,5	-1,921850
20,158667	0,5	-1,928500
20,167000	0,5	-1,936650
20,175333	0,5	-1,948600
20,183667	0,5	-1,941400
20,192000	0,5	-1,936850
20,200333	0,5	-1,940900
20,208667	0,5	-1,934350
20,217000	0,5	-1,936450
20,225333	0,5	-1,934550
20,233667	0,5	-1,937850
20,242000	0,5	-1,933550
20,250333	0,5	-1,941350
20,258667	0,5	-1,933600
20,267000	0,5	-1,927450
20,275333	0,5	-1,930150
20,283667	0,5	-1,936600
20,292000	0,5	-1,930600
20,300333	0,5	-1,932400
20,308667	0,5	-1,938250
20,317000	0,5	-1,957000
20,325333	0,5	-1,960200
20,333667	0,5	-1,954850
20,342000	0,5	-1,953650
20,350333	0,5	-1,956300
20,358667	0,5	-1,951600
20,367000	0,5	-1,950900
20,375333	0,5	-1,948300
20,383667	0,5	-1,946000
20,392000	0,5	-1,947350
20,400333	0,5	-1,940500
20,408667	0,5	-1,937150
20,417000	0,5	-1,924600
20,425333	0,5	-1,937050
20,433667	0,5	-1,924600
20,442000	0,5	-1,922050
20,450333	0,5	-1,919200
20,458667	0,5	-1,935100
20,467000	0,5	-1,942900
20,475333	0,5	-1,940100
20,483667	0,5	-1,937650
20,492000	0,5	-1,939700
20,500333	0,5	-1,932250
20,508667	0,5	-1,930000
20,517000	0,5	-1,927850
20,525333	0,5	-1,926950
20,533667	0,5	-1,929000
20,542000	0,5	-1,919900
20,550333	0,5	-1,926400
20,558667	0,5	-1,910500
20,567000	0,5	-1,913550
20,575333	0,5	-1,923300
20,583667	0,5	-1,920000
20,592000	0,5	-1,921300
20,600333	0,5	-1,935750
20,608667	0,5	-1,950550
20,617000	0,5	-1,964600
20,625333	0,5	-1,963050
20,633667	0,5	-1,963600
20,642000	0,5	-1,960850
20,650333	0,5	-1,967100
20,658667	0,5	-1,965650
20,667000	0,5	-1,965700
20,675333	0,5	-1,967500
20,683667	0,5	-1,964450
20,692000	0,5	-1,968850
20,700333	0,5	-1,950600
20,708667	0,5	-1,943150
20,717000	0,5	-1,946500
20,725333	0,5	-1,954900
20,733667	0,5	-1,950050
20,742000	0,5	-1,964850
20,750333	0,5	-1,967850
20,758667	0,5	-1,984650
20,767000	0,5	-1,985250
20,775333	0,5	-1,987050
20,783667	0,5	-1,982950
20,792000	0,5	-1,982550
20,800333	0,5	-1,984200
20,808667	0,5	-1,984100
20,817000	0,5	-1,978900
20,825333	0,5	-1,977350
20,833667	0,5	-1,978100
20,842000	0,5	-1,974150
20,850333	0,5	-1,954900
20,858667	0,5	-1,948000
20,867000	0,5	-1,952200
20,875333	0,5	-1,948350
20,883667	0,5	-1,950050
20,892000	0,5	-1,953900
20,900333	0,5	-1,975000
20,908667	0,5	-1,974450
20,917000	0,5	-1,967300
20,925333	0,5	-1,963150
20,933667	0,5	-1,969550
20,942000	0,5	-1,959750
20,950333	0,5	-1,958700
20,958667	0,5	-1,953300
20,967000	0,5	-1,950100
20,975333	0,5	-1,941100
20,983667	0,5	-1,939650
20,992000	0,5	-1,923900
21,000333	0,5	-1,902700
21,008667	0,5	-1,902700
21,017000	0,5	-1,906300
21,025333	0,5	-1,906500
21,033667	0,5	-1,907350
21,042000	0,5	-1,920950
21,050333	0,5	-1,933150
21,058667	0,5	-1,925750
21,067000	0,5	-1,917050
21,075333	0,5	-1,921550
21,083667	0,5	-1,913950
21,092000	0,5	-1,917750
21,100333	0,5	-1,908200
21,108667	0,5	-1,903600
21,117000	0,5	-1,899250
21,125333	0,5	-1,896800
21,133667	0,5	-1,899500
21,142000	0,5	-1,871750
21,150333	0,5	-1,854000
21,158667	0,5	-1,858150
21,167000	0,5	-1,860800
21,175333	0,5	-1,854900
21,183667	0,5	-1,861500
21,192000	0,5	-1,858000
21,200333	0,5	-1,875550
21,208667	0,5	-1,860150
21,217000	0,5	-1,858250
21,225333	0,5	-1,846650
21,233667	0,5	-1,845150
21,242000	0,5	-1,831650
21,250333	0,5	-1,829650
21,258667	0,5	-1,821350
21,267000	0,5	-1,818450
21,275333	0,5	-1,812750
21,283667	0,5	-1,793150
21,292000	0,5	-1,768350
21,300333	0,5	-1,752600
21,308667	0,5	-1,757050
21,317000	0,5	-1,749500
21,325333	0,5	-1,752250
21,333667	0,5	-1,762700
21,342000	0,5	-1,771900
21,350333	0,5	-1,770800
21,358667	0,5	-1,756700
21,367000	0,5	-1,745400
21,375333	0,5	-1,744200
21,383667	0,5	-1,734900
21,392000	0,5	-1,725200
21,400333	0,5	-1,713800
21,408667	0,5	-1,709200
21,417000	0,5	-1,698150
21,425333	0,5	-1,687850
21,433667	0,5	-1,660750
21,442000	0,5	-1,644450
21,450333	0,5	-1,640000
21,458667	0,5	-1,629650
21,467000	0,5	-1,632550
21,475333	0,5	-1,627350
21,483667	0,5	-1,637000
21,492000	0,5	-1,636100
21,500333	0,5	-1,626050
21,508667	0,5	-1,606350
21,517000	0,5	-1,595300
21,525333	0,5	-1,573850
21,533667	0,5	-1,561300
21,542000	0,5	-1,535900
21,550333	0,5	-1,508750
21,558667	0,5	-1,471350
21,567000	0,5	-1,436750
21,575333	0,5	-1,400850
21,583667	0,5	-1,358100
21,592000	0,5	-1,347700
21,600333	0,5	-1,361050
21,608667	0,5	-1,373000
21,617000	0,5	-1,390700
21,625333	0,5	-1,402700
21,633667	0,5	-1,413850
21,642000	0,5	-1,413650
21,650333	0,5	-1,404600
21,658667	0,5	-1,395650
21,667000	0,5	-1,377800
21,675333	0,5	-1,370550
21,683667	0,5	-1,355550
21,692000	0,5	-1,346950
21,700333	0,5	-1,330450
21,708667	0,5	-1,317050
21,717000	0,5	-1,302400
21,725333	0,5	-1,269200
21,733667	0,5	-1,238800
21,742000	0,5	-1,229050
21,750333	0,5	-1,216250
21,758667	0,5	-1,187400
21,767000	0,5	-1,179200
21,775333	0,5	-1,164200
21,783667	0,5	-1,160900
21,792000	0,5	-1,131850
21,800333	0,5	-1,112950
21,808667	0,5	-1,092200
21,817000	0,5	-1,080850
21,825333	0,5	-1,058700
21,833667	0,5	-1,041600
21,842000	0,5	-1,041400
21,850333	0,5	-1,005750
21,858667	0,5	-0,994600
21,867000	0,5	-0,973450
21,875333	0,5	-0,942600
21,883667	0,5	-0,933200
21,892000	0,5	-0,920300
21,900333	0,5	-0,896800
21,908667	0,5	-0,878200
21,917000	0,5	-0,862800
21,925333	0,5	-0,863050
21,933667	0,5	-0,844450
21,942000	0,5	-0,819550
21,950333	0,5	-0,797400
21,958667	0,5	-0,776850
21,967000	0,5	-0,746700
21,975333	0,5	-0,726600
21,983667	0,5	-0,700400
21,992000	0,5	-0,667550
22,000333	0,5	-0,642050
22,008667	0,5	-0,619650
22,017000	0,5	-0,589750
22,025333	0,5	-0,551300
22,033667	0,5	-0,543550
22,042000	0,5	-0,500150
22,050333	0,5	-0,477050
22,058667	0,5	-0,447850
22,067000	0,5	-0,426900
22,075333	0,5	-0,404000
22,083667	0,5	-0,363000
22,092000	0,5	-0,325200
22,100333	0,5	-0,290200
22,108667	0,5	-0,243400
22,117000	0,5	-0,203600
22,125333	0,5	-0,158350
22,133667	0,5	-0,117550
22,142000	0,5	-0,072000
22,150333	0,5	-0,026600
22,158667	0,5	0,011200
22,167000	0,5	0,046500
22,175333	0,5	0,080050
22,183667	0,5	0,122150
22,192000	0,5	0,171150
22,200333	0,5	0,216100
22,208667	0,5	0,249000
22,217000	0,5	0,286800
22,225333	0,5	0,319750
22,233667	0,5	0,373700
22,242000	0,5	0,412400
22,250333	0,5	0,462750
22,258667	0,5	0,503250
22,267000	0,5	0,555050
22,275333	0,5	0,605650
22,283667	0,5	0,658700
22,292000	0,5	0,701000
22,300333	0,5	0,739150
22,308667	0,5	0,773600
22,317000	0,5	0,813700
22,325333	0,5	0,869650
22,333667	0,5	0,925950
22,342000	0,5	0,984150
22,350333	0,5	1,030750
22,358667	0,5	1,071700
22,367000	0,5	1,106850
22,375333	0,5	1,159950
22,383667	0,5	1,215900
22,392000	0,5	1,277600
22,400333	0,5	1,334100
22,408667	0,5	1,391050
22,417000	0,5	1,449900
22,425333	0,5	1,508900
22,433667	0,5	1,568450
22,442000	0,5	1,623850
22,450333	0,5	1,683200
22,458667	0,5	1,705550
22,467000	0,5	1,775050
22,475333	0,5	1,843550
22,483667	0,5	1,928200
22,492000	0,5	1,982700
22,500333	0,5	2,044050
22,508667	0,5	2,089350
22,517000	0,5	2,148050
22,525333	0,5	2,206000
22,533667	0,5	2,274700
22,542000	0,5	2,329500
22,550333	0,5	2,384150
22,558667	0,5	2,429900
22,567000	0,5	2,477000
22,575333	0,5	2,521050
22,583667	0,5	2,555700
22,592000	0,5	2,591550
22,600333	0,5	2,598550
22,608667	0,5	2,613050
22,617000	0,5	2,639200
22,625333	0,5	2,683350
22,633667	0,5	2,702800
22,642000	0,5	2,703000
22,650333	0,5	2,695850
22,658667	0,5	2,678600
22,667000	0,5	2,663000
22,675333	0,5	2,659350
22,683667	0,5	2,634350
22,692000	0,5	2,615300
22,700333	0,5	2,580900
22,708667	0,5	2,550150
22,717000	0,5	2,508350
22,725333	0,5	2,468700
22,733667	0,5	2,407850
22,742000	0,5	2,351650
22,750333	0,5	2,237450
22,758667	0,5	2,167950
22,767000	0,5	2,113000
22,775333	0,5	2,041500
22,783667	0,5	1,949800
22,792000	0,5	1,841950
22,800333	0,5	1,727250
22,808667	0,5	1,602150
22,817000	0,5	1,487450
22,825333	0,5	1,361650
22,833667	0,5	1,237100
22,842000	0,5	1,117200
22,850333	0,5	0,985200
22,858667	0,5	0,860450
22,867000	0,5	0,726600
22,875333	0,5	0,594800
22,883667	0,5	0,464400
22,892000	0,5	0,330200
22,900333	0,5	0,152050
22,908667	0,5	0,029300
22,917000	0,5	-0,087800
22,925333	0,5	-0,236000
22,933667	0,5	-0,375000
22,942000	0,5	-0,515100
22,950333	0,5	-0,629700
22,958667	0,5	-0,768800
22,967000	0,5	-0,883400
22,975333	0,5	-1,008000
22,983667	0,5	-1,107000
22,992000	0,5	-1,220350
23,000333	0,5	-1,317550
23,008667	0,5	-1,421600
23,017000	0,5	-1,517700
23,025333	0,5	-1,614850
23,033667	0,5	-1,710550
23,042000	0,5	-1,771500
23,050333	0,5	-1,870200
23,058667	0,5	-1,955600
23,067000	0,5	-2,073000
23,075333	0,5	-2,154350
23,083667	0,5	-2,230200
23,092000	0,5	-2,284000
23,100333	0,5	-2,338800
23,108667	0,5	-2,398650
23,117000	0,5	-2,448200
23,125333	0,5	-2,484800
23,133667	0,5	-2,522500
23,142000	0,5	-2,548200
23,150333	0,5	-2,580750
23,158667	0,5	-2,608350
23,167000	0,5	-2,639800
23,175333	0,5	-2,663250
23,183667	0,5	-2,680050
23,192000	0,5	-2,722600
23,200333	0,5	-2,714200
23,208667	0,5	-2,736700
23,217000	0,5	-2,789600
23,225333	0,5	-2,814100
23,233667	0,5	-2,825250
23,242000	0,5	-2,830300
23,250333	0,5	-2,814500
23,258667	0,5	-2,823700
23,267000	0,5	-2,806150
23,275333	0,5	-2,797100
23,283667	0,5	-2,779150
23,292000	0,5	-2,767400
23,300333	0,5	-2,744300
23,308667	0,5	-2,731200
23,317000	0,5	-2,710800
23,325333	0,5	-2,695750
23,333667	0,5	-2,670550
23,342000	0,5	-2,701200
23,350333	0,5	-2,650650
23,358667	0,5	-2,625400
23,367000	0,5	-2,634950
23,375333	0,5	-2,630600
23,383667	0,5	-2,617950
23,392000	0,5	-2,594950
23,400333	0,5	-2,575250
23,408667	0,5	-2,554250
23,417000	0,5	-2,535900
23,425333	0,5	-2,506350
23,433667	0,5	-2,477150
23,442000	0,5	-2,442850
23,450333	0,5	-2,416950
23,458667	0,5	-2,382000
23,467000	0,5	-2,356550
23,475333	0,5	-2,325850
23,483667	0,5	-2,349150
23,492000	0,5	-2,331000
23,500333	0,5	-2,266400
23,508667	0,5	-2,227200
23,517000	0,5	-2,215150
23,525333	0,5	-2,205500
23,533667	0,5	-2,191250
23,542000	0,5	-2,174150
23,550333	0,5	-2,158050
23,558667	0,5	-2,141050
23,567000	0,5	-2,124800
23,575333	0,5	-2,106500
23,583667	0,5	-2,089200
23,592000	0,5	-2,070300
23,600333	0,5	-2,054050
23,608667	0,5	-2,036950
23,617000	0,5	-2,014050
23,625333	0,5	-2,002750
23,633667	0,5	-2,102550
23,642000	0,5	-2,045700
23,650333	0,5	-1,987400
23,658667	0,5	-1,945950
23,667000	0,5	-1,927450
23,675333	0,5	-1,923350
23,683667	0,5	-1,908050
23,692000	0,5	-1,897200
23,700333	0,5	-1,887550
23,708667	0,5	-1,872000
23,717000	0,5	-1,858900
23,725333	0,5	-1,842800
23,733667	0,5	-1,830250
23,742000	0,5	-1,820750
23,750333	0,5	-1,807300
23,758667	0,5	-1,801950
23,767000	0,5	-1,792050
23,775333	0,5	-1,860750
23,783667	0,5	-1,904300
23,792000	0,5	-1,890750
23,800333	0,5	-1,822100
23,808667	0,5	-1,790950
23,817000	0,5	-1,778450
23,825333	0,5	-1,773300
23,833667	0,5	-1,772050
23,842000	0,5	-1,765050
23,850333	0,5	-1,749050
23,858667	0,5	-1,739600
23,867000	0,5	-1,722600
23,875333	0,5	-1,708600
23,883667	0,5	-1,693450
23,892000	0,5	-1,678300
23,900333	0,5	-1,663500
23,908667	0,5	-1,648700
23,917000	0,5	-1,640650
23,925333	0,5	-1,769050
23,933667	0,5	-1,748650
23,942000	0,5	-1,720150
23,950333	0,5	-1,651600
23,958667	0,5	-1,618950
23,967000	0,5	-1,605450
23,975333	0,5	-1,599900
23,983667	0,5	-1,611350
23,992000	0,5	-1,591500
24,000333	0,5	-1,583350
24,008667	0,5	-1,568100
24,017000	0,5	-1,564400
24,025333	0,5	-1,545500
24,033667	0,5	-1,536650
24,042000	0,5	-1,518450
24,050333	0,5	-1,505000
24,058667	0,5	-1,494000
24,067000	0,5	-1,500950
24,075333	0,5	-1,619200
24,083667	0,5	-1,564150
24,092000	0,5	-1,529050
24,100333	0,5	-1,465500
24,108667	0,5	-1,442100
24,117000	0,5	-1,425750
24,125333	0,5	-1,415600
24,133667	0,5	-1,413750
24,142000	0,5	-1,391450
24,150333	0,5	-1,364800
24,158667	0,5	-1,351900
24,167000	0,5	-1,331850
24,175333	0,5	-1,319550
24,183667	0,5	-1,300100
24,192000	0,5	-1,286550
24,200333	0,5	-1,265600
24,208667	0,5	-1,249750
24,217000	0,5	-1,324100
24,225333	0,5	-1,344250
24,233667	0,5	-1,305450
24,242000	0,5	-1,268200
24,250333	0,5	-1,222950
24,258667	0,5	-1,209250
24,267000	0,5	-1,200500
24,275333	0,5	-1,192050
24,283667	0,5	-1,189050
24,292000	0,5	-1,162250
24,300333	0,5	-1,150650
24,308667	0,5	-1,128200
24,317000	0,5	-1,117200
24,325333	0,5	-1,092300
24,333667	0,5	-1,076200
24,342000	0,5	-1,051850
24,350333	0,5	-1,035300
24,358667	0,5	-1,016400
24,367000	0,5	-1,093050
24,375333	0,5	-1,069200
24,383667	0,5	-1,042650
24,392000	0,5	-0,996350
24,400333	0,5	-0,962350
24,408667	0,5	-0,946100
24,417000	0,5	-0,940600
24,425333	0,5	-0,942150
24,433667	0,5	-0,932450
24,442000	0,5	-0,916250
24,450333	0,5	-0,898600
24,458667	0,5	-0,886000
24,467000	0,5	-0,870200
24,475333	0,5	-0,857400
24,483667	0,5	-0,837600
24,492000	0,5	-0,829650
24,500333	0,5	-0,813950
24,508667	0,5	-0,813850
24,517000	0,5	-0,863500
24,525333	0,5	-0,843200
24,533667	0,5	-0,810050
24,542000	0,5	-0,780050
24,550333	0,5	-0,754100
24,558667	0,5	-0,743050
24,567000	0,5	-0,731150
24,575333	0,5	-0,727550
24,583667	0,5	-0,717700
24,592000	0,5	-0,700200
24,600333	0,5	-0,684450
24,608667	0,5	-0,668300
24,617000	0,5	-0,657200
24,625333	0,5	-0,640300
24,633667	0,5	-0,626700
24,642000	0,5	-0,610900
24,650333	0,5	-0,603700
24,658667	0,5	-0,621850
24,667000	0,5	-0,637050
24,675333	0,5	-0,620450
24,683667	0,5	-0,595450
24,692000	0,5	-0,571900
24,700333	0,5	-0,557900
24,708667	0,5	-0,549500
24,717000	0,5	-0,553150
24,725333	0,5	-0,546900
24,733667	0,5	-0,531050
24,742000	0,5	-0,523250
24,750333	0,5	-0,514800
24,758667	0,5	-0,503400
24,767000	0,5	-0,491150
24,775333	0,5	-0,480250
24,783667	0,5	-0,464050
24,792000	0,5	-0,455400
24,800333	0,5	-0,442800
24,808667	0,5	-0,474150
24,817000	0,5	-0,452750
24,825333	0,5	-0,444450
24,833667	0,5	-0,421600
24,842000	0,5	-0,408850
24,850333	0,5	-0,395100
24,858667	0,5	-0,390950
24,867000	0,5	-0,392600
24,875333	0,5	-0,385100
24,883667	0,5	-0,369900
24,892000	0,5	-0,366800
24,900333	0,5	-0,359650
24,908667	0,5	-0,355950
24,917000	0,5	-0,348750
24,925333	0,5	-0,345800
24,933667	0,5	-0,332450
24,942000	0,5	-0,327050
24,950333	0,5	-0,324400
24,958667	0,5	-0,341950
24,967000	0,5	-0,327200
24,975333	0,5	-0,319300
24,983667	0,5	-0,304450
24,992000	0,5	-0,292950
25,000333	0,5	-0,286750
25,008667	0,5	-0,279850
25,017000	0,5	-0,280300
25,025333	0,5	-0,271000
25,033667	0,5	-0,265650
25,042000	0,5	-0,256050
25,050333	0,5	-0,251750
25,058667	0,5	-0,245100
25,067000	0,5	-0,241200
25,075333	0,5	-0,230450
25,083667	0,5	-0,227550
25,092000	0,5	-0,222850
25,100333	0,5	-0,228250
25,108667	0,5	-0,226400
25,117000	0,5	-0,217950
25,125333	0,5	-0,214700
25,133667	0,5	-0,206800
25,142000	0,5	-0,204500
25,150333	0,5	-0,199700
25,158667	0,5	-0,200550
25,167000	0,5	-0,199900
25,175333	0,5	-0,193650
25,183667	0,5	-0,189350
25,192000	0,5	-0,183150
25,200333	0,5	-0,178050
25,208667	0,5	-0,176150
25,217000	0,5	-0,169300
25,225333	0,5	-0,165100
25,233667	0,5	-0,158450
25,242000	0,5	-0,155850
25,250333	0,5	-0,154300
25,258667	0,5	-0,148200
25,267000	0,5	-0,144700
25,275333	0,5	-0,142500
25,283667	0,5	-0,139400
25,292000	0,5	-0,137200
25,300333	0,5	-0,135950
25,308667	0,5	-0,134900
25,317000	0,5	-0,135800
25,325333	0,5	-0,132450
25,333667	0,5	-0,133450
25,342000	0,5	-0,132950
25,350333	0,5	-0,132350
25,358667	0,5	-0,129850
25,367000	0,5	-0,127300
25,375333	0,5	-0,124650
25,383667	0,5	-0,120850
25,392000	0,5	-0,114500
25,400333	0,5	-0,112800
25,408667	0,5	-0,108950
25,417000	0,5	-0,105750
25,425333	0,5	-0,106600
25,433667	0,5	-0,103400
25,442000	0,5	-0,102050
25,450333	0,5	-0,097500
25,458667	0,5	-0,096100
25,467000	0,5	-0,095350
25,475333	0,5	-0,094900
25,483667	0,5	-0,095400
25,492000	0,5	-0,092300
25,500333	0,5	-0,094750
25,508667	0,5	-0,092250
25,517000	0,5	-0,094200
25,525333	0,5	-0,092050
25,533667	0,5	-0,089100
25,542000	0,5	-0,085000
25,550333	0,5	-0,083350
25,558667	0,5	-0,078250
25,567000	0,5	-0,080650
25,575333	0,5	-0,085050
25,583667	0,5	-0,085850
25,592000	0,5	-0,080250
25,600333	0,5	-0,077000
25,608667	0,5	-0,073950
25,617000	0,5	-0,074900
25,625333	0,5	-0,072150
25,633667	0,5	-0,071100
25,642000	0,5	-0,071200
25,650333	0,5	-0,071200
25,658667	0,5	-0,070150
25,667000	0,5	-0,068050
25,675333	0,5	-0,066650
25,683667	0,5	-0,065750
25,692000	0,5	-0,060500
25,700333	0,5	-0,058250
25,708667	0,5	-0,051900
25,717000	0,5	-0,062650
25,725333	0,5	-0,063500
25,733667	0,5	-0,064250
25,742000	0,5	-0,063100
25,750333	0,5	-0,056550
25,758667	0,5	-0,060800
25,767000	0,5	-0,060000
25,775333	0,5	-0,056750
25,783667	0,5	-0,055250
25,792000	0,5	-0,053900
25,800333	0,5	-0,051550
25,808667	0,5	-0,050650
25,817000	0,5	-0,047300
25,825333	0,5	-0,041650
25,833667	0,5	-0,043300
25,842000	0,5	-0,032500
25,850333	0,5	-0,033550
25,858667	0,5	-0,022800
25,867000	0,5	-0,035050
25,875333	0,5	-0,032750
25,883667	0,5	-0,033550
25,892000	0,5	-0,027150
25,900333	0,5	-0,022950
25,908667	0,5	-0,023700
25,917000	0,5	-0,027650
25,925333	0,5	-0,025800
25,933667	0,5	-0,025300
25,942000	0,5	-0,023150
25,950333	0,5	-0,021750
25,958667	0,5	-0,023550
25,967000	0,5	-0,021750
25,975333	0,5	-0,021700
25,983667	0,5	-0,013600
25,992000	0,5	-0,013300
26,000333	0,5	-0,013200
