File Path	chrom://chromeleon01/ikbm_chromeleon/2022/ICS-5000/ED1/Esteban/20220612_Cell_7_4_eg.seq/238.smp/ED_1.channel/ED_1.chm
Channel	ED_1

Injection Information:
Data Vault	ikbm_chromeleon
Injection	CelS2_01h-EGS_3
Injection Number	112
Position	BB4
Comment	
Processing Method	Stop sequence after Cell Death
Instrument Method	ICS5000_PA200_FullNative_Ox_26min_ED1
Type	Unknown
Status	Finished
Injection Date	14.06.2022
Injection Time	21:00:37
Injection Volume (µl)	5,0
Dilution Factor	1,0000
Weight	1,0000

Chromatogram Data Information:
Time Min. (min)	0,000167
Time Max. (min)	26,000167
Data Points	3121
Detector	EDet1
Generating Data System	Chromeleon 7.2.9.11323
Exporting Data System	Chromeleon 7.2.9.0
Operator	Instrument Controller
Signal Quantity	
Signal Unit	nC
Signal Min.	-2,762350
Signal Max.	34,223401
Channel	ED_1
Driver Name	DC-5000
Channel Type	Evaluation
Min. Step (s)	0,5
Max. Step (s)	0,5
Average Step (s)	0,5

Signal Parameter Information:
Signal Info	

Chromatogram Data:
Time (min)	Step (s)	Value (nC)
0,000167	n.a.	-0,044650
0,008500	0,5	-0,074600
0,016833	0,5	-0,060650
0,025167	0,5	-0,060850
0,033500	0,5	-0,057550
0,041833	0,5	-0,051200
0,050167	0,5	-0,013000
0,058500	0,5	0,014750
0,066833	0,5	0,022600
0,075167	0,5	0,008100
0,083500	0,5	0,012050
0,091833	0,5	0,004450
0,100167	0,5	0,015600
0,108500	0,5	0,003850
0,116833	0,5	0,007600
0,125167	0,5	-0,002950
0,133500	0,5	-0,000750
0,141833	0,5	-0,006050
0,150167	0,5	-0,025000
0,158500	0,5	-0,015400
0,166833	0,5	-0,005000
0,175167	0,5	-0,031400
0,183500	0,5	-0,033700
0,191833	0,5	-0,029350
0,200167	0,5	-0,001750
0,208500	0,5	0,019750
0,216833	0,5	0,013050
0,225167	0,5	0,016500
0,233500	0,5	0,002000
0,241833	0,5	0,009400
0,250167	0,5	-0,000850
0,258500	0,5	0,002100
0,266833	0,5	-0,014200
0,275167	0,5	-0,012800
0,283500	0,5	-0,012400
0,291833	0,5	-0,018850
0,300167	0,5	-0,024500
0,308500	0,5	0,018100
0,316833	0,5	-0,024050
0,325167	0,5	-0,046100
0,333500	0,5	-0,055550
0,341833	0,5	-0,050100
0,350167	0,5	-0,015800
0,358500	0,5	-0,005800
0,366833	0,5	-0,007500
0,375167	0,5	-0,013150
0,383500	0,5	-0,007700
0,391833	0,5	-0,013750
0,400167	0,5	-0,015200
0,408500	0,5	-0,024950
0,416833	0,5	-0,020750
0,425167	0,5	-0,028100
0,433500	0,5	-0,024550
0,441833	0,5	-0,044550
0,450167	0,5	-0,050650
0,458500	0,5	-0,023650
0,466833	0,5	-0,038550
0,475167	0,5	-0,054750
0,483500	0,5	-0,046400
0,491833	0,5	-0,041200
0,500167	0,5	-0,000850
0,508500	0,5	-0,015600
0,516833	0,5	-0,024750
0,525167	0,5	-0,023500
0,533500	0,5	-0,018200
0,541833	0,5	-0,017950
0,550167	0,5	-0,024000
0,558500	0,5	-0,027250
0,566833	0,5	-0,036150
0,575167	0,5	-0,027150
0,583500	0,5	-0,023200
0,591833	0,5	-0,022850
0,600167	0,5	-0,037650
0,608500	0,5	-0,007350
0,616833	0,5	-0,042850
0,625167	0,5	-0,044050
0,633500	0,5	-0,038550
0,641833	0,5	-0,024250
0,650167	0,5	0,001850
0,658500	0,5	-0,009250
0,666833	0,5	-0,014850
0,675167	0,5	0,002050
0,683500	0,5	-0,003900
0,691833	0,5	-0,002700
0,700167	0,5	-0,004200
0,708500	0,5	-0,004100
0,716833	0,5	-0,006050
0,725167	0,5	-0,004800
0,733500	0,5	0,001000
0,741833	0,5	-0,018750
0,750167	0,5	-0,011500
0,758500	0,5	0,001250
0,766833	0,5	-0,017150
0,775167	0,5	-0,013900
0,783500	0,5	0,000400
0,791833	0,5	0,021850
0,800167	0,5	0,048550
0,808500	0,5	0,024900
0,816833	0,5	0,036300
0,825167	0,5	0,032900
0,833500	0,5	0,042700
0,841833	0,5	0,031700
0,850167	0,5	0,039950
0,858500	0,5	0,033050
0,866833	0,5	0,037350
0,875167	0,5	0,043650
0,883500	0,5	0,029100
0,891833	0,5	0,020350
0,900167	0,5	0,039950
0,908500	0,5	0,040200
0,916833	0,5	0,028650
0,925167	0,5	0,030050
0,933500	0,5	0,040050
0,941833	0,5	0,070700
0,950167	0,5	0,086800
0,958500	0,5	0,092600
0,966833	0,5	0,083050
0,975167	0,5	0,094150
0,983500	0,5	0,085300
0,991833	0,5	0,088150
1,000167	0,5	0,081000
1,008500	0,5	0,081750
1,016833	0,5	0,082200
1,025167	0,5	0,086650
1,033500	0,5	0,075250
1,041833	0,5	0,076800
1,050167	0,5	0,088100
1,058500	0,5	0,078350
1,066833	0,5	0,069050
1,075167	0,5	0,075500
1,083500	0,5	0,098200
1,091833	0,5	0,126000
1,100167	0,5	0,139700
1,108500	0,5	0,126850
1,116833	0,5	0,131700
1,125167	0,5	0,122300
1,133500	0,5	0,125350
1,141833	0,5	0,122950
1,150167	0,5	0,125100
1,158500	0,5	0,119850
1,166833	0,5	0,124050
1,175167	0,5	0,118700
1,183500	0,5	0,115500
1,191833	0,5	0,120350
1,200167	0,5	0,137750
1,208500	0,5	0,112500
1,216833	0,5	0,115200
1,225167	0,5	0,115950
1,233500	0,5	0,140150
1,241833	0,5	0,159050
1,250167	0,5	0,158850
1,258500	0,5	0,155650
1,266833	0,5	0,158150
1,275167	0,5	0,158950
1,283500	0,5	0,157950
1,291833	0,5	0,157300
1,300167	0,5	0,150500
1,308500	0,5	0,154500
1,316833	0,5	0,153050
1,325167	0,5	0,153900
1,333500	0,5	0,133850
1,341833	0,5	0,164500
1,350167	0,5	0,155100
1,358500	0,5	0,141600
1,366833	0,5	0,140950
1,375167	0,5	0,146250
1,383500	0,5	0,179900
1,391833	0,5	0,190800
1,400167	0,5	0,184750
1,408500	0,5	0,187300
1,416833	0,5	0,181150
1,425167	0,5	0,188350
1,433500	0,5	0,183650
1,441833	0,5	0,188100
1,450167	0,5	0,182750
1,458500	0,5	0,184550
1,466833	0,5	0,191000
1,475167	0,5	0,169350
1,483500	0,5	0,161750
1,491833	0,5	0,190650
1,500167	0,5	0,179000
1,508500	0,5	0,169800
1,516833	0,5	0,176350
1,525167	0,5	0,185000
1,533500	0,5	0,226200
1,541833	0,5	0,213050
1,550167	0,5	0,215550
1,558500	0,5	0,206600
1,566833	0,5	0,173800
1,575167	0,5	-0,019250
1,583500	0,5	-0,456550
1,591833	0,5	-0,926050
1,600167	0,5	-0,814650
1,608500	0,5	0,612750
1,616833	0,5	4,266600
1,625167	0,5	11,058850
1,633500	0,5	19,846500
1,641833	0,5	26,742900
1,650167	0,5	28,380450
1,658500	0,5	25,230100
1,666833	0,5	20,143800
1,675167	0,5	15,484300
1,683500	0,5	12,114050
1,691833	0,5	9,912000
1,700167	0,5	8,556050
1,708500	0,5	7,797050
1,716833	0,5	7,454700
1,725167	0,5	7,448950
1,733500	0,5	7,445350
1,741833	0,5	7,181700
1,750167	0,5	6,652900
1,758500	0,5	6,072900
1,766833	0,5	5,570950
1,775167	0,5	5,167500
1,783500	0,5	4,926750
1,791833	0,5	4,953950
1,800167	0,5	5,308050
1,808500	0,5	6,091800
1,816833	0,5	7,094550
1,825167	0,5	8,003450
1,833500	0,5	8,571150
1,841833	0,5	8,676900
1,850167	0,5	8,411900
1,858500	0,5	7,850750
1,866833	0,5	7,211850
1,875167	0,5	6,606200
1,883500	0,5	6,129200
1,891833	0,5	5,759850
1,900167	0,5	5,514700
1,908500	0,5	5,312400
1,916833	0,5	5,088650
1,925167	0,5	4,835800
1,933500	0,5	4,626600
1,941833	0,5	4,439700
1,950167	0,5	4,271900
1,958500	0,5	4,121600
1,966833	0,5	3,978400
1,975167	0,5	3,862000
1,983500	0,5	3,783150
1,991833	0,5	3,754350
2,000167	0,5	3,786850
2,008500	0,5	3,845400
2,016833	0,5	3,865350
2,025167	0,5	3,812950
2,033500	0,5	3,711900
2,041833	0,5	3,626400
2,050167	0,5	3,577250
2,058500	0,5	3,596350
2,066833	0,5	3,685300
2,075167	0,5	3,932100
2,083500	0,5	4,451850
2,091833	0,5	5,428050
2,100167	0,5	6,908750
2,108500	0,5	8,437000
2,116833	0,5	9,178550
2,125167	0,5	8,841350
2,133500	0,5	7,881250
2,141833	0,5	6,999200
2,150167	0,5	6,504700
2,158500	0,5	6,384100
2,166833	0,5	6,529850
2,175167	0,5	6,823150
2,183500	0,5	7,016200
2,191833	0,5	6,916050
2,200167	0,5	6,560700
2,208500	0,5	6,142550
2,216833	0,5	5,826700
2,225167	0,5	5,677150
2,233500	0,5	5,693500
2,241833	0,5	5,863450
2,250167	0,5	6,250300
2,258500	0,5	6,730150
2,266833	0,5	7,076900
2,275167	0,5	7,099250
2,283500	0,5	6,876100
2,291833	0,5	6,580100
2,300167	0,5	6,349000
2,308500	0,5	6,151350
2,316833	0,5	6,012000
2,325167	0,5	5,910550
2,333500	0,5	5,861400
2,341833	0,5	5,840650
2,350167	0,5	5,840950
2,358500	0,5	5,850350
2,366833	0,5	5,867450
2,375167	0,5	5,967100
2,383500	0,5	6,074450
2,391833	0,5	6,182050
2,400167	0,5	6,275200
2,408500	0,5	6,353950
2,416833	0,5	6,452850
2,425167	0,5	6,536700
2,433500	0,5	6,587750
2,441833	0,5	6,611750
2,450167	0,5	6,579350
2,458500	0,5	6,532800
2,466833	0,5	6,475550
2,475167	0,5	6,450550
2,483500	0,5	6,410500
2,491833	0,5	6,382100
2,500167	0,5	6,347250
2,508500	0,5	6,302850
2,516833	0,5	6,263450
2,525167	0,5	6,268650
2,533500	0,5	6,229350
2,541833	0,5	6,200700
2,550167	0,5	6,174400
2,558500	0,5	6,158450
2,566833	0,5	6,172750
2,575167	0,5	6,141150
2,583500	0,5	6,123700
2,591833	0,5	6,107100
2,600167	0,5	6,105600
2,608500	0,5	6,096600
2,616833	0,5	6,113300
2,625167	0,5	6,136900
2,633500	0,5	6,192500
2,641833	0,5	6,219450
2,650167	0,5	6,207300
2,658500	0,5	6,123250
2,666833	0,5	6,007500
2,675167	0,5	5,903400
2,683500	0,5	5,770050
2,691833	0,5	5,665050
2,700167	0,5	5,582450
2,708500	0,5	5,511550
2,716833	0,5	5,473900
2,725167	0,5	5,401850
2,733500	0,5	5,332600
2,741833	0,5	5,279350
2,750167	0,5	5,218400
2,758500	0,5	5,161200
2,766833	0,5	5,095750
2,775167	0,5	5,041450
2,783500	0,5	4,980350
2,791833	0,5	4,939350
2,800167	0,5	4,899800
2,808500	0,5	4,871400
2,816833	0,5	4,864800
2,825167	0,5	4,903800
2,833500	0,5	4,948050
2,841833	0,5	5,103200
2,850167	0,5	5,404950
2,858500	0,5	5,967300
2,866833	0,5	6,821100
2,875167	0,5	7,857150
2,883500	0,5	8,856700
2,891833	0,5	9,535750
2,900167	0,5	9,715900
2,908500	0,5	9,439250
2,916833	0,5	8,885800
2,925167	0,5	8,256450
2,933500	0,5	7,716250
2,941833	0,5	7,333750
2,950167	0,5	7,148250
2,958500	0,5	7,204050
2,966833	0,5	7,618500
2,975167	0,5	8,552050
2,983500	0,5	10,336800
2,991833	0,5	13,358500
3,000167	0,5	17,765500
3,008500	0,5	23,167550
3,016833	0,5	28,532700
3,025167	0,5	32,509750
3,033500	0,5	34,223401
3,041833	0,5	33,557501
3,050167	0,5	31,140600
3,058500	0,5	27,758500
3,066833	0,5	24,049750
3,075167	0,5	20,403350
3,083500	0,5	17,065750
3,091833	0,5	14,192750
3,100167	0,5	11,849150
3,108500	0,5	10,063250
3,116833	0,5	8,750800
3,125167	0,5	7,750650
3,133500	0,5	6,970050
3,141833	0,5	6,376150
3,150167	0,5	5,940750
3,158500	0,5	5,688950
3,166833	0,5	5,564550
3,175167	0,5	5,554100
3,183500	0,5	5,550350
3,191833	0,5	5,481000
3,200167	0,5	5,260050
3,208500	0,5	4,915900
3,216833	0,5	4,481800
3,225167	0,5	4,045300
3,233500	0,5	3,651950
3,241833	0,5	3,321050
3,250167	0,5	3,047700
3,258500	0,5	2,853650
3,266833	0,5	2,699750
3,275167	0,5	2,556550
3,283500	0,5	2,443400
3,291833	0,5	2,358100
3,300167	0,5	2,303050
3,308500	0,5	2,243500
3,316833	0,5	2,183800
3,325167	0,5	2,118100
3,333500	0,5	2,073500
3,341833	0,5	2,019050
3,350167	0,5	1,978850
3,358500	0,5	1,933300
3,366833	0,5	1,897000
3,375167	0,5	1,861400
3,383500	0,5	1,844000
3,391833	0,5	1,837400
3,400167	0,5	1,845000
3,408500	0,5	1,899800
3,416833	0,5	1,950600
3,425167	0,5	1,987100
3,433500	0,5	2,028600
3,441833	0,5	2,044450
3,450167	0,5	2,047700
3,458500	0,5	1,998350
3,466833	0,5	1,903100
3,475167	0,5	1,816300
3,483500	0,5	1,729550
3,491833	0,5	1,659700
3,500167	0,5	1,604250
3,508500	0,5	1,572050
3,516833	0,5	1,537400
3,525167	0,5	1,522000
3,533500	0,5	1,495850
3,541833	0,5	1,467400
3,550167	0,5	1,423750
3,558500	0,5	1,425300
3,566833	0,5	1,397200
3,575167	0,5	1,391850
3,583500	0,5	1,401800
3,591833	0,5	1,449950
3,600167	0,5	1,542950
3,608500	0,5	1,626650
3,616833	0,5	1,726250
3,625167	0,5	1,835500
3,633500	0,5	1,907450
3,641833	0,5	1,940700
3,650167	0,5	1,906700
3,658500	0,5	1,819100
3,666833	0,5	1,701050
3,675167	0,5	1,565450
3,683500	0,5	1,453450
3,691833	0,5	1,332900
3,700167	0,5	1,251250
3,708500	0,5	1,209100
3,716833	0,5	1,149200
3,725167	0,5	1,116350
3,733500	0,5	1,097700
3,741833	0,5	1,084300
3,750167	0,5	1,101500
3,758500	0,5	1,074350
3,766833	0,5	1,068750
3,775167	0,5	1,054400
3,783500	0,5	1,054000
3,791833	0,5	1,039500
3,800167	0,5	1,030700
3,808500	0,5	1,022600
3,816833	0,5	1,011600
3,825167	0,5	1,005850
3,833500	0,5	0,993050
3,841833	0,5	0,981550
3,850167	0,5	0,979550
3,858500	0,5	0,987150
3,866833	0,5	0,969050
3,875167	0,5	0,971200
3,883500	0,5	0,972300
3,891833	0,5	0,992250
3,900167	0,5	1,009150
3,908500	0,5	1,007550
3,916833	0,5	0,991350
3,925167	0,5	0,999650
3,933500	0,5	0,993550
3,941833	0,5	0,996000
3,950167	0,5	0,987200
3,958500	0,5	0,980800
3,966833	0,5	0,973850
3,975167	0,5	0,969400
3,983500	0,5	0,953900
3,991833	0,5	0,934900
4,000167	0,5	0,931250
4,008500	0,5	0,920500
4,016833	0,5	0,892550
4,025167	0,5	0,884850
4,033500	0,5	0,875600
4,041833	0,5	0,882450
4,050167	0,5	0,894700
4,058500	0,5	0,876800
4,066833	0,5	0,878950
4,075167	0,5	0,869250
4,083500	0,5	0,874600
4,091833	0,5	0,865500
4,100167	0,5	0,866050
4,108500	0,5	0,853400
4,116833	0,5	0,856750
4,125167	0,5	0,854050
4,133500	0,5	0,835150
4,141833	0,5	0,826350
4,150167	0,5	0,841400
4,158500	0,5	0,819500
4,166833	0,5	0,806450
4,175167	0,5	0,804100
4,183500	0,5	0,810250
4,191833	0,5	0,830600
4,200167	0,5	0,824250
4,208500	0,5	0,824000
4,216833	0,5	0,822150
4,225167	0,5	0,825050
4,233500	0,5	0,815850
4,241833	0,5	0,820900
4,250167	0,5	0,819550
4,258500	0,5	0,824000
4,266833	0,5	0,826300
4,275167	0,5	0,827700
4,283500	0,5	0,817800
4,291833	0,5	0,839350
4,300167	0,5	0,851350
4,308500	0,5	0,857300
4,316833	0,5	0,867600
4,325167	0,5	0,901450
4,333500	0,5	0,949150
4,341833	0,5	0,996400
4,350167	0,5	1,023150
4,358500	0,5	1,046350
4,366833	0,5	1,066400
4,375167	0,5	1,070750
4,383500	0,5	1,060150
4,391833	0,5	1,041300
4,400167	0,5	1,005100
4,408500	0,5	0,963600
4,416833	0,5	0,932400
4,425167	0,5	0,896650
4,433500	0,5	0,859600
4,441833	0,5	0,847200
4,450167	0,5	0,825600
4,458500	0,5	0,794350
4,466833	0,5	0,781650
4,475167	0,5	0,775000
4,483500	0,5	0,790050
4,491833	0,5	0,790550
4,500167	0,5	0,785150
4,508500	0,5	0,779350
4,516833	0,5	0,778200
4,525167	0,5	0,769650
4,533500	0,5	0,768550
4,541833	0,5	0,763650
4,550167	0,5	0,760000
4,558500	0,5	0,758350
4,566833	0,5	0,754250
4,575167	0,5	0,753850
4,583500	0,5	0,733300
4,591833	0,5	0,751850
4,600167	0,5	0,740000
4,608500	0,5	0,734800
4,616833	0,5	0,729250
4,625167	0,5	0,743250
4,633500	0,5	0,765200
4,641833	0,5	0,766250
4,650167	0,5	0,754700
4,658500	0,5	0,766900
4,666833	0,5	0,763450
4,675167	0,5	0,777400
4,683500	0,5	0,774050
4,691833	0,5	0,789750
4,700167	0,5	0,791650
4,708500	0,5	0,801000
4,716833	0,5	0,809000
4,725167	0,5	0,798900
4,733500	0,5	0,797150
4,741833	0,5	0,814650
4,750167	0,5	0,796300
4,758500	0,5	0,787550
4,766833	0,5	0,784350
4,775167	0,5	0,783800
4,783500	0,5	0,807100
4,791833	0,5	0,791150
4,800167	0,5	0,790400
4,808500	0,5	0,781000
4,816833	0,5	0,781200
4,825167	0,5	0,768350
4,833500	0,5	0,770200
4,841833	0,5	0,761150
4,850167	0,5	0,761250
4,858500	0,5	0,758800
4,866833	0,5	0,759600
4,875167	0,5	0,754650
4,883500	0,5	0,762350
4,891833	0,5	0,766800
4,900167	0,5	0,760700
4,908500	0,5	0,763250
4,916833	0,5	0,772950
4,925167	0,5	0,800150
4,933500	0,5	0,828750
4,941833	0,5	0,843350
4,950167	0,5	0,844250
4,958500	0,5	0,865100
4,966833	0,5	0,877600
4,975167	0,5	0,909600
4,983500	0,5	0,938500
4,991833	0,5	0,976400
5,000167	0,5	1,018700
5,008500	0,5	1,080600
5,016833	0,5	1,146150
5,025167	0,5	1,222050
5,033500	0,5	1,317450
5,041833	0,5	1,419550
5,050167	0,5	1,512950
5,058500	0,5	1,637500
5,066833	0,5	1,759550
5,075167	0,5	1,915500
5,083500	0,5	2,067200
5,091833	0,5	2,205750
5,100167	0,5	2,356700
5,108500	0,5	2,498700
5,116833	0,5	2,637600
5,125167	0,5	2,757650
5,133500	0,5	2,860850
5,141833	0,5	2,915850
5,150167	0,5	2,943850
5,158500	0,5	2,916750
5,166833	0,5	2,844350
5,175167	0,5	2,724750
5,183500	0,5	2,596200
5,191833	0,5	2,406300
5,200167	0,5	2,212850
5,208500	0,5	2,021600
5,216833	0,5	1,854500
5,225167	0,5	1,710750
5,233500	0,5	1,567550
5,241833	0,5	1,439800
5,250167	0,5	1,337800
5,258500	0,5	1,253500
5,266833	0,5	1,187850
5,275167	0,5	1,135600
5,283500	0,5	1,094300
5,291833	0,5	1,066200
5,300167	0,5	1,045700
5,308500	0,5	1,033650
5,316833	0,5	1,009850
5,325167	0,5	1,010850
5,333500	0,5	1,022150
5,341833	0,5	1,018050
5,350167	0,5	1,015900
5,358500	0,5	1,035100
5,366833	0,5	1,054650
5,375167	0,5	1,085350
5,383500	0,5	1,087850
5,391833	0,5	1,100350
5,400167	0,5	1,111700
5,408500	0,5	1,128300
5,416833	0,5	1,136750
5,425167	0,5	1,158950
5,433500	0,5	1,172050
5,441833	0,5	1,191800
5,450167	0,5	1,215350
5,458500	0,5	1,240200
5,466833	0,5	1,255800
5,475167	0,5	1,290950
5,483500	0,5	1,307350
5,491833	0,5	1,307000
5,500167	0,5	1,312150
5,508500	0,5	1,311650
5,516833	0,5	1,319100
5,525167	0,5	1,307350
5,533500	0,5	1,279900
5,541833	0,5	1,242750
5,550167	0,5	1,218350
5,558500	0,5	1,177050
5,566833	0,5	1,145400
5,575167	0,5	1,106450
5,583500	0,5	1,080550
5,591833	0,5	1,050400
5,600167	0,5	1,030800
5,608500	0,5	1,019100
5,616833	0,5	0,991450
5,625167	0,5	0,996400
5,633500	0,5	0,981800
5,641833	0,5	0,966450
5,650167	0,5	0,960850
5,658500	0,5	0,968400
5,666833	0,5	0,991600
5,675167	0,5	0,992600
5,683500	0,5	0,981850
5,691833	0,5	0,986050
5,700167	0,5	0,989400
5,708500	0,5	0,999500
5,716833	0,5	0,996250
5,725167	0,5	1,003700
5,733500	0,5	1,001950
5,741833	0,5	1,015300
5,750167	0,5	1,020450
5,758500	0,5	1,027200
5,766833	0,5	1,024350
5,775167	0,5	1,053100
5,783500	0,5	1,045900
5,791833	0,5	1,056800
5,800167	0,5	1,068050
5,808500	0,5	1,094100
5,816833	0,5	1,130700
5,825167	0,5	1,146650
5,833500	0,5	1,165800
5,841833	0,5	1,189850
5,850167	0,5	1,220700
5,858500	0,5	1,249850
5,866833	0,5	1,294400
5,875167	0,5	1,343000
5,883500	0,5	1,412750
5,891833	0,5	1,502650
5,900167	0,5	1,623300
5,908500	0,5	1,758250
5,916833	0,5	1,944900
5,925167	0,5	2,159150
5,933500	0,5	2,385550
5,941833	0,5	2,634450
5,950167	0,5	2,892000
5,958500	0,5	3,135600
5,966833	0,5	3,346200
5,975167	0,5	3,482850
5,983500	0,5	3,551150
5,991833	0,5	3,544550
6,000167	0,5	3,468300
6,008500	0,5	3,327850
6,016833	0,5	3,144800
6,025167	0,5	2,932150
6,033500	0,5	2,707400
6,041833	0,5	2,488500
6,050167	0,5	2,266950
6,058500	0,5	2,071500
6,066833	0,5	1,917600
6,075167	0,5	1,776350
6,083500	0,5	1,652350
6,091833	0,5	1,561400
6,100167	0,5	1,484550
6,108500	0,5	1,447150
6,116833	0,5	1,405400
6,125167	0,5	1,374400
6,133500	0,5	1,341850
6,141833	0,5	1,325700
6,150167	0,5	1,306600
6,158500	0,5	1,296350
6,166833	0,5	1,288000
6,175167	0,5	1,278400
6,183500	0,5	1,275800
6,191833	0,5	1,279250
6,200167	0,5	1,282300
6,208500	0,5	1,286400
6,216833	0,5	1,309550
6,225167	0,5	1,309000
6,233500	0,5	1,315550
6,241833	0,5	1,326950
6,250167	0,5	1,343450
6,258500	0,5	1,368500
6,266833	0,5	1,377000
6,275167	0,5	1,372250
6,283500	0,5	1,375350
6,291833	0,5	1,364600
6,300167	0,5	1,356600
6,308500	0,5	1,344750
6,316833	0,5	1,337800
6,325167	0,5	1,327400
6,333500	0,5	1,319300
6,341833	0,5	1,316150
6,350167	0,5	1,299200
6,358500	0,5	1,294100
6,366833	0,5	1,303750
6,375167	0,5	1,292000
6,383500	0,5	1,284950
6,391833	0,5	1,291500
6,400167	0,5	1,299200
6,408500	0,5	1,317050
6,416833	0,5	1,308800
6,425167	0,5	1,313300
6,433500	0,5	1,314100
6,441833	0,5	1,322350
6,450167	0,5	1,322800
6,458500	0,5	1,330500
6,466833	0,5	1,328800
6,475167	0,5	1,337350
6,483500	0,5	1,340300
6,491833	0,5	1,348550
6,500167	0,5	1,344800
6,508500	0,5	1,363750
6,516833	0,5	1,377250
6,525167	0,5	1,376700
6,533500	0,5	1,385400
6,541833	0,5	1,394500
6,550167	0,5	1,414400
6,558500	0,5	1,430850
6,566833	0,5	1,430100
6,575167	0,5	1,430750
6,583500	0,5	1,439750
6,591833	0,5	1,438700
6,600167	0,5	1,441150
6,608500	0,5	1,444300
6,616833	0,5	1,444950
6,625167	0,5	1,448250
6,633500	0,5	1,453550
6,641833	0,5	1,453400
6,650167	0,5	1,452250
6,658500	0,5	1,462850
6,666833	0,5	1,465900
6,675167	0,5	1,456850
6,683500	0,5	1,459600
6,691833	0,5	1,471400
6,700167	0,5	1,493650
6,708500	0,5	1,500600
6,716833	0,5	1,499600
6,725167	0,5	1,499600
6,733500	0,5	1,502950
6,741833	0,5	1,505150
6,750167	0,5	1,504850
6,758500	0,5	1,510350
6,766833	0,5	1,507350
6,775167	0,5	1,511900
6,783500	0,5	1,510700
6,791833	0,5	1,515900
6,800167	0,5	1,511250
6,808500	0,5	1,523950
6,816833	0,5	1,514900
6,825167	0,5	1,513600
6,833500	0,5	1,516000
6,841833	0,5	1,528500
6,850167	0,5	1,542950
6,858500	0,5	1,551250
6,866833	0,5	1,549900
6,875167	0,5	1,558750
6,883500	0,5	1,560300
6,891833	0,5	1,566400
6,900167	0,5	1,564050
6,908500	0,5	1,564250
6,916833	0,5	1,563850
6,925167	0,5	1,561150
6,933500	0,5	1,563000
6,941833	0,5	1,555600
6,950167	0,5	1,558200
6,958500	0,5	1,568000
6,966833	0,5	1,562200
6,975167	0,5	1,570100
6,983500	0,5	1,585450
6,991833	0,5	1,620900
7,000167	0,5	1,658150
7,008500	0,5	1,684100
7,016833	0,5	1,705350
7,025167	0,5	1,708450
7,033500	0,5	1,709400
7,041833	0,5	1,687950
7,050167	0,5	1,666300
7,058500	0,5	1,636950
7,066833	0,5	1,612050
7,075167	0,5	1,592850
7,083500	0,5	1,576500
7,091833	0,5	1,561100
7,100167	0,5	1,562050
7,108500	0,5	1,551800
7,116833	0,5	1,542500
7,125167	0,5	1,542550
7,133500	0,5	1,535700
7,141833	0,5	1,541350
7,150167	0,5	1,527800
7,158500	0,5	1,517300
7,166833	0,5	1,497700
7,175167	0,5	1,483300
7,183500	0,5	1,469150
7,191833	0,5	1,458550
7,200167	0,5	1,448950
7,208500	0,5	1,441250
7,216833	0,5	1,431300
7,225167	0,5	1,427600
7,233500	0,5	1,422500
7,241833	0,5	1,417250
7,250167	0,5	1,417300
7,258500	0,5	1,404350
7,266833	0,5	1,387300
7,275167	0,5	1,380850
7,283500	0,5	1,374650
7,291833	0,5	1,382200
7,300167	0,5	1,376450
7,308500	0,5	1,370400
7,316833	0,5	1,369950
7,325167	0,5	1,365200
7,333500	0,5	1,362900
7,341833	0,5	1,359050
7,350167	0,5	1,356900
7,358500	0,5	1,353400
7,366833	0,5	1,357250
7,375167	0,5	1,357350
7,383500	0,5	1,356800
7,391833	0,5	1,356400
7,400167	0,5	1,371500
7,408500	0,5	1,364150
7,416833	0,5	1,358500
7,425167	0,5	1,356700
7,433500	0,5	1,354650
7,441833	0,5	1,354750
7,450167	0,5	1,340050
7,458500	0,5	1,327250
7,466833	0,5	1,320550
7,475167	0,5	1,316350
7,483500	0,5	1,314400
7,491833	0,5	1,318050
7,500167	0,5	1,319450
7,508500	0,5	1,321850
7,516833	0,5	1,318050
7,525167	0,5	1,320250
7,533500	0,5	1,302650
7,541833	0,5	1,293100
7,550167	0,5	1,284800
7,558500	0,5	1,269500
7,566833	0,5	1,258100
7,575167	0,5	1,249450
7,583500	0,5	1,247250
7,591833	0,5	1,247550
7,600167	0,5	1,237150
7,608500	0,5	1,235600
7,616833	0,5	1,232650
7,625167	0,5	1,233500
7,633500	0,5	1,237550
7,641833	0,5	1,255850
7,650167	0,5	1,290450
7,658500	0,5	1,345450
7,666833	0,5	1,423700
7,675167	0,5	1,505150
7,683500	0,5	1,588700
7,691833	0,5	1,670900
7,700167	0,5	1,710050
7,708500	0,5	1,690750
7,716833	0,5	1,628700
7,725167	0,5	1,533200
7,733500	0,5	1,440250
7,741833	0,5	1,355550
7,750167	0,5	1,295750
7,758500	0,5	1,248900
7,766833	0,5	1,228900
7,775167	0,5	1,215950
7,783500	0,5	1,211700
7,791833	0,5	1,210850
7,800167	0,5	1,211600
7,808500	0,5	1,210100
7,816833	0,5	1,204800
7,825167	0,5	1,192450
7,833500	0,5	1,178000
7,841833	0,5	1,169300
7,850167	0,5	1,159600
7,858500	0,5	1,149750
7,866833	0,5	1,147400
7,875167	0,5	1,147350
7,883500	0,5	1,153200
7,891833	0,5	1,152700
7,900167	0,5	1,150700
7,908500	0,5	1,156450
7,916833	0,5	1,161050
7,925167	0,5	1,180750
7,933500	0,5	1,203150
7,941833	0,5	1,226100
7,950167	0,5	1,232300
7,958500	0,5	1,221100
7,966833	0,5	1,190650
7,975167	0,5	1,157250
7,983500	0,5	1,129600
7,991833	0,5	1,120950
8,000167	0,5	1,126400
8,008500	0,5	1,153000
8,016833	0,5	1,197100
8,025167	0,5	1,248200
8,033500	0,5	1,294200
8,041833	0,5	1,328050
8,050167	0,5	1,369800
8,058500	0,5	1,431400
8,066833	0,5	1,520200
8,075167	0,5	1,631700
8,083500	0,5	1,773850
8,091833	0,5	1,949350
8,100167	0,5	2,209800
8,108500	0,5	2,637450
8,116833	0,5	3,419500
8,125167	0,5	4,771950
8,133500	0,5	6,845800
8,141833	0,5	9,415750
8,150167	0,5	11,831700
8,158500	0,5	13,244150
8,166833	0,5	13,116450
8,175167	0,5	11,553550
8,183500	0,5	9,183750
8,191833	0,5	6,755300
8,200167	0,5	4,769300
8,208500	0,5	3,379600
8,216833	0,5	2,513500
8,225167	0,5	2,009650
8,233500	0,5	1,728150
8,241833	0,5	1,575200
8,250167	0,5	1,482500
8,258500	0,5	1,424550
8,266833	0,5	1,369650
8,275167	0,5	1,321900
8,283500	0,5	1,286050
8,291833	0,5	1,254800
8,300167	0,5	1,232150
8,308500	0,5	1,213900
8,316833	0,5	1,189250
8,325167	0,5	1,164300
8,333500	0,5	1,136250
8,341833	0,5	1,116350
8,350167	0,5	1,101650
8,358500	0,5	1,094150
8,366833	0,5	1,087850
8,375167	0,5	1,081700
8,383500	0,5	1,071950
8,391833	0,5	1,059650
8,400167	0,5	1,046900
8,408500	0,5	1,033200
8,416833	0,5	1,020600
8,425167	0,5	1,008450
8,433500	0,5	1,003700
8,441833	0,5	0,996050
8,450167	0,5	0,989500
8,458500	0,5	0,989100
8,466833	0,5	0,993600
8,475167	0,5	0,998300
8,483500	0,5	1,004100
8,491833	0,5	1,008850
8,500167	0,5	1,014350
8,508500	0,5	1,015800
8,516833	0,5	1,020100
8,525167	0,5	1,028000
8,533500	0,5	1,040950
8,541833	0,5	1,053750
8,550167	0,5	1,053100
8,558500	0,5	1,047400
8,566833	0,5	1,028600
8,575167	0,5	1,010650
8,583500	0,5	1,004600
8,591833	0,5	1,003600
8,600167	0,5	1,004400
8,608500	0,5	1,009850
8,616833	0,5	1,018550
8,625167	0,5	1,024650
8,633500	0,5	1,025950
8,641833	0,5	1,021750
8,650167	0,5	1,014750
8,658500	0,5	0,996950
8,666833	0,5	0,980400
8,675167	0,5	0,967700
8,683500	0,5	0,964350
8,691833	0,5	0,975450
8,700167	0,5	0,992200
8,708500	0,5	1,015550
8,716833	0,5	1,043450
8,725167	0,5	1,074150
8,733500	0,5	1,104950
8,741833	0,5	1,121750
8,750167	0,5	1,131100
8,758500	0,5	1,120900
8,766833	0,5	1,107000
8,775167	0,5	1,075900
8,783500	0,5	1,050150
8,791833	0,5	1,024750
8,800167	0,5	1,015650
8,808500	0,5	1,015500
8,816833	0,5	1,027050
8,825167	0,5	1,056650
8,833500	0,5	1,111550
8,841833	0,5	1,187500
8,850167	0,5	1,282550
8,858500	0,5	1,377750
8,866833	0,5	1,481700
8,875167	0,5	1,606550
8,883500	0,5	1,780700
8,891833	0,5	2,074950
8,900167	0,5	2,632200
8,908500	0,5	3,690500
8,916833	0,5	5,482650
8,925167	0,5	7,964500
8,933500	0,5	10,569150
8,941833	0,5	12,361850
8,950167	0,5	12,605900
8,958500	0,5	11,261150
8,966833	0,5	8,951800
8,975167	0,5	6,509950
8,983500	0,5	4,500000
8,991833	0,5	3,113600
9,000167	0,5	2,261700
9,008500	0,5	1,776100
9,016833	0,5	1,502050
9,025167	0,5	1,355500
9,033500	0,5	1,270400
9,041833	0,5	1,217850
9,050167	0,5	1,185700
9,058500	0,5	1,161150
9,066833	0,5	1,144950
9,075167	0,5	1,128650
9,083500	0,5	1,118050
9,091833	0,5	1,114400
9,100167	0,5	1,120050
9,108500	0,5	1,126300
9,116833	0,5	1,136650
9,125167	0,5	1,139750
9,133500	0,5	1,142700
9,141833	0,5	1,145150
9,150167	0,5	1,143000
9,158500	0,5	1,143500
9,166833	0,5	1,146650
9,175167	0,5	1,153850
9,183500	0,5	1,162350
9,191833	0,5	1,175250
9,200167	0,5	1,191200
9,208500	0,5	1,212700
9,216833	0,5	1,227450
9,225167	0,5	1,237250
9,233500	0,5	1,238150
9,241833	0,5	1,230300
9,250167	0,5	1,225100
9,258500	0,5	1,218200
9,266833	0,5	1,219050
9,275167	0,5	1,219450
9,283500	0,5	1,223850
9,291833	0,5	1,220200
9,300167	0,5	1,207300
9,308500	0,5	1,174150
9,316833	0,5	1,145100
9,325167	0,5	1,116550
9,333500	0,5	1,091150
9,341833	0,5	1,071400
9,350167	0,5	1,064250
9,358500	0,5	1,061250
9,366833	0,5	1,063150
9,375167	0,5	1,063250
9,383500	0,5	1,071300
9,391833	0,5	1,078200
9,400167	0,5	1,083050
9,408500	0,5	1,090350
9,416833	0,5	1,099400
9,425167	0,5	1,109650
9,433500	0,5	1,114600
9,441833	0,5	1,126000
9,450167	0,5	1,133550
9,458500	0,5	1,138900
9,466833	0,5	1,147450
9,475167	0,5	1,156350
9,483500	0,5	1,160100
9,491833	0,5	1,165150
9,500167	0,5	1,166000
9,508500	0,5	1,164850
9,516833	0,5	1,164350
9,525167	0,5	1,164950
9,533500	0,5	1,165900
9,541833	0,5	1,173350
9,550167	0,5	1,182850
9,558500	0,5	1,195000
9,566833	0,5	1,215650
9,575167	0,5	1,245700
9,583500	0,5	1,283700
9,591833	0,5	1,325600
9,600167	0,5	1,373800
9,608500	0,5	1,422150
9,616833	0,5	1,465350
9,625167	0,5	1,499100
9,633500	0,5	1,521700
9,641833	0,5	1,528750
9,650167	0,5	1,529200
9,658500	0,5	1,521950
9,666833	0,5	1,505050
9,675167	0,5	1,485650
9,683500	0,5	1,465450
9,691833	0,5	1,442600
9,700167	0,5	1,432300
9,708500	0,5	1,425000
9,716833	0,5	1,422900
9,725167	0,5	1,425900
9,733500	0,5	1,431250
9,741833	0,5	1,438950
9,750167	0,5	1,449700
9,758500	0,5	1,457700
9,766833	0,5	1,467000
9,775167	0,5	1,472050
9,783500	0,5	1,478700
9,791833	0,5	1,486400
9,800167	0,5	1,496250
9,808500	0,5	1,510000
9,816833	0,5	1,523750
9,825167	0,5	1,535350
9,833500	0,5	1,542650
9,841833	0,5	1,549450
9,850167	0,5	1,549600
9,858500	0,5	1,548500
9,866833	0,5	1,551600
9,875167	0,5	1,555250
9,883500	0,5	1,566450
9,891833	0,5	1,579600
9,900167	0,5	1,592600
9,908500	0,5	1,612250
9,916833	0,5	1,633700
9,925167	0,5	1,651150
9,933500	0,5	1,665250
9,941833	0,5	1,676900
9,950167	0,5	1,679350
9,958500	0,5	1,685000
9,966833	0,5	1,687000
9,975167	0,5	1,688400
9,983500	0,5	1,692600
9,991833	0,5	1,700750
10,000167	0,5	1,709000
10,008500	0,5	1,723650
10,016833	0,5	1,740100
10,025167	0,5	1,761900
10,033500	0,5	1,794350
10,041833	0,5	1,835900
10,050167	0,5	1,891050
10,058500	0,5	1,964950
10,066833	0,5	2,061800
10,075167	0,5	2,165000
10,083500	0,5	2,287500
10,091833	0,5	2,415000
10,100167	0,5	2,546300
10,108500	0,5	2,666600
10,116833	0,5	2,768450
10,125167	0,5	2,836850
10,133500	0,5	2,862000
10,141833	0,5	2,837600
10,150167	0,5	2,770150
10,158500	0,5	2,657300
10,166833	0,5	2,524100
10,175167	0,5	2,383450
10,183500	0,5	2,245200
10,191833	0,5	2,129600
10,200167	0,5	2,028150
10,208500	0,5	1,962400
10,216833	0,5	1,915600
10,225167	0,5	1,887400
10,233500	0,5	1,872100
10,241833	0,5	1,864550
10,250167	0,5	1,864850
10,258500	0,5	1,864500
10,266833	0,5	1,853450
10,275167	0,5	1,843000
10,283500	0,5	1,831800
10,291833	0,5	1,819500
10,300167	0,5	1,810350
10,308500	0,5	1,804000
10,316833	0,5	1,799950
10,325167	0,5	1,794550
10,333500	0,5	1,794800
10,341833	0,5	1,790800
10,350167	0,5	1,787050
10,358500	0,5	1,789650
10,366833	0,5	1,796000
10,375167	0,5	1,797250
10,383500	0,5	1,804550
10,391833	0,5	1,806850
10,400167	0,5	1,815600
10,408500	0,5	1,819500
10,416833	0,5	1,820650
10,425167	0,5	1,817600
10,433500	0,5	1,815550
10,441833	0,5	1,815850
10,450167	0,5	1,817750
10,458500	0,5	1,822700
10,466833	0,5	1,825800
10,475167	0,5	1,826900
10,483500	0,5	1,837250
10,491833	0,5	1,840900
10,500167	0,5	1,851900
10,508500	0,5	1,862250
10,516833	0,5	1,869100
10,525167	0,5	1,873400
10,533500	0,5	1,871850
10,541833	0,5	1,867200
10,550167	0,5	1,862300
10,558500	0,5	1,856400
10,566833	0,5	1,843150
10,575167	0,5	1,836150
10,583500	0,5	1,827400
10,591833	0,5	1,819600
10,600167	0,5	1,814300
10,608500	0,5	1,808350
10,616833	0,5	1,802900
10,625167	0,5	1,800050
10,633500	0,5	1,795050
10,641833	0,5	1,790600
10,650167	0,5	1,787900
10,658500	0,5	1,781050
10,666833	0,5	1,773550
10,675167	0,5	1,764450
10,683500	0,5	1,755750
10,691833	0,5	1,748100
10,700167	0,5	1,750350
10,708500	0,5	1,750600
10,716833	0,5	1,752250
10,725167	0,5	1,762350
10,733500	0,5	1,765500
10,741833	0,5	1,770150
10,750167	0,5	1,770800
10,758500	0,5	1,762250
10,766833	0,5	1,749250
10,775167	0,5	1,728950
10,783500	0,5	1,711150
10,791833	0,5	1,684450
10,800167	0,5	1,666750
10,808500	0,5	1,648750
10,816833	0,5	1,627800
10,825167	0,5	1,608050
10,833500	0,5	1,592600
10,841833	0,5	1,584050
10,850167	0,5	1,575450
10,858500	0,5	1,569650
10,866833	0,5	1,566000
10,875167	0,5	1,561850
10,883500	0,5	1,559750
10,891833	0,5	1,556400
10,900167	0,5	1,550650
10,908500	0,5	1,546850
10,916833	0,5	1,551700
10,925167	0,5	1,564100
10,933500	0,5	1,570850
10,941833	0,5	1,580700
10,950167	0,5	1,592950
10,958500	0,5	1,592700
10,966833	0,5	1,585400
10,975167	0,5	1,569350
10,983500	0,5	1,548750
10,991833	0,5	1,529850
11,000167	0,5	1,509400
11,008500	0,5	1,489300
11,016833	0,5	1,471700
11,025167	0,5	1,453750
11,033500	0,5	1,439050
11,041833	0,5	1,430100
11,050167	0,5	1,422050
11,058500	0,5	1,414050
11,066833	0,5	1,412400
11,075167	0,5	1,407600
11,083500	0,5	1,402000
11,091833	0,5	1,405600
11,100167	0,5	1,412000
11,108500	0,5	1,417250
11,116833	0,5	1,428600
11,125167	0,5	1,433150
11,133500	0,5	1,446100
11,141833	0,5	1,448950
11,150167	0,5	1,446000
11,158500	0,5	1,435550
11,166833	0,5	1,423600
11,175167	0,5	1,409100
11,183500	0,5	1,396300
11,191833	0,5	1,380550
11,200167	0,5	1,371400
11,208500	0,5	1,364650
11,216833	0,5	1,357900
11,225167	0,5	1,352900
11,233500	0,5	1,347100
11,241833	0,5	1,350450
11,250167	0,5	1,353800
11,258500	0,5	1,357150
11,266833	0,5	1,361900
11,275167	0,5	1,364800
11,283500	0,5	1,383450
11,291833	0,5	1,399200
11,300167	0,5	1,411850
11,308500	0,5	1,425900
11,316833	0,5	1,437150
11,325167	0,5	1,441700
11,333500	0,5	1,442150
11,341833	0,5	1,440150
11,350167	0,5	1,430400
11,358500	0,5	1,415300
11,366833	0,5	1,392400
11,375167	0,5	1,361800
11,383500	0,5	1,317550
11,391833	0,5	1,292400
11,400167	0,5	1,263800
11,408500	0,5	1,244300
11,416833	0,5	1,230950
11,425167	0,5	1,232050
11,433500	0,5	1,248250
11,441833	0,5	1,264600
11,450167	0,5	1,288850
11,458500	0,5	1,304450
11,466833	0,5	1,316650
11,475167	0,5	1,323300
11,483500	0,5	1,325150
11,491833	0,5	1,321000
11,500167	0,5	1,313050
11,508500	0,5	1,307500
11,516833	0,5	1,305500
11,525167	0,5	1,290950
11,533500	0,5	1,284400
11,541833	0,5	1,281650
11,550167	0,5	1,275500
11,558500	0,5	1,266000
11,566833	0,5	1,256750
11,575167	0,5	1,252250
11,583500	0,5	1,256600
11,591833	0,5	1,254400
11,600167	0,5	1,252450
11,608500	0,5	1,250700
11,616833	0,5	1,247350
11,625167	0,5	1,240000
11,633500	0,5	1,234250
11,641833	0,5	1,227800
11,650167	0,5	1,218700
11,658500	0,5	1,219650
11,666833	0,5	1,213650
11,675167	0,5	1,205200
11,683500	0,5	1,203450
11,691833	0,5	1,204600
11,700167	0,5	1,204450
11,708500	0,5	1,199900
11,716833	0,5	1,193700
11,725167	0,5	1,191450
11,733500	0,5	1,196950
11,741833	0,5	1,198400
11,750167	0,5	1,200150
11,758500	0,5	1,205650
11,766833	0,5	1,211850
11,775167	0,5	1,220900
11,783500	0,5	1,231100
11,791833	0,5	1,239750
11,800167	0,5	1,255050
11,808500	0,5	1,269550
11,816833	0,5	1,285150
11,825167	0,5	1,293800
11,833500	0,5	1,310500
11,841833	0,5	1,313700
11,850167	0,5	1,319000
11,858500	0,5	1,313950
11,866833	0,5	1,311900
11,875167	0,5	1,307350
11,883500	0,5	1,309300
11,891833	0,5	1,312050
11,900167	0,5	1,316900
11,908500	0,5	1,323650
11,916833	0,5	1,331500
11,925167	0,5	1,341900
11,933500	0,5	1,354250
11,941833	0,5	1,366150
11,950167	0,5	1,378100
11,958500	0,5	1,399750
11,966833	0,5	1,412700
11,975167	0,5	1,431700
11,983500	0,5	1,463100
11,991833	0,5	1,495350
12,000167	0,5	1,529450
12,008500	0,5	1,566850
12,016833	0,5	1,608550
12,025167	0,5	1,657200
12,033500	0,5	1,693650
12,041833	0,5	1,726700
12,050167	0,5	1,740150
12,058500	0,5	1,743900
12,066833	0,5	1,733150
12,075167	0,5	1,719100
12,083500	0,5	1,700500
12,091833	0,5	1,684300
12,100167	0,5	1,673700
12,108500	0,5	1,660750
12,116833	0,5	1,640550
12,125167	0,5	1,632100
12,133500	0,5	1,618700
12,141833	0,5	1,597950
12,150167	0,5	1,576950
12,158500	0,5	1,556400
12,166833	0,5	1,545850
12,175167	0,5	1,538050
12,183500	0,5	1,535150
12,191833	0,5	1,531000
12,200167	0,5	1,536150
12,208500	0,5	1,532100
12,216833	0,5	1,537400
12,225167	0,5	1,537800
12,233500	0,5	1,532950
12,241833	0,5	1,528350
12,250167	0,5	1,531400
12,258500	0,5	1,527250
12,266833	0,5	1,517100
12,275167	0,5	1,521200
12,283500	0,5	1,520600
12,291833	0,5	1,515400
12,300167	0,5	1,512900
12,308500	0,5	1,507800
12,316833	0,5	1,513400
12,325167	0,5	1,519900
12,333500	0,5	1,528800
12,341833	0,5	1,532800
12,350167	0,5	1,540650
12,358500	0,5	1,543700
12,366833	0,5	1,544150
12,375167	0,5	1,542700
12,383500	0,5	1,532750
12,391833	0,5	1,525100
12,400167	0,5	1,519350
12,408500	0,5	1,506400
12,416833	0,5	1,489100
12,425167	0,5	1,490100
12,433500	0,5	1,480850
12,441833	0,5	1,473350
12,450167	0,5	1,465950
12,458500	0,5	1,459250
12,466833	0,5	1,465750
12,475167	0,5	1,464750
12,483500	0,5	1,461650
12,491833	0,5	1,461950
12,500167	0,5	1,458750
12,508500	0,5	1,458450
12,516833	0,5	1,457250
12,525167	0,5	1,452200
12,533500	0,5	1,449900
12,541833	0,5	1,450100
12,550167	0,5	1,456400
12,558500	0,5	1,450300
12,566833	0,5	1,453200
12,575167	0,5	1,460400
12,583500	0,5	1,462750
12,591833	0,5	1,459900
12,600167	0,5	1,459350
12,608500	0,5	1,457300
12,616833	0,5	1,468100
12,625167	0,5	1,467250
12,633500	0,5	1,467950
12,641833	0,5	1,462200
12,650167	0,5	1,460750
12,658500	0,5	1,454800
12,666833	0,5	1,446850
12,675167	0,5	1,448250
12,683500	0,5	1,444400
12,691833	0,5	1,453200
12,700167	0,5	1,453450
12,708500	0,5	1,450050
12,716833	0,5	1,457950
12,725167	0,5	1,460000
12,733500	0,5	1,462700
12,741833	0,5	1,460050
12,750167	0,5	1,458250
12,758500	0,5	1,458350
12,766833	0,5	1,457500
12,775167	0,5	1,460950
12,783500	0,5	1,454300
12,791833	0,5	1,453000
12,800167	0,5	1,446250
12,808500	0,5	1,446600
12,816833	0,5	1,442000
12,825167	0,5	1,444250
12,833500	0,5	1,443300
12,841833	0,5	1,446450
12,850167	0,5	1,449550
12,858500	0,5	1,440900
12,866833	0,5	1,442450
12,875167	0,5	1,431200
12,883500	0,5	1,421200
12,891833	0,5	1,401050
12,900167	0,5	1,384300
12,908500	0,5	1,374050
12,916833	0,5	1,371400
12,925167	0,5	1,368600
12,933500	0,5	1,364950
12,941833	0,5	1,359750
12,950167	0,5	1,361000
12,958500	0,5	1,358250
12,966833	0,5	1,363600
12,975167	0,5	1,363850
12,983500	0,5	1,370750
12,991833	0,5	1,377150
13,000167	0,5	1,374550
13,008500	0,5	1,368700
13,016833	0,5	1,372050
13,025167	0,5	1,364600
13,033500	0,5	1,367850
13,041833	0,5	1,357350
13,050167	0,5	1,363650
13,058500	0,5	1,373350
13,066833	0,5	1,374900
13,075167	0,5	1,376250
13,083500	0,5	1,372250
13,091833	0,5	1,371900
13,100167	0,5	1,368900
13,108500	0,5	1,373200
13,116833	0,5	1,371500
13,125167	0,5	1,376250
13,133500	0,5	1,375400
13,141833	0,5	1,370900
13,150167	0,5	1,357200
13,158500	0,5	1,357950
13,166833	0,5	1,357700
13,175167	0,5	1,358750
13,183500	0,5	1,357100
13,191833	0,5	1,349900
13,200167	0,5	1,345900
13,208500	0,5	1,339700
13,216833	0,5	1,331400
13,225167	0,5	1,325600
13,233500	0,5	1,332150
13,241833	0,5	1,326750
13,250167	0,5	1,327600
13,258500	0,5	1,324050
13,266833	0,5	1,318350
13,275167	0,5	1,304800
13,283500	0,5	1,304150
13,291833	0,5	1,294800
13,300167	0,5	1,290750
13,308500	0,5	1,294200
13,316833	0,5	1,295450
13,325167	0,5	1,283150
13,333500	0,5	1,278500
13,341833	0,5	1,265450
13,350167	0,5	1,270400
13,358500	0,5	1,272150
13,366833	0,5	1,270700
13,375167	0,5	1,268350
13,383500	0,5	1,268900
13,391833	0,5	1,267800
13,400167	0,5	1,267250
13,408500	0,5	1,267050
13,416833	0,5	1,262600
13,425167	0,5	1,262600
13,433500	0,5	1,258400
13,441833	0,5	1,253000
13,450167	0,5	1,245800
13,458500	0,5	1,251250
13,466833	0,5	1,244800
13,475167	0,5	1,242600
13,483500	0,5	1,232800
13,491833	0,5	1,226050
13,500167	0,5	1,231350
13,508500	0,5	1,231300
13,516833	0,5	1,229550
13,525167	0,5	1,223900
13,533500	0,5	1,224100
13,541833	0,5	1,224000
13,550167	0,5	1,223700
13,558500	0,5	1,221100
13,566833	0,5	1,216050
13,575167	0,5	1,212850
13,583500	0,5	1,215350
13,591833	0,5	1,203300
13,600167	0,5	1,211000
13,608500	0,5	1,209800
13,616833	0,5	1,208850
13,625167	0,5	1,199250
13,633500	0,5	1,192100
13,641833	0,5	1,188050
13,650167	0,5	1,190500
13,658500	0,5	1,188900
13,666833	0,5	1,188950
13,675167	0,5	1,187250
13,683500	0,5	1,188200
13,691833	0,5	1,184650
13,700167	0,5	1,187500
13,708500	0,5	1,187100
13,716833	0,5	1,184850
13,725167	0,5	1,190650
13,733500	0,5	1,190550
13,741833	0,5	1,180950
13,750167	0,5	1,189950
13,758500	0,5	1,186350
13,766833	0,5	1,181350
13,775167	0,5	1,171850
13,783500	0,5	1,157400
13,791833	0,5	1,157700
13,800167	0,5	1,151150
13,808500	0,5	1,156100
13,816833	0,5	1,150750
13,825167	0,5	1,156050
13,833500	0,5	1,156500
13,841833	0,5	1,165150
13,850167	0,5	1,163600
13,858500	0,5	1,170100
13,866833	0,5	1,168700
13,875167	0,5	1,166050
13,883500	0,5	1,142700
13,891833	0,5	1,118350
13,900167	0,5	1,101650
13,908500	0,5	1,074000
13,916833	0,5	1,047200
13,925167	0,5	1,010150
13,933500	0,5	0,974250
13,941833	0,5	0,942350
13,950167	0,5	0,907450
13,958500	0,5	0,849000
13,966833	0,5	0,719500
13,975167	0,5	0,477500
13,983500	0,5	0,206200
13,991833	0,5	-0,016450
14,000167	0,5	-0,159850
14,008500	0,5	-0,244300
14,016833	0,5	-0,290300
14,025167	0,5	-0,318300
14,033500	0,5	-0,340750
14,041833	0,5	-0,351850
14,050167	0,5	-0,361850
14,058500	0,5	-0,383450
14,066833	0,5	-0,400350
14,075167	0,5	-0,422750
14,083500	0,5	-0,433850
14,091833	0,5	-0,434750
14,100167	0,5	-0,442450
14,108500	0,5	-0,443650
14,116833	0,5	-0,444100
14,125167	0,5	-0,438700
14,133500	0,5	-0,440200
14,141833	0,5	-0,432200
14,150167	0,5	-0,430000
14,158500	0,5	-0,423500
14,166833	0,5	-0,420350
14,175167	0,5	-0,410450
14,183500	0,5	-0,414250
14,191833	0,5	-0,396400
14,200167	0,5	-0,385000
14,208500	0,5	-0,376350
14,216833	0,5	-0,370400
14,225167	0,5	-0,364850
14,233500	0,5	-0,344950
14,241833	0,5	-0,329000
14,250167	0,5	-0,320000
14,258500	0,5	-0,309350
14,266833	0,5	-0,299950
14,275167	0,5	-0,292050
14,283500	0,5	-0,285400
14,291833	0,5	-0,285000
14,300167	0,5	-0,282000
14,308500	0,5	-0,276650
14,316833	0,5	-0,260650
14,325167	0,5	-0,261550
14,333500	0,5	-0,255450
14,341833	0,5	-0,241400
14,350167	0,5	-0,235450
14,358500	0,5	-0,233600
14,366833	0,5	-0,235300
14,375167	0,5	-0,237950
14,383500	0,5	-0,227100
14,391833	0,5	-0,225600
14,400167	0,5	-0,214550
14,408500	0,5	-0,211800
14,416833	0,5	-0,203400
14,425167	0,5	-0,190500
14,433500	0,5	-0,177450
14,441833	0,5	-0,167400
14,450167	0,5	-0,157250
14,458500	0,5	-0,141650
14,466833	0,5	-0,125400
14,475167	0,5	-0,121700
14,483500	0,5	-0,106350
14,491833	0,5	-0,086550
14,500167	0,5	-0,072550
14,508500	0,5	-0,060500
14,516833	0,5	-0,054450
14,525167	0,5	-0,033950
14,533500	0,5	-0,009100
14,541833	0,5	0,016000
14,550167	0,5	0,032700
14,558500	0,5	0,057350
14,566833	0,5	0,076300
14,575167	0,5	0,096650
14,583500	0,5	0,117000
14,591833	0,5	0,131050
14,600167	0,5	0,153050
14,608500	0,5	0,163200
14,616833	0,5	0,189300
14,625167	0,5	0,197950
14,633500	0,5	0,231300
14,641833	0,5	0,252850
14,650167	0,5	0,279600
14,658500	0,5	0,294250
14,666833	0,5	0,309100
14,675167	0,5	0,336650
14,683500	0,5	0,371050
14,691833	0,5	0,393300
14,700167	0,5	0,425400
14,708500	0,5	0,447250
14,716833	0,5	0,476700
14,725167	0,5	0,500100
14,733500	0,5	0,526250
14,741833	0,5	0,550650
14,750167	0,5	0,573450
14,758500	0,5	0,602350
14,766833	0,5	0,624000
14,775167	0,5	0,640250
14,783500	0,5	0,665750
14,791833	0,5	0,678550
14,800167	0,5	0,685500
14,808500	0,5	0,683650
14,816833	0,5	0,671350
14,825167	0,5	0,676250
14,833500	0,5	0,671950
14,841833	0,5	0,669250
14,850167	0,5	0,661400
14,858500	0,5	0,666050
14,866833	0,5	0,657500
14,875167	0,5	0,664050
14,883500	0,5	0,660800
14,891833	0,5	0,663400
14,900167	0,5	0,665950
14,908500	0,5	0,670000
14,916833	0,5	0,651050
14,925167	0,5	0,649050
14,933500	0,5	0,648750
14,941833	0,5	0,635300
14,950167	0,5	0,626350
14,958500	0,5	0,607200
14,966833	0,5	0,595950
14,975167	0,5	0,596100
14,983500	0,5	0,597950
14,991833	0,5	0,593300
15,000167	0,5	0,594150
15,008500	0,5	0,590650
15,016833	0,5	0,589700
15,025167	0,5	0,585400
15,033500	0,5	0,584150
15,041833	0,5	0,577550
15,050167	0,5	0,583500
15,058500	0,5	0,576300
15,066833	0,5	0,564450
15,075167	0,5	0,567650
15,083500	0,5	0,571600
15,091833	0,5	0,561600
15,100167	0,5	0,557200
15,108500	0,5	0,539100
15,116833	0,5	0,538150
15,125167	0,5	0,535500
15,133500	0,5	0,533800
15,141833	0,5	0,528100
15,150167	0,5	0,523750
15,158500	0,5	0,519900
15,166833	0,5	0,515000
15,175167	0,5	0,514750
15,183500	0,5	0,503350
15,191833	0,5	0,501350
15,200167	0,5	0,501550
15,208500	0,5	0,493450
15,216833	0,5	0,481850
15,225167	0,5	0,490900
15,233500	0,5	0,488400
15,241833	0,5	0,482200
15,250167	0,5	0,469150
15,258500	0,5	0,459150
15,266833	0,5	0,463150
15,275167	0,5	0,459550
15,283500	0,5	0,451400
15,291833	0,5	0,448950
15,300167	0,5	0,444500
15,308500	0,5	0,440400
15,316833	0,5	0,440350
15,325167	0,5	0,435600
15,333500	0,5	0,432250
15,341833	0,5	0,426800
15,350167	0,5	0,432500
15,358500	0,5	0,415300
15,366833	0,5	0,418350
15,375167	0,5	0,421750
15,383500	0,5	0,417400
15,391833	0,5	0,406450
15,400167	0,5	0,392600
15,408500	0,5	0,386350
15,416833	0,5	0,389600
15,425167	0,5	0,383150
15,433500	0,5	0,384000
15,441833	0,5	0,377650
15,450167	0,5	0,376250
15,458500	0,5	0,368900
15,466833	0,5	0,370650
15,475167	0,5	0,366800
15,483500	0,5	0,354750
15,491833	0,5	0,363000
15,500167	0,5	0,360750
15,508500	0,5	0,339900
15,516833	0,5	0,346700
15,525167	0,5	0,340600
15,533500	0,5	0,332500
15,541833	0,5	0,321300
15,550167	0,5	0,306250
15,558500	0,5	0,308350
15,566833	0,5	0,304550
15,575167	0,5	0,304500
15,583500	0,5	0,297350
15,591833	0,5	0,297050
15,600167	0,5	0,291850
15,608500	0,5	0,289500
15,616833	0,5	0,284300
15,625167	0,5	0,279400
15,633500	0,5	0,273700
15,641833	0,5	0,271600
15,650167	0,5	0,270700
15,658500	0,5	0,253600
15,666833	0,5	0,262750
15,675167	0,5	0,253650
15,683500	0,5	0,248750
15,691833	0,5	0,235550
15,700167	0,5	0,217600
15,708500	0,5	0,218300
15,716833	0,5	0,222000
15,725167	0,5	0,215950
15,733500	0,5	0,217850
15,741833	0,5	0,214600
15,750167	0,5	0,212750
15,758500	0,5	0,208400
15,766833	0,5	0,209100
15,775167	0,5	0,202900
15,783500	0,5	0,200300
15,791833	0,5	0,200050
15,800167	0,5	0,196350
15,808500	0,5	0,191150
15,816833	0,5	0,192100
15,825167	0,5	0,184750
15,833500	0,5	0,173850
15,841833	0,5	0,160700
15,850167	0,5	0,146250
15,858500	0,5	0,153200
15,866833	0,5	0,149550
15,875167	0,5	0,148200
15,883500	0,5	0,141850
15,891833	0,5	0,145350
15,900167	0,5	0,138950
15,908500	0,5	0,143000
15,916833	0,5	0,136400
15,925167	0,5	0,133950
15,933500	0,5	0,138300
15,941833	0,5	0,136500
15,950167	0,5	0,116200
15,958500	0,5	0,122450
15,966833	0,5	0,125500
15,975167	0,5	0,118800
15,983500	0,5	0,110550
15,991833	0,5	0,094550
16,000167	0,5	0,091350
16,008500	0,5	0,088200
16,016833	0,5	0,089100
16,025167	0,5	0,085050
16,033500	0,5	0,085350
16,041833	0,5	0,080550
16,050167	0,5	0,082400
16,058500	0,5	0,076500
16,066833	0,5	0,072450
16,075167	0,5	0,066250
16,083500	0,5	0,075100
16,091833	0,5	0,064450
16,100167	0,5	0,057750
16,108500	0,5	0,058400
16,116833	0,5	0,062650
16,125167	0,5	0,057450
16,133500	0,5	0,045150
16,141833	0,5	0,032550
16,150167	0,5	0,028100
16,158500	0,5	0,026100
16,166833	0,5	0,027950
16,175167	0,5	0,027450
16,183500	0,5	0,024300
16,191833	0,5	0,020650
16,200167	0,5	0,022500
16,208500	0,5	0,023250
16,216833	0,5	0,017450
16,225167	0,5	0,015450
16,233500	0,5	0,014350
16,241833	0,5	0,001750
16,250167	0,5	-0,003850
16,258500	0,5	0,001000
16,266833	0,5	-0,004250
16,275167	0,5	-0,011450
16,283500	0,5	-0,037100
16,291833	0,5	-0,036650
16,300167	0,5	-0,035900
16,308500	0,5	-0,041400
16,316833	0,5	-0,046500
16,325167	0,5	-0,047800
16,333500	0,5	-0,052750
16,341833	0,5	-0,050600
16,350167	0,5	-0,054250
16,358500	0,5	-0,060250
16,366833	0,5	-0,062850
16,375167	0,5	-0,070550
16,383500	0,5	-0,060550
16,391833	0,5	-0,084900
16,400167	0,5	-0,074100
16,408500	0,5	-0,075800
16,416833	0,5	-0,078000
16,425167	0,5	-0,094050
16,433500	0,5	-0,113950
16,441833	0,5	-0,113500
16,450167	0,5	-0,107550
16,458500	0,5	-0,116800
16,466833	0,5	-0,119200
16,475167	0,5	-0,122700
16,483500	0,5	-0,124350
16,491833	0,5	-0,128650
16,500167	0,5	-0,128900
16,508500	0,5	-0,136050
16,516833	0,5	-0,142250
16,525167	0,5	-0,136050
16,533500	0,5	-0,139850
16,541833	0,5	-0,155050
16,550167	0,5	-0,146350
16,558500	0,5	-0,150650
16,566833	0,5	-0,158300
16,575167	0,5	-0,170050
16,583500	0,5	-0,192150
16,591833	0,5	-0,185550
16,600167	0,5	-0,190250
16,608500	0,5	-0,188600
16,616833	0,5	-0,195600
16,625167	0,5	-0,192800
16,633500	0,5	-0,203750
16,641833	0,5	-0,195400
16,650167	0,5	-0,203150
16,658500	0,5	-0,207300
16,666833	0,5	-0,208700
16,675167	0,5	-0,211450
16,683500	0,5	-0,219450
16,691833	0,5	-0,219100
16,700167	0,5	-0,211500
16,708500	0,5	-0,218300
16,716833	0,5	-0,226300
16,725167	0,5	-0,247200
16,733500	0,5	-0,259150
16,741833	0,5	-0,262300
16,750167	0,5	-0,259300
16,758500	0,5	-0,267900
16,766833	0,5	-0,266450
16,775167	0,5	-0,270450
16,783500	0,5	-0,268950
16,791833	0,5	-0,275150
16,800167	0,5	-0,274400
16,808500	0,5	-0,280700
16,816833	0,5	-0,286050
16,825167	0,5	-0,292300
16,833500	0,5	-0,295600
16,841833	0,5	-0,293000
16,850167	0,5	-0,286350
16,858500	0,5	-0,296600
16,866833	0,5	-0,306650
16,875167	0,5	-0,320250
16,883500	0,5	-0,327950
16,891833	0,5	-0,319300
16,900167	0,5	-0,323100
16,908500	0,5	-0,323800
16,916833	0,5	-0,328950
16,925167	0,5	-0,326400
16,933500	0,5	-0,332600
16,941833	0,5	-0,330600
16,950167	0,5	-0,337100
16,958500	0,5	-0,337800
16,966833	0,5	-0,335400
16,975167	0,5	-0,341150
16,983500	0,5	-0,349300
16,991833	0,5	-0,343100
17,000167	0,5	-0,342100
17,008500	0,5	-0,347100
17,016833	0,5	-0,362050
17,025167	0,5	-0,377200
17,033500	0,5	-0,372700
17,041833	0,5	-0,375550
17,050167	0,5	-0,375500
17,058500	0,5	-0,379850
17,066833	0,5	-0,376850
17,075167	0,5	-0,381850
17,083500	0,5	-0,379600
17,091833	0,5	-0,388200
17,100167	0,5	-0,388700
17,108500	0,5	-0,392700
17,116833	0,5	-0,383500
17,125167	0,5	-0,403000
17,133500	0,5	-0,397250
17,141833	0,5	-0,391950
17,150167	0,5	-0,393650
17,158500	0,5	-0,406200
17,166833	0,5	-0,424350
17,175167	0,5	-0,429900
17,183500	0,5	-0,431800
17,191833	0,5	-0,435250
17,200167	0,5	-0,441100
17,208500	0,5	-0,444700
17,216833	0,5	-0,451450
17,225167	0,5	-0,453700
17,233500	0,5	-0,455700
17,241833	0,5	-0,452900
17,250167	0,5	-0,454200
17,258500	0,5	-0,441750
17,266833	0,5	-0,439500
17,275167	0,5	-0,451400
17,283500	0,5	-0,437750
17,291833	0,5	-0,431300
17,300167	0,5	-0,434800
17,308500	0,5	-0,442850
17,316833	0,5	-0,469400
17,325167	0,5	-0,467400
17,333500	0,5	-0,470500
17,341833	0,5	-0,475300
17,350167	0,5	-0,487250
17,358500	0,5	-0,497050
17,366833	0,5	-0,498750
17,375167	0,5	-0,498950
17,383500	0,5	-0,500050
17,391833	0,5	-0,507900
17,400167	0,5	-0,511800
17,408500	0,5	-0,517300
17,416833	0,5	-0,512650
17,425167	0,5	-0,528100
17,433500	0,5	-0,514800
17,441833	0,5	-0,519300
17,450167	0,5	-0,521350
17,458500	0,5	-0,532700
17,466833	0,5	-0,553400
17,475167	0,5	-0,548800
17,483500	0,5	-0,544750
17,491833	0,5	-0,551600
17,500167	0,5	-0,550250
17,508500	0,5	-0,555500
17,516833	0,5	-0,555550
17,525167	0,5	-0,554950
17,533500	0,5	-0,552900
17,541833	0,5	-0,557150
17,550167	0,5	-0,561950
17,558500	0,5	-0,553150
17,566833	0,5	-0,562150
17,575167	0,5	-0,561300
17,583500	0,5	-0,557700
17,591833	0,5	-0,559800
17,600167	0,5	-0,566450
17,608500	0,5	-0,579850
17,616833	0,5	-0,590400
17,625167	0,5	-0,577100
17,633500	0,5	-0,585800
17,641833	0,5	-0,584400
17,650167	0,5	-0,586350
17,658500	0,5	-0,585950
17,666833	0,5	-0,589400
17,675167	0,5	-0,586100
17,683500	0,5	-0,588650
17,691833	0,5	-0,590150
17,700167	0,5	-0,581100
17,708500	0,5	-0,580250
17,716833	0,5	-0,590850
17,725167	0,5	-0,584500
17,733500	0,5	-0,582650
17,741833	0,5	-0,586750
17,750167	0,5	-0,594150
17,758500	0,5	-0,615800
17,766833	0,5	-0,611150
17,775167	0,5	-0,612500
17,783500	0,5	-0,605050
17,791833	0,5	-0,604500
17,800167	0,5	-0,601800
17,808500	0,5	-0,603800
17,816833	0,5	-0,595000
17,825167	0,5	-0,595150
17,833500	0,5	-0,596150
17,841833	0,5	-0,593200
17,850167	0,5	-0,586650
17,858500	0,5	-0,589200
17,866833	0,5	-0,586100
17,875167	0,5	-0,575450
17,883500	0,5	-0,572550
17,891833	0,5	-0,571800
17,900167	0,5	-0,583850
17,908500	0,5	-0,583600
17,916833	0,5	-0,585050
17,925167	0,5	-0,569750
17,933500	0,5	-0,568600
17,941833	0,5	-0,559100
17,950167	0,5	-0,564600
17,958500	0,5	-0,559500
17,966833	0,5	-0,566850
17,975167	0,5	-0,561950
17,983500	0,5	-0,565700
17,991833	0,5	-0,561150
18,000167	0,5	-0,556800
18,008500	0,5	-0,567100
18,016833	0,5	-0,563350
18,025167	0,5	-0,556100
18,033500	0,5	-0,556500
18,041833	0,5	-0,559500
18,050167	0,5	-0,574850
18,058500	0,5	-0,578200
18,066833	0,5	-0,573300
18,075167	0,5	-0,575150
18,083500	0,5	-0,572150
18,091833	0,5	-0,574500
18,100167	0,5	-0,565350
18,108500	0,5	-0,568150
18,116833	0,5	-0,564100
18,125167	0,5	-0,567750
18,133500	0,5	-0,563950
18,141833	0,5	-0,555150
18,150167	0,5	-0,546850
18,158500	0,5	-0,568100
18,166833	0,5	-0,552000
18,175167	0,5	-0,549250
18,183500	0,5	-0,553150
18,191833	0,5	-0,564900
18,200167	0,5	-0,582450
18,208500	0,5	-0,573900
18,216833	0,5	-0,578500
18,225167	0,5	-0,577200
18,233500	0,5	-0,577850
18,241833	0,5	-0,581400
18,250167	0,5	-0,584700
18,258500	0,5	-0,580400
18,266833	0,5	-0,583450
18,275167	0,5	-0,586150
18,283500	0,5	-0,587350
18,291833	0,5	-0,578250
18,300167	0,5	-0,590500
18,308500	0,5	-0,594900
18,316833	0,5	-0,587900
18,325167	0,5	-0,587100
18,333500	0,5	-0,601600
18,341833	0,5	-0,614250
18,350167	0,5	-0,629000
18,358500	0,5	-0,624750
18,366833	0,5	-0,632550
18,375167	0,5	-0,635250
18,383500	0,5	-0,639100
18,391833	0,5	-0,643950
18,400167	0,5	-0,647300
18,408500	0,5	-0,648700
18,416833	0,5	-0,646700
18,425167	0,5	-0,659750
18,433500	0,5	-0,659800
18,441833	0,5	-0,658600
18,450167	0,5	-0,672250
18,458500	0,5	-0,673900
18,466833	0,5	-0,668800
18,475167	0,5	-0,675350
18,483500	0,5	-0,683400
18,491833	0,5	-0,709700
18,500167	0,5	-0,712100
18,508500	0,5	-0,712050
18,516833	0,5	-0,716400
18,525167	0,5	-0,729600
18,533500	0,5	-0,726300
18,541833	0,5	-0,733500
18,550167	0,5	-0,734400
18,558500	0,5	-0,739050
18,566833	0,5	-0,745950
18,575167	0,5	-0,747200
18,583500	0,5	-0,747750
18,591833	0,5	-0,744600
18,600167	0,5	-0,760900
18,608500	0,5	-0,753200
18,616833	0,5	-0,757650
18,625167	0,5	-0,761550
18,633500	0,5	-0,778850
18,641833	0,5	-0,801750
18,650167	0,5	-0,805800
18,658500	0,5	-0,802150
18,666833	0,5	-0,810800
18,675167	0,5	-0,811400
18,683500	0,5	-0,812700
18,691833	0,5	-0,818100
18,700167	0,5	-0,818200
18,708500	0,5	-0,820850
18,716833	0,5	-0,821750
18,725167	0,5	-0,828900
18,733500	0,5	-0,820950
18,741833	0,5	-0,829550
18,750167	0,5	-0,844850
18,758500	0,5	-0,837850
18,766833	0,5	-0,845500
18,775167	0,5	-0,855850
18,783500	0,5	-0,872500
18,791833	0,5	-0,895250
18,800167	0,5	-0,891000
18,808500	0,5	-0,900050
18,816833	0,5	-0,897700
18,825167	0,5	-0,904950
18,833500	0,5	-0,904750
18,841833	0,5	-0,907700
18,850167	0,5	-0,908450
18,858500	0,5	-0,909200
18,866833	0,5	-0,911600
18,875167	0,5	-0,904950
18,883500	0,5	-0,904450
18,891833	0,5	-0,914900
18,900167	0,5	-0,914900
18,908500	0,5	-0,912150
18,916833	0,5	-0,919050
18,925167	0,5	-0,928900
18,933500	0,5	-0,949350
18,941833	0,5	-0,953600
18,950167	0,5	-0,956000
18,958500	0,5	-0,951700
18,966833	0,5	-0,955700
18,975167	0,5	-0,951300
18,983500	0,5	-0,956050
18,991833	0,5	-0,949000
19,000167	0,5	-0,959900
19,008500	0,5	-0,957100
19,016833	0,5	-0,960300
19,025167	0,5	-0,951950
19,033500	0,5	-0,958400
19,041833	0,5	-0,973750
19,050167	0,5	-0,967600
19,058500	0,5	-0,969700
19,066833	0,5	-0,979250
19,075167	0,5	-0,994950
19,083500	0,5	-1,013950
19,091833	0,5	-1,019900
19,100167	0,5	-1,017550
19,108500	0,5	-1,029550
19,116833	0,5	-1,035950
19,125167	0,5	-1,044750
19,133500	0,5	-1,047100
19,141833	0,5	-1,059150
19,150167	0,5	-1,060000
19,158500	0,5	-1,074000
19,166833	0,5	-1,079650
19,175167	0,5	-1,073150
19,183500	0,5	-1,093400
19,191833	0,5	-1,108100
19,200167	0,5	-1,106800
19,208500	0,5	-1,115250
19,216833	0,5	-1,128050
19,225167	0,5	-1,155900
19,233500	0,5	-1,170400
19,241833	0,5	-1,166150
19,250167	0,5	-1,178500
19,258500	0,5	-1,185900
19,266833	0,5	-1,195300
19,275167	0,5	-1,198650
19,283500	0,5	-1,213650
19,291833	0,5	-1,214950
19,300167	0,5	-1,227650
19,308500	0,5	-1,231300
19,316833	0,5	-1,230350
19,325167	0,5	-1,222850
19,333500	0,5	-1,245400
19,341833	0,5	-1,240750
19,350167	0,5	-1,246000
19,358500	0,5	-1,243550
19,366833	0,5	-1,251850
19,375167	0,5	-1,268650
19,383500	0,5	-1,261550
19,391833	0,5	-1,260600
19,400167	0,5	-1,267700
19,408500	0,5	-1,273900
19,416833	0,5	-1,280950
19,425167	0,5	-1,290000
19,433500	0,5	-1,292900
19,441833	0,5	-1,305100
19,450167	0,5	-1,311450
19,458500	0,5	-1,326150
19,466833	0,5	-1,319050
19,475167	0,5	-1,328250
19,483500	0,5	-1,347350
19,491833	0,5	-1,343500
19,500167	0,5	-1,348500
19,508500	0,5	-1,360350
19,516833	0,5	-1,369050
19,525167	0,5	-1,394250
19,533500	0,5	-1,394150
19,541833	0,5	-1,392600
19,550167	0,5	-1,394400
19,558500	0,5	-1,396000
19,566833	0,5	-1,401000
19,575167	0,5	-1,402250
19,583500	0,5	-1,405150
19,591833	0,5	-1,405650
19,600167	0,5	-1,420000
19,608500	0,5	-1,415100
19,616833	0,5	-1,413850
19,625167	0,5	-1,414400
19,633500	0,5	-1,427400
19,641833	0,5	-1,415550
19,650167	0,5	-1,423900
19,658500	0,5	-1,429750
19,666833	0,5	-1,450800
19,675167	0,5	-1,462500
19,683500	0,5	-1,465550
19,691833	0,5	-1,463300
19,700167	0,5	-1,470400
19,708500	0,5	-1,467950
19,716833	0,5	-1,471250
19,725167	0,5	-1,472750
19,733500	0,5	-1,473250
19,741833	0,5	-1,477500
19,750167	0,5	-1,473500
19,758500	0,5	-1,468000
19,766833	0,5	-1,460100
19,775167	0,5	-1,480550
19,783500	0,5	-1,478400
19,791833	0,5	-1,481300
19,800167	0,5	-1,492250
19,808500	0,5	-1,510550
19,816833	0,5	-1,529000
19,825167	0,5	-1,541000
19,833500	0,5	-1,540950
19,841833	0,5	-1,548400
19,850167	0,5	-1,549450
19,858500	0,5	-1,552600
19,866833	0,5	-1,555050
19,875167	0,5	-1,554300
19,883500	0,5	-1,562450
19,891833	0,5	-1,563550
19,900167	0,5	-1,574150
19,908500	0,5	-1,559800
19,916833	0,5	-1,575400
19,925167	0,5	-1,577200
19,933500	0,5	-1,575100
19,941833	0,5	-1,575450
19,950167	0,5	-1,585700
19,958500	0,5	-1,602700
19,966833	0,5	-1,620950
19,975167	0,5	-1,622600
19,983500	0,5	-1,631400
19,991833	0,5	-1,627250
20,000167	0,5	-1,629550
20,008500	0,5	-1,631450
20,016833	0,5	-1,635700
20,025167	0,5	-1,633550
20,033500	0,5	-1,637700
20,041833	0,5	-1,644550
20,050167	0,5	-1,638300
20,058500	0,5	-1,636250
20,066833	0,5	-1,659050
20,075167	0,5	-1,652750
20,083500	0,5	-1,652150
20,091833	0,5	-1,659250
20,100167	0,5	-1,666100
20,108500	0,5	-1,688400
20,116833	0,5	-1,689200
20,125167	0,5	-1,694600
20,133500	0,5	-1,694650
20,141833	0,5	-1,704150
20,150167	0,5	-1,703100
20,158500	0,5	-1,715050
20,166833	0,5	-1,716350
20,175167	0,5	-1,720900
20,183500	0,5	-1,727200
20,191833	0,5	-1,731450
20,200167	0,5	-1,728100
20,208500	0,5	-1,733700
20,216833	0,5	-1,751900
20,225167	0,5	-1,737950
20,233500	0,5	-1,739250
20,241833	0,5	-1,748700
20,250167	0,5	-1,761300
20,258500	0,5	-1,778550
20,266833	0,5	-1,774300
20,275167	0,5	-1,774000
20,283500	0,5	-1,777050
20,291833	0,5	-1,771850
20,300167	0,5	-1,776450
20,308500	0,5	-1,774000
20,316833	0,5	-1,773350
20,325167	0,5	-1,770100
20,333500	0,5	-1,770450
20,341833	0,5	-1,768950
20,350167	0,5	-1,750850
20,358500	0,5	-1,754900
20,366833	0,5	-1,758250
20,375167	0,5	-1,753800
20,383500	0,5	-1,752100
20,391833	0,5	-1,764950
20,400167	0,5	-1,776300
20,408500	0,5	-1,786750
20,416833	0,5	-1,773600
20,425167	0,5	-1,778950
20,433500	0,5	-1,777700
20,441833	0,5	-1,788300
20,450167	0,5	-1,782400
20,458500	0,5	-1,787200
20,466833	0,5	-1,779050
20,475167	0,5	-1,778250
20,483500	0,5	-1,778900
20,491833	0,5	-1,758600
20,500167	0,5	-1,747100
20,508500	0,5	-1,755550
20,516833	0,5	-1,753500
20,525167	0,5	-1,759950
20,533500	0,5	-1,766650
20,541833	0,5	-1,778000
20,550167	0,5	-1,798100
20,558500	0,5	-1,790450
20,566833	0,5	-1,791300
20,575167	0,5	-1,783900
20,583500	0,5	-1,784750
20,591833	0,5	-1,775150
20,600167	0,5	-1,776900
20,608500	0,5	-1,764750
20,616833	0,5	-1,761650
20,625167	0,5	-1,754950
20,633500	0,5	-1,748600
20,641833	0,5	-1,719600
20,650167	0,5	-1,712350
20,658500	0,5	-1,719700
20,666833	0,5	-1,718650
20,675167	0,5	-1,723300
20,683500	0,5	-1,734300
20,691833	0,5	-1,764050
20,700167	0,5	-1,776400
20,708500	0,5	-1,782050
20,716833	0,5	-1,774500
20,725167	0,5	-1,783350
20,733500	0,5	-1,783150
20,741833	0,5	-1,790300
20,750167	0,5	-1,789100
20,758500	0,5	-1,794900
20,766833	0,5	-1,793500
20,775167	0,5	-1,795650
20,783500	0,5	-1,784150
20,791833	0,5	-1,769650
20,800167	0,5	-1,769550
20,808500	0,5	-1,779150
20,816833	0,5	-1,782700
20,825167	0,5	-1,793350
20,833500	0,5	-1,804550
20,841833	0,5	-1,821100
20,850167	0,5	-1,831050
20,858500	0,5	-1,827300
20,866833	0,5	-1,829850
20,875167	0,5	-1,828050
20,883500	0,5	-1,831550
20,891833	0,5	-1,823800
20,900167	0,5	-1,828000
20,908500	0,5	-1,820450
20,916833	0,5	-1,822250
20,925167	0,5	-1,819200
20,933500	0,5	-1,788500
20,941833	0,5	-1,778350
20,950167	0,5	-1,782050
20,958500	0,5	-1,784550
20,966833	0,5	-1,786550
20,975167	0,5	-1,797500
20,983500	0,5	-1,814300
20,991833	0,5	-1,825050
21,000167	0,5	-1,813950
21,008500	0,5	-1,819700
21,016833	0,5	-1,813400
21,025167	0,5	-1,810400
21,033500	0,5	-1,801900
21,041833	0,5	-1,802950
21,050167	0,5	-1,787550
21,058500	0,5	-1,788300
21,066833	0,5	-1,781550
21,075167	0,5	-1,770250
21,083500	0,5	-1,745150
21,091833	0,5	-1,739900
21,100167	0,5	-1,742900
21,108500	0,5	-1,743450
21,116833	0,5	-1,744600
21,125167	0,5	-1,752150
21,133500	0,5	-1,773150
21,141833	0,5	-1,764150
21,150167	0,5	-1,760800
21,158500	0,5	-1,755900
21,166833	0,5	-1,760200
21,175167	0,5	-1,751300
21,183500	0,5	-1,747650
21,191833	0,5	-1,738500
21,200167	0,5	-1,737350
21,208500	0,5	-1,732500
21,216833	0,5	-1,730150
21,225167	0,5	-1,701250
21,233500	0,5	-1,681100
21,241833	0,5	-1,677200
21,250167	0,5	-1,679150
21,258500	0,5	-1,678850
21,266833	0,5	-1,685650
21,275167	0,5	-1,688250
21,283500	0,5	-1,704750
21,291833	0,5	-1,693250
21,300167	0,5	-1,685600
21,308500	0,5	-1,684050
21,316833	0,5	-1,677800
21,325167	0,5	-1,672400
21,333500	0,5	-1,662150
21,341833	0,5	-1,662200
21,350167	0,5	-1,642900
21,358500	0,5	-1,639200
21,366833	0,5	-1,619950
21,375167	0,5	-1,588800
21,383500	0,5	-1,566400
21,391833	0,5	-1,566950
21,400167	0,5	-1,561050
21,408500	0,5	-1,565750
21,416833	0,5	-1,571900
21,425167	0,5	-1,579750
21,433500	0,5	-1,579150
21,441833	0,5	-1,566750
21,450167	0,5	-1,564000
21,458500	0,5	-1,552000
21,466833	0,5	-1,548200
21,475167	0,5	-1,535600
21,483500	0,5	-1,532250
21,491833	0,5	-1,518000
21,500167	0,5	-1,511450
21,508500	0,5	-1,498650
21,516833	0,5	-1,468250
21,525167	0,5	-1,445300
21,533500	0,5	-1,438100
21,541833	0,5	-1,433400
21,550167	0,5	-1,431450
21,558500	0,5	-1,428650
21,566833	0,5	-1,433750
21,575167	0,5	-1,435000
21,583500	0,5	-1,418550
21,591833	0,5	-1,400200
21,600167	0,5	-1,375700
21,608500	0,5	-1,356100
21,616833	0,5	-1,320550
21,625167	0,5	-1,296550
21,633500	0,5	-1,257350
21,641833	0,5	-1,227900
21,650167	0,5	-1,196050
21,658500	0,5	-1,188950
21,666833	0,5	-1,162850
21,675167	0,5	-1,164750
21,683500	0,5	-1,183200
21,691833	0,5	-1,183350
21,700167	0,5	-1,190600
21,708500	0,5	-1,194400
21,716833	0,5	-1,197600
21,725167	0,5	-1,198050
21,733500	0,5	-1,183300
21,741833	0,5	-1,163350
21,750167	0,5	-1,152100
21,758500	0,5	-1,135600
21,766833	0,5	-1,122800
21,775167	0,5	-1,103250
21,783500	0,5	-1,086400
21,791833	0,5	-1,060600
21,800167	0,5	-1,040600
21,808500	0,5	-1,004750
21,816833	0,5	-0,969200
21,825167	0,5	-0,950650
21,833500	0,5	-0,934350
21,841833	0,5	-0,909700
21,850167	0,5	-0,898200
21,858500	0,5	-0,883000
21,866833	0,5	-0,879200
21,875167	0,5	-0,853950
21,883500	0,5	-0,826600
21,891833	0,5	-0,802950
21,900167	0,5	-0,773700
21,908500	0,5	-0,757500
21,916833	0,5	-0,734100
21,925167	0,5	-0,717700
21,933500	0,5	-0,691200
21,941833	0,5	-0,677600
21,950167	0,5	-0,653850
21,958500	0,5	-0,619300
21,966833	0,5	-0,596450
21,975167	0,5	-0,584400
21,983500	0,5	-0,557200
21,991833	0,5	-0,537050
22,000167	0,5	-0,517700
22,008500	0,5	-0,513250
22,016833	0,5	-0,493250
22,025167	0,5	-0,453600
22,033500	0,5	-0,429650
22,041833	0,5	-0,393950
22,050167	0,5	-0,359650
22,058500	0,5	-0,329250
22,066833	0,5	-0,301750
22,075167	0,5	-0,262000
22,083500	0,5	-0,238550
22,091833	0,5	-0,204350
22,100167	0,5	-0,165250
22,108500	0,5	-0,121650
22,116833	0,5	-0,109100
22,125167	0,5	-0,056900
22,133500	0,5	-0,020800
22,141833	0,5	0,014550
22,150167	0,5	0,046800
22,158500	0,5	0,074150
22,166833	0,5	0,130850
22,175167	0,5	0,177100
22,183500	0,5	0,224350
22,191833	0,5	0,267350
22,200167	0,5	0,320150
22,208500	0,5	0,368300
22,216833	0,5	0,421500
22,225167	0,5	0,469100
22,233500	0,5	0,522500
22,241833	0,5	0,562900
22,250167	0,5	0,611600
22,258500	0,5	0,649150
22,266833	0,5	0,702700
22,275167	0,5	0,761200
22,283500	0,5	0,815500
22,291833	0,5	0,858800
22,300167	0,5	0,898150
22,308500	0,5	0,944400
22,316833	0,5	1,003450
22,325167	0,5	1,056450
22,333500	0,5	1,098700
22,341833	0,5	1,143900
22,350167	0,5	1,186450
22,358500	0,5	1,238400
22,366833	0,5	1,285100
22,375167	0,5	1,340800
22,383500	0,5	1,386550
22,391833	0,5	1,432900
22,400167	0,5	1,477350
22,408500	0,5	1,537550
22,416833	0,5	1,610350
22,425167	0,5	1,676900
22,433500	0,5	1,733350
22,441833	0,5	1,786750
22,450167	0,5	1,836400
22,458500	0,5	1,908500
22,466833	0,5	1,985250
22,475167	0,5	2,052700
22,483500	0,5	2,123000
22,491833	0,5	2,193250
22,500167	0,5	2,268500
22,508500	0,5	2,333100
22,516833	0,5	2,409450
22,525167	0,5	2,474200
22,533500	0,5	2,546800
22,541833	0,5	2,580400
22,550167	0,5	2,669450
22,558500	0,5	2,734500
22,566833	0,5	2,827750
22,575167	0,5	2,884200
22,583500	0,5	2,949350
22,591833	0,5	2,997500
22,600167	0,5	3,032050
22,608500	0,5	3,087250
22,616833	0,5	3,131300
22,625167	0,5	3,170400
22,633500	0,5	3,210500
22,641833	0,5	3,245800
22,650167	0,5	3,275750
22,658500	0,5	3,305500
22,666833	0,5	3,316800
22,675167	0,5	3,327150
22,683500	0,5	3,306350
22,691833	0,5	3,273450
22,700167	0,5	3,262600
22,708500	0,5	3,258400
22,716833	0,5	3,227000
22,725167	0,5	3,171850
22,733500	0,5	3,106750
22,741833	0,5	3,028300
22,750167	0,5	2,954000
22,758500	0,5	2,884700
22,766833	0,5	2,805350
22,775167	0,5	2,720700
22,783500	0,5	2,624900
22,791833	0,5	2,519150
22,800167	0,5	2,403200
22,808500	0,5	2,274950
22,816833	0,5	2,143050
22,825167	0,5	1,998300
22,833500	0,5	1,820400
22,841833	0,5	1,647700
22,850167	0,5	1,518300
22,858500	0,5	1,370650
22,866833	0,5	1,200250
22,875167	0,5	1,029650
22,883500	0,5	0,863650
22,891833	0,5	0,699950
22,900167	0,5	0,529600
22,908500	0,5	0,369650
22,916833	0,5	0,213000
22,925167	0,5	0,060800
22,933500	0,5	-0,089650
22,941833	0,5	-0,238600
22,950167	0,5	-0,382550
22,958500	0,5	-0,527250
22,966833	0,5	-0,664800
22,975167	0,5	-0,800200
22,983500	0,5	-0,940850
22,991833	0,5	-1,064350
23,000167	0,5	-1,210000
23,008500	0,5	-1,361800
23,016833	0,5	-1,475000
23,025167	0,5	-1,585800
23,033500	0,5	-1,681800
23,041833	0,5	-1,786100
23,050167	0,5	-1,881400
23,058500	0,5	-1,960950
23,066833	0,5	-2,039600
23,075167	0,5	-2,111250
23,083500	0,5	-2,175600
23,091833	0,5	-2,239700
23,100167	0,5	-2,300250
23,108500	0,5	-2,355800
23,116833	0,5	-2,412750
23,125167	0,5	-2,434800
23,133500	0,5	-2,488650
23,141833	0,5	-2,538750
23,150167	0,5	-2,613350
23,158500	0,5	-2,658150
23,166833	0,5	-2,693850
23,175167	0,5	-2,711900
23,183500	0,5	-2,723500
23,191833	0,5	-2,745950
23,200167	0,5	-2,762350
23,208500	0,5	-2,757900
23,216833	0,5	-2,755600
23,225167	0,5	-2,749700
23,233500	0,5	-2,745950
23,241833	0,5	-2,735900
23,250167	0,5	-2,728600
23,258500	0,5	-2,722050
23,266833	0,5	-2,710550
23,275167	0,5	-2,714850
23,283500	0,5	-2,693550
23,291833	0,5	-2,669750
23,300167	0,5	-2,685500
23,308500	0,5	-2,692100
23,316833	0,5	-2,683250
23,325167	0,5	-2,671400
23,333500	0,5	-2,642200
23,341833	0,5	-2,628800
23,350167	0,5	-2,600950
23,358500	0,5	-2,579500
23,366833	0,5	-2,541400
23,375167	0,5	-2,516100
23,383500	0,5	-2,479550
23,391833	0,5	-2,450000
23,400167	0,5	-2,415500
23,408500	0,5	-2,385450
23,416833	0,5	-2,354500
23,425167	0,5	-2,385800
23,433500	0,5	-2,314450
23,441833	0,5	-2,267500
23,450167	0,5	-2,262100
23,458500	0,5	-2,253200
23,466833	0,5	-2,234000
23,475167	0,5	-2,214550
23,483500	0,5	-2,195600
23,491833	0,5	-2,175000
23,500167	0,5	-2,160200
23,508500	0,5	-2,136850
23,516833	0,5	-2,120450
23,525167	0,5	-2,094100
23,533500	0,5	-2,071900
23,541833	0,5	-2,049650
23,550167	0,5	-2,030150
23,558500	0,5	-2,008050
23,566833	0,5	-2,053550
23,575167	0,5	-2,052550
23,583500	0,5	-1,994050
23,591833	0,5	-1,942150
23,600167	0,5	-1,927850
23,608500	0,5	-1,921600
23,616833	0,5	-1,909950
23,625167	0,5	-1,898800
23,633500	0,5	-1,890300
23,641833	0,5	-1,878300
23,650167	0,5	-1,869050
23,658500	0,5	-1,855400
23,666833	0,5	-1,844200
23,675167	0,5	-1,836200
23,683500	0,5	-1,829250
23,691833	0,5	-1,820200
23,700167	0,5	-1,812950
23,708500	0,5	-1,813000
23,716833	0,5	-1,936850
23,725167	0,5	-1,902700
23,733500	0,5	-1,862350
23,741833	0,5	-1,809900
23,750167	0,5	-1,802150
23,758500	0,5	-1,797900
23,766833	0,5	-1,802950
23,775167	0,5	-1,805200
23,783500	0,5	-1,796200
23,791833	0,5	-1,786200
23,800167	0,5	-1,773850
23,808500	0,5	-1,764600
23,816833	0,5	-1,748750
23,825167	0,5	-1,738450
23,833500	0,5	-1,724300
23,841833	0,5	-1,714250
23,850167	0,5	-1,703900
23,858500	0,5	-1,742050
23,866833	0,5	-1,824650
23,875167	0,5	-1,801450
23,883500	0,5	-1,739150
23,891833	0,5	-1,701750
23,900167	0,5	-1,688000
23,908500	0,5	-1,689000
23,916833	0,5	-1,696650
23,925167	0,5	-1,694750
23,933500	0,5	-1,688100
23,941833	0,5	-1,680950
23,950167	0,5	-1,674100
23,958500	0,5	-1,664250
23,966833	0,5	-1,655600
23,975167	0,5	-1,641050
23,983500	0,5	-1,632050
23,991833	0,5	-1,614650
24,000167	0,5	-1,609550
24,008500	0,5	-1,712250
24,016833	0,5	-1,712200
24,025167	0,5	-1,672550
24,033500	0,5	-1,612300
24,041833	0,5	-1,571300
24,050167	0,5	-1,559750
24,058500	0,5	-1,545700
24,066833	0,5	-1,553450
24,075167	0,5	-1,535800
24,083500	0,5	-1,522450
24,091833	0,5	-1,505300
24,100167	0,5	-1,494400
24,108500	0,5	-1,474550
24,116833	0,5	-1,460350
24,125167	0,5	-1,443800
24,133500	0,5	-1,429850
24,141833	0,5	-1,418850
24,150167	0,5	-1,416850
24,158500	0,5	-1,524350
24,166833	0,5	-1,485700
24,175167	0,5	-1,471800
24,183500	0,5	-1,411800
24,191833	0,5	-1,390050
24,200167	0,5	-1,376250
24,208500	0,5	-1,376200
24,216833	0,5	-1,384000
24,225167	0,5	-1,360900
24,233500	0,5	-1,338300
24,241833	0,5	-1,329450
24,250167	0,5	-1,312800
24,258500	0,5	-1,298200
24,266833	0,5	-1,277450
24,275167	0,5	-1,259250
24,283500	0,5	-1,235800
24,291833	0,5	-1,224150
24,300167	0,5	-1,256700
24,308500	0,5	-1,285500
24,316833	0,5	-1,254900
24,325167	0,5	-1,221550
24,333500	0,5	-1,177450
24,341833	0,5	-1,161100
24,350167	0,5	-1,152550
24,358500	0,5	-1,149900
24,366833	0,5	-1,157950
24,375167	0,5	-1,134900
24,383500	0,5	-1,129100
24,391833	0,5	-1,116050
24,400167	0,5	-1,104550
24,408500	0,5	-1,086750
24,416833	0,5	-1,081800
24,425167	0,5	-1,063750
24,433500	0,5	-1,055250
24,441833	0,5	-1,046350
24,450167	0,5	-1,106750
24,458500	0,5	-1,093550
24,466833	0,5	-1,068100
24,475167	0,5	-1,028900
24,483500	0,5	-0,998550
24,491833	0,5	-0,986950
24,500167	0,5	-0,978800
24,508500	0,5	-0,982450
24,516833	0,5	-0,972650
24,525167	0,5	-0,958050
24,533500	0,5	-0,942850
24,541833	0,5	-0,928500
24,550167	0,5	-0,913400
24,558500	0,5	-0,902850
24,566833	0,5	-0,888250
24,575167	0,5	-0,882150
24,583500	0,5	-0,869650
24,591833	0,5	-0,864400
24,600167	0,5	-0,911950
24,608500	0,5	-0,894500
24,616833	0,5	-0,877000
24,625167	0,5	-0,854000
24,633500	0,5	-0,836050
24,641833	0,5	-0,830300
24,650167	0,5	-0,826950
24,658500	0,5	-0,830950
24,666833	0,5	-0,826150
24,675167	0,5	-0,813350
24,683500	0,5	-0,805150
24,691833	0,5	-0,791900
24,700167	0,5	-0,781600
24,708500	0,5	-0,767500
24,716833	0,5	-0,756250
24,725167	0,5	-0,744800
24,733500	0,5	-0,734950
24,741833	0,5	-0,740400
24,750167	0,5	-0,756500
24,758500	0,5	-0,737700
24,766833	0,5	-0,720100
24,775167	0,5	-0,696050
24,783500	0,5	-0,688000
24,791833	0,5	-0,677350
24,800167	0,5	-0,684250
24,808500	0,5	-0,683400
24,816833	0,5	-0,678300
24,825167	0,5	-0,671850
24,833500	0,5	-0,664900
24,841833	0,5	-0,658900
24,850167	0,5	-0,647150
24,858500	0,5	-0,641750
24,866833	0,5	-0,634300
24,875167	0,5	-0,628950
24,883500	0,5	-0,620050
24,891833	0,5	-0,637550
24,900167	0,5	-0,628950
24,908500	0,5	-0,624100
24,916833	0,5	-0,605800
24,925167	0,5	-0,593700
24,933500	0,5	-0,585400
24,941833	0,5	-0,579800
24,950167	0,5	-0,579950
24,958500	0,5	-0,573150
24,966833	0,5	-0,564750
24,975167	0,5	-0,557100
24,983500	0,5	-0,550450
24,991833	0,5	-0,544650
25,000167	0,5	-0,535950
25,008500	0,5	-0,528700
25,016833	0,5	-0,523600
25,025167	0,5	-0,516400
25,033500	0,5	-0,514050
25,041833	0,5	-0,522800
25,050167	0,5	-0,517450
25,058500	0,5	-0,512250
25,066833	0,5	-0,501500
25,075167	0,5	-0,496600
25,083500	0,5	-0,493250
25,091833	0,5	-0,491950
25,100167	0,5	-0,495950
25,108500	0,5	-0,489800
25,116833	0,5	-0,484650
25,125167	0,5	-0,479300
25,133500	0,5	-0,475500
25,141833	0,5	-0,468200
25,150167	0,5	-0,462550
25,158500	0,5	-0,455050
25,166833	0,5	-0,451300
25,175167	0,5	-0,443150
25,183500	0,5	-0,441050
25,191833	0,5	-0,437550
25,200167	0,5	-0,431300
25,208500	0,5	-0,428000
25,216833	0,5	-0,420600
25,225167	0,5	-0,416150
25,233500	0,5	-0,410700
25,241833	0,5	-0,411250
25,250167	0,5	-0,415000
25,258500	0,5	-0,412550
25,266833	0,5	-0,407200
25,275167	0,5	-0,407650
25,283500	0,5	-0,405750
25,291833	0,5	-0,405100
25,300167	0,5	-0,401100
25,308500	0,5	-0,399600
25,316833	0,5	-0,396500
25,325167	0,5	-0,394550
25,333500	0,5	-0,391000
25,341833	0,5	-0,386800
25,350167	0,5	-0,381550
25,358500	0,5	-0,380500
25,366833	0,5	-0,376550
25,375167	0,5	-0,372400
25,383500	0,5	-0,370650
25,391833	0,5	-0,367100
25,400167	0,5	-0,365600
25,408500	0,5	-0,362800
25,416833	0,5	-0,361300
25,425167	0,5	-0,357550
25,433500	0,5	-0,357050
25,441833	0,5	-0,357050
25,450167	0,5	-0,354150
25,458500	0,5	-0,352550
25,466833	0,5	-0,348400
25,475167	0,5	-0,348050
25,483500	0,5	-0,341900
25,491833	0,5	-0,344750
25,500167	0,5	-0,341900
25,508500	0,5	-0,343850
25,516833	0,5	-0,342900
25,525167	0,5	-0,342050
25,533500	0,5	-0,339100
25,541833	0,5	-0,334650
25,550167	0,5	-0,333450
25,558500	0,5	-0,329250
25,566833	0,5	-0,330100
25,575167	0,5	-0,325650
25,583500	0,5	-0,325650
25,591833	0,5	-0,320650
25,600167	0,5	-0,318350
25,608500	0,5	-0,317600
25,616833	0,5	-0,317300
25,625167	0,5	-0,311650
25,633500	0,5	-0,306450
25,641833	0,5	-0,304850
25,650167	0,5	-0,306300
25,658500	0,5	-0,309600
25,666833	0,5	-0,308350
25,675167	0,5	-0,307250
25,683500	0,5	-0,304350
25,691833	0,5	-0,302350
25,700167	0,5	-0,301150
25,708500	0,5	-0,301600
25,716833	0,5	-0,300700
25,725167	0,5	-0,299750
25,733500	0,5	-0,297800
25,741833	0,5	-0,300150
25,750167	0,5	-0,294700
25,758500	0,5	-0,296900
25,766833	0,5	-0,293150
25,775167	0,5	-0,289350
25,783500	0,5	-0,283550
25,791833	0,5	-0,279650
25,800167	0,5	-0,280950
25,808500	0,5	-0,287250
25,816833	0,5	-0,285450
25,825167	0,5	-0,279650
25,833500	0,5	-0,272850
25,841833	0,5	-0,270550
25,850167	0,5	-0,271300
25,858500	0,5	-0,271950
25,866833	0,5	-0,265000
25,875167	0,5	-0,269750
25,883500	0,5	-0,270350
25,891833	0,5	-0,269750
25,900167	0,5	-0,269700
25,908500	0,5	-0,266000
25,916833	0,5	-0,266750
25,925167	0,5	-0,262800
25,933500	0,5	-0,265600
25,941833	0,5	-0,255200
25,950167	0,5	-0,262650
25,958500	0,5	-0,262150
25,966833	0,5	-0,256900
25,975167	0,5	-0,252350
25,983500	0,5	-0,238750
25,991833	0,5	-0,237900
26,000167	0,5	-0,240600
