File Path	chrom://chromeleon01/ikbm_chromeleon/2022/ICS-5000/ED1/Esteban/20220612_Cell_7_4_eg.seq/227.smp/ED_1.channel/ED_1.chm
Channel	ED_1

Injection Information:
Data Vault	ikbm_chromeleon
Injection	CelS2_24h-EGS_3
Injection Number	34
Position	RD4
Comment	
Processing Method	Stop sequence after Cell Death
Instrument Method	ICS5000_PA200_FullNative_Ox_26min_ED1
Type	Unknown
Status	Finished
Injection Date	13.06.2022
Injection Time	07:46:19
Injection Volume (µl)	5,0
Dilution Factor	1,0000
Weight	1,0000

Chromatogram Data Information:
Time Min. (min)	0,000167
Time Max. (min)	26,000167
Data Points	3121
Detector	EDet1
Generating Data System	Chromeleon 7.2.9.11323
Exporting Data System	Chromeleon 7.2.9.0
Operator	Instrument Controller
Signal Quantity	
Signal Unit	nC
Signal Min.	-1,879350
Signal Max.	358,645355
Channel	ED_1
Driver Name	DC-5000
Channel Type	Evaluation
Min. Step (s)	0,5
Max. Step (s)	0,5
Average Step (s)	0,5

Signal Parameter Information:
Signal Info	

Chromatogram Data:
Time (min)	Step (s)	Value (nC)
0,000167	n.a.	-0,036400
0,008500	0,5	-0,053100
0,016833	0,5	-0,042600
0,025167	0,5	-0,028450
0,033500	0,5	-0,014450
0,041833	0,5	-0,015100
0,050167	0,5	-0,010450
0,058500	0,5	-0,004600
0,066833	0,5	-0,001550
0,075167	0,5	-0,003900
0,083500	0,5	-0,005150
0,091833	0,5	-0,004400
0,100167	0,5	-0,007350
0,108500	0,5	-0,002850
0,116833	0,5	-0,027600
0,125167	0,5	-0,020500
0,133500	0,5	-0,002450
0,141833	0,5	-0,015700
0,150167	0,5	-0,021550
0,158500	0,5	-0,008550
0,166833	0,5	-0,010200
0,175167	0,5	0,012050
0,183500	0,5	0,002950
0,191833	0,5	0,006000
0,200167	0,5	0,002550
0,208500	0,5	0,008550
0,216833	0,5	0,001200
0,225167	0,5	0,006650
0,233500	0,5	-0,002850
0,241833	0,5	-0,004200
0,250167	0,5	0,002100
0,258500	0,5	-0,003550
0,266833	0,5	-0,015000
0,275167	0,5	-0,009550
0,283500	0,5	0,000800
0,291833	0,5	-0,014050
0,300167	0,5	-0,004700
0,308500	0,5	0,002700
0,316833	0,5	0,005100
0,325167	0,5	0,000550
0,333500	0,5	-0,002950
0,341833	0,5	-0,006450
0,350167	0,5	0,005350
0,358500	0,5	-0,006950
0,366833	0,5	-0,001950
0,375167	0,5	-0,006600
0,383500	0,5	-0,004300
0,391833	0,5	-0,009700
0,400167	0,5	-0,007600
0,408500	0,5	-0,004500
0,416833	0,5	-0,019300
0,425167	0,5	-0,011250
0,433500	0,5	-0,004700
0,441833	0,5	-0,015050
0,450167	0,5	-0,018700
0,458500	0,5	-0,013350
0,466833	0,5	0,000300
0,475167	0,5	0,009000
0,483500	0,5	-0,005600
0,491833	0,5	-0,001900
0,500167	0,5	-0,000900
0,508500	0,5	0,001950
0,516833	0,5	-0,005700
0,525167	0,5	-0,001800
0,533500	0,5	-0,005550
0,541833	0,5	0,001000
0,550167	0,5	-0,005250
0,558500	0,5	-0,007450
0,566833	0,5	-0,020600
0,575167	0,5	0,002850
0,583500	0,5	-0,010200
0,591833	0,5	-0,015700
0,600167	0,5	-0,016750
0,608500	0,5	-0,007600
0,616833	0,5	0,011850
0,625167	0,5	0,012800
0,633500	0,5	0,017000
0,641833	0,5	0,013850
0,650167	0,5	0,015750
0,658500	0,5	0,008050
0,666833	0,5	0,008800
0,675167	0,5	0,004900
0,683500	0,5	0,010000
0,691833	0,5	0,008200
0,700167	0,5	0,007200
0,708500	0,5	-0,004850
0,716833	0,5	-0,001300
0,725167	0,5	0,009650
0,733500	0,5	0,002100
0,741833	0,5	-0,002100
0,750167	0,5	0,002500
0,758500	0,5	0,016200
0,766833	0,5	0,028550
0,775167	0,5	0,034550
0,783500	0,5	0,029300
0,791833	0,5	0,030650
0,800167	0,5	0,027900
0,808500	0,5	0,027750
0,816833	0,5	0,029050
0,825167	0,5	0,034150
0,833500	0,5	0,024650
0,841833	0,5	0,027000
0,850167	0,5	0,018300
0,858500	0,5	0,022150
0,866833	0,5	0,026400
0,875167	0,5	0,031000
0,883500	0,5	0,015800
0,891833	0,5	0,020050
0,900167	0,5	0,015800
0,908500	0,5	0,036100
0,916833	0,5	0,052350
0,925167	0,5	0,056050
0,933500	0,5	0,049850
0,941833	0,5	0,056050
0,950167	0,5	0,051200
0,958500	0,5	0,050900
0,966833	0,5	0,047850
0,975167	0,5	0,046150
0,983500	0,5	0,048600
0,991833	0,5	0,048500
1,000167	0,5	0,049200
1,008500	0,5	0,040800
1,016833	0,5	0,064150
1,025167	0,5	0,051950
1,033500	0,5	0,039150
1,041833	0,5	0,044600
1,050167	0,5	0,049800
1,058500	0,5	0,068000
1,066833	0,5	0,077050
1,075167	0,5	0,066750
1,083500	0,5	0,071150
1,091833	0,5	0,069200
1,100167	0,5	0,075900
1,108500	0,5	0,073950
1,116833	0,5	0,074500
1,125167	0,5	0,069500
1,133500	0,5	0,072050
1,141833	0,5	0,073300
1,150167	0,5	0,061400
1,158500	0,5	0,067100
1,166833	0,5	0,084900
1,175167	0,5	0,067250
1,183500	0,5	0,061350
1,191833	0,5	0,067950
1,200167	0,5	0,073350
1,208500	0,5	0,094000
1,216833	0,5	0,081000
1,225167	0,5	0,089450
1,233500	0,5	0,082300
1,241833	0,5	0,090400
1,250167	0,5	0,082650
1,258500	0,5	0,088250
1,266833	0,5	0,078850
1,275167	0,5	0,075750
1,283500	0,5	0,077250
1,291833	0,5	0,080750
1,300167	0,5	0,077250
1,308500	0,5	0,082750
1,316833	0,5	0,083650
1,325167	0,5	0,069700
1,333500	0,5	0,065350
1,341833	0,5	0,069100
1,350167	0,5	0,079350
1,358500	0,5	0,090150
1,366833	0,5	0,079450
1,375167	0,5	0,070800
1,383500	0,5	0,075500
1,391833	0,5	0,074900
1,400167	0,5	0,074300
1,408500	0,5	0,064100
1,416833	0,5	0,065650
1,425167	0,5	0,056800
1,433500	0,5	0,061250
1,441833	0,5	0,061600
1,450167	0,5	0,054950
1,458500	0,5	0,055950
1,466833	0,5	0,053450
1,475167	0,5	0,037850
1,483500	0,5	0,040250
1,491833	0,5	0,041400
1,500167	0,5	0,052500
1,508500	0,5	0,054150
1,516833	0,5	0,042000
1,525167	0,5	0,041800
1,533500	0,5	0,036600
1,541833	0,5	0,031600
1,550167	0,5	0,023350
1,558500	0,5	-0,011350
1,566833	0,5	-0,162500
1,575167	0,5	-0,529400
1,583500	0,5	-1,016450
1,591833	0,5	-1,031250
1,600167	0,5	0,422700
1,608500	0,5	5,152800
1,616833	0,5	15,966300
1,625167	0,5	33,591001
1,633500	0,5	51,783151
1,641833	0,5	61,221151
1,650167	0,5	58,472601
1,658500	0,5	48,085201
1,666833	0,5	36,454451
1,675167	0,5	27,088850
1,683500	0,5	20,629100
1,691833	0,5	16,581150
1,700167	0,5	14,330050
1,708500	0,5	13,235350
1,716833	0,5	12,519950
1,725167	0,5	11,580200
1,733500	0,5	10,404500
1,741833	0,5	9,321850
1,750167	0,5	8,666450
1,758500	0,5	8,532600
1,766833	0,5	8,763300
1,775167	0,5	9,115300
1,783500	0,5	9,324350
1,791833	0,5	9,254250
1,800167	0,5	8,910000
1,808500	0,5	8,397750
1,816833	0,5	7,853300
1,825167	0,5	7,330550
1,833500	0,5	6,864450
1,841833	0,5	6,481350
1,850167	0,5	6,240150
1,858500	0,5	6,150900
1,866833	0,5	6,160850
1,875167	0,5	6,131100
1,883500	0,5	6,105950
1,891833	0,5	6,461100
1,900167	0,5	7,905700
1,908500	0,5	11,813800
1,916833	0,5	19,877800
1,925167	0,5	31,304700
1,933500	0,5	40,435801
1,941833	0,5	41,566651
1,950167	0,5	35,292201
1,958500	0,5	26,675700
1,966833	0,5	19,400400
1,975167	0,5	14,466950
1,983500	0,5	11,534450
1,991833	0,5	10,012050
2,000167	0,5	9,322700
2,008500	0,5	9,171050
2,016833	0,5	9,400450
2,025167	0,5	9,689450
2,033500	0,5	9,618700
2,041833	0,5	9,137550
2,050167	0,5	8,485200
2,058500	0,5	7,747800
2,066833	0,5	7,014300
2,075167	0,5	6,406250
2,083500	0,5	5,965500
2,091833	0,5	5,686950
2,100167	0,5	5,494650
2,108500	0,5	5,363450
2,116833	0,5	5,310550
2,125167	0,5	5,291800
2,133500	0,5	5,240150
2,141833	0,5	5,110000
2,150167	0,5	4,957650
2,158500	0,5	4,824100
2,166833	0,5	4,765350
2,175167	0,5	4,763600
2,183500	0,5	4,813100
2,191833	0,5	4,906200
2,200167	0,5	5,042050
2,208500	0,5	5,176150
2,216833	0,5	5,384100
2,225167	0,5	5,683850
2,233500	0,5	6,032150
2,241833	0,5	6,291250
2,250167	0,5	6,290000
2,258500	0,5	6,060750
2,266833	0,5	5,772500
2,275167	0,5	5,587650
2,283500	0,5	5,516450
2,291833	0,5	5,542800
2,300167	0,5	5,625200
2,308500	0,5	5,789100
2,316833	0,5	6,038650
2,325167	0,5	6,421300
2,333500	0,5	7,039800
2,341833	0,5	8,153900
2,350167	0,5	9,884600
2,358500	0,5	11,963400
2,366833	0,5	13,728000
2,375167	0,5	14,688450
2,383500	0,5	15,119200
2,391833	0,5	15,957450
2,400167	0,5	18,204900
2,408500	0,5	22,712800
2,416833	0,5	30,641150
2,425167	0,5	45,377701
2,433500	0,5	75,090151
2,441833	0,5	131,714752
2,450167	0,5	217,541353
2,458500	0,5	307,036155
2,466833	0,5	358,645355
2,475167	0,5	351,857155
2,483500	0,5	299,996454
2,491833	0,5	231,372003
2,500167	0,5	168,477503
2,508500	0,5	121,092702
2,516833	0,5	89,417401
2,525167	0,5	69,421451
2,533500	0,5	56,468051
2,541833	0,5	47,126801
2,550167	0,5	39,625701
2,558500	0,5	33,379900
2,566833	0,5	28,289650
2,575167	0,5	24,263550
2,583500	0,5	21,173700
2,591833	0,5	18,835950
2,600167	0,5	17,095100
2,608500	0,5	15,799600
2,616833	0,5	14,824700
2,625167	0,5	14,063350
2,633500	0,5	13,435100
2,641833	0,5	12,933750
2,650167	0,5	12,532700
2,658500	0,5	12,277150
2,666833	0,5	12,134200
2,675167	0,5	12,037650
2,683500	0,5	11,849600
2,691833	0,5	11,502000
2,700167	0,5	10,999700
2,708500	0,5	10,459700
2,716833	0,5	9,956600
2,725167	0,5	9,561600
2,733500	0,5	9,265550
2,741833	0,5	9,084150
2,750167	0,5	9,016000
2,758500	0,5	9,115400
2,766833	0,5	9,440300
2,775167	0,5	9,995300
2,783500	0,5	10,663100
2,791833	0,5	11,154050
2,800167	0,5	11,192600
2,808500	0,5	10,740750
2,816833	0,5	9,947250
2,825167	0,5	9,067600
2,833500	0,5	8,289100
2,841833	0,5	7,661200
2,850167	0,5	7,182600
2,858500	0,5	6,803350
2,866833	0,5	6,504300
2,875167	0,5	6,246650
2,883500	0,5	6,024350
2,891833	0,5	5,819700
2,900167	0,5	5,641200
2,908500	0,5	5,475350
2,916833	0,5	5,319650
2,925167	0,5	5,173300
2,933500	0,5	5,056200
2,941833	0,5	4,928300
2,950167	0,5	4,807250
2,958500	0,5	4,702700
2,966833	0,5	4,597200
2,975167	0,5	4,506900
2,983500	0,5	4,401650
2,991833	0,5	4,286500
3,000167	0,5	4,169250
3,008500	0,5	4,060250
3,016833	0,5	3,951950
3,025167	0,5	3,865750
3,033500	0,5	3,785800
3,041833	0,5	3,719000
3,050167	0,5	3,648150
3,058500	0,5	3,588450
3,066833	0,5	3,519550
3,075167	0,5	3,467150
3,083500	0,5	3,435900
3,091833	0,5	3,401100
3,100167	0,5	3,396800
3,108500	0,5	3,444350
3,116833	0,5	3,570450
3,125167	0,5	3,833800
3,133500	0,5	4,263650
3,141833	0,5	4,894750
3,150167	0,5	5,692450
3,158500	0,5	6,495050
3,166833	0,5	7,087850
3,175167	0,5	7,271000
3,183500	0,5	6,987450
3,191833	0,5	6,313100
3,200167	0,5	5,457100
3,208500	0,5	4,607100
3,216833	0,5	3,892300
3,225167	0,5	3,344700
3,233500	0,5	2,979000
3,241833	0,5	2,699300
3,250167	0,5	2,522100
3,258500	0,5	2,396550
3,266833	0,5	2,302400
3,275167	0,5	2,241100
3,283500	0,5	2,165200
3,291833	0,5	2,106950
3,300167	0,5	2,048350
3,308500	0,5	1,992150
3,316833	0,5	1,937350
3,325167	0,5	1,889950
3,333500	0,5	1,842850
3,341833	0,5	1,803900
3,350167	0,5	1,771650
3,358500	0,5	1,754450
3,366833	0,5	1,719200
3,375167	0,5	1,715050
3,383500	0,5	1,719650
3,391833	0,5	1,723150
3,400167	0,5	1,747200
3,408500	0,5	1,789200
3,416833	0,5	1,855900
3,425167	0,5	1,956200
3,433500	0,5	2,077750
3,441833	0,5	2,293800
3,450167	0,5	2,616250
3,458500	0,5	3,076950
3,466833	0,5	3,672700
3,475167	0,5	4,380950
3,483500	0,5	5,138150
3,491833	0,5	5,881400
3,500167	0,5	6,611400
3,508500	0,5	7,394150
3,516833	0,5	8,396150
3,525167	0,5	9,793000
3,533500	0,5	11,635400
3,541833	0,5	13,800400
3,550167	0,5	15,973900
3,558500	0,5	17,681300
3,566833	0,5	18,519150
3,575167	0,5	18,246050
3,583500	0,5	16,905250
3,591833	0,5	14,793250
3,600167	0,5	12,321900
3,608500	0,5	9,867000
3,616833	0,5	7,712000
3,625167	0,5	5,994400
3,633500	0,5	4,737750
3,641833	0,5	3,877250
3,650167	0,5	3,314400
3,658500	0,5	2,962350
3,666833	0,5	2,739350
3,675167	0,5	2,613450
3,683500	0,5	2,539700
3,691833	0,5	2,535650
3,700167	0,5	2,622650
3,708500	0,5	2,810050
3,716833	0,5	3,084550
3,725167	0,5	3,417350
3,733500	0,5	3,729700
3,741833	0,5	3,978650
3,750167	0,5	4,082200
3,758500	0,5	4,025500
3,766833	0,5	3,796400
3,775167	0,5	3,449000
3,783500	0,5	3,031200
3,791833	0,5	2,606650
3,800167	0,5	2,219500
3,808500	0,5	1,889000
3,816833	0,5	1,632150
3,825167	0,5	1,435250
3,833500	0,5	1,275750
3,841833	0,5	1,154900
3,850167	0,5	1,065800
3,858500	0,5	1,003450
3,866833	0,5	0,956300
3,875167	0,5	0,915800
3,883500	0,5	0,884500
3,891833	0,5	0,855600
3,900167	0,5	0,840700
3,908500	0,5	0,825350
3,916833	0,5	0,821600
3,925167	0,5	0,814500
3,933500	0,5	0,817950
3,941833	0,5	0,820450
3,950167	0,5	0,820550
3,958500	0,5	0,819700
3,966833	0,5	0,840250
3,975167	0,5	0,838050
3,983500	0,5	0,834300
3,991833	0,5	0,837250
4,000167	0,5	0,839700
4,008500	0,5	0,856250
4,016833	0,5	0,868100
4,025167	0,5	0,875300
4,033500	0,5	0,880000
4,041833	0,5	0,881900
4,050167	0,5	0,881450
4,058500	0,5	0,879900
4,066833	0,5	0,879000
4,075167	0,5	0,876850
4,083500	0,5	0,874150
4,091833	0,5	0,876900
4,100167	0,5	0,872700
4,108500	0,5	0,875300
4,116833	0,5	0,887650
4,125167	0,5	0,886650
4,133500	0,5	0,884950
4,141833	0,5	0,891150
4,150167	0,5	0,898650
4,158500	0,5	0,928350
4,166833	0,5	0,936650
4,175167	0,5	0,957150
4,183500	0,5	0,984250
4,191833	0,5	1,023750
4,200167	0,5	1,072550
4,208500	0,5	1,147350
4,216833	0,5	1,251250
4,225167	0,5	1,400450
4,233500	0,5	1,618450
4,241833	0,5	1,918750
4,250167	0,5	2,335700
4,258500	0,5	2,877650
4,266833	0,5	3,565100
4,275167	0,5	4,319350
4,283500	0,5	5,114400
4,291833	0,5	5,844400
4,300167	0,5	6,415300
4,308500	0,5	6,745000
4,316833	0,5	6,772450
4,325167	0,5	6,520950
4,333500	0,5	6,054050
4,341833	0,5	5,431650
4,350167	0,5	4,755950
4,358500	0,5	4,093400
4,366833	0,5	3,487450
4,375167	0,5	2,970600
4,383500	0,5	2,545400
4,391833	0,5	2,210000
4,400167	0,5	1,933450
4,408500	0,5	1,728750
4,416833	0,5	1,571550
4,425167	0,5	1,432350
4,433500	0,5	1,327350
4,441833	0,5	1,250100
4,450167	0,5	1,193050
4,458500	0,5	1,152550
4,466833	0,5	1,098650
4,475167	0,5	1,060000
4,483500	0,5	1,022250
4,491833	0,5	0,990500
4,500167	0,5	0,960000
4,508500	0,5	0,939650
4,516833	0,5	0,914050
4,525167	0,5	0,890250
4,533500	0,5	0,864250
4,541833	0,5	0,828400
4,550167	0,5	0,791450
4,558500	0,5	0,765650
4,566833	0,5	0,731150
4,575167	0,5	0,695250
4,583500	0,5	0,672050
4,591833	0,5	0,657200
4,600167	0,5	0,652800
4,608500	0,5	0,649000
4,616833	0,5	0,637200
4,625167	0,5	0,625100
4,633500	0,5	0,617600
4,641833	0,5	0,606900
4,650167	0,5	0,600750
4,658500	0,5	0,579500
4,666833	0,5	0,566300
4,675167	0,5	0,549050
4,683500	0,5	0,539700
4,691833	0,5	0,519750
4,700167	0,5	0,511750
4,708500	0,5	0,508350
4,716833	0,5	0,494100
4,725167	0,5	0,479750
4,733500	0,5	0,475400
4,741833	0,5	0,476300
4,750167	0,5	0,481000
4,758500	0,5	0,482350
4,766833	0,5	0,475000
4,775167	0,5	0,475300
4,783500	0,5	0,469850
4,791833	0,5	0,468650
4,800167	0,5	0,463200
4,808500	0,5	0,463500
4,816833	0,5	0,464850
4,825167	0,5	0,469750
4,833500	0,5	0,477500
4,841833	0,5	0,488300
4,850167	0,5	0,510300
4,858500	0,5	0,545000
4,866833	0,5	0,567700
4,875167	0,5	0,612850
4,883500	0,5	0,661000
4,891833	0,5	0,727450
4,900167	0,5	0,786400
4,908500	0,5	0,832350
4,916833	0,5	0,871000
4,925167	0,5	0,896300
4,933500	0,5	0,916000
4,941833	0,5	0,920500
4,950167	0,5	0,914500
4,958500	0,5	0,904450
4,966833	0,5	0,893900
4,975167	0,5	0,885600
4,983500	0,5	0,874550
4,991833	0,5	0,862450
5,000167	0,5	0,861950
5,008500	0,5	0,844000
5,016833	0,5	0,826200
5,025167	0,5	0,804400
5,033500	0,5	0,785150
5,041833	0,5	0,776650
5,050167	0,5	0,760800
5,058500	0,5	0,741300
5,066833	0,5	0,718700
5,075167	0,5	0,694650
5,083500	0,5	0,669250
5,091833	0,5	0,642100
5,100167	0,5	0,610600
5,108500	0,5	0,577700
5,116833	0,5	0,548900
5,125167	0,5	0,526500
5,133500	0,5	0,503250
5,141833	0,5	0,483350
5,150167	0,5	0,483450
5,158500	0,5	0,465850
5,166833	0,5	0,456750
5,175167	0,5	0,458250
5,183500	0,5	0,459950
5,191833	0,5	0,477350
5,200167	0,5	0,475950
5,208500	0,5	0,478400
5,216833	0,5	0,472700
5,225167	0,5	0,473400
5,233500	0,5	0,469450
5,241833	0,5	0,460850
5,250167	0,5	0,449900
5,258500	0,5	0,440650
5,266833	0,5	0,435650
5,275167	0,5	0,423050
5,283500	0,5	0,416800
5,291833	0,5	0,405000
5,300167	0,5	0,404800
5,308500	0,5	0,388300
5,316833	0,5	0,377200
5,325167	0,5	0,373450
5,333500	0,5	0,374800
5,341833	0,5	0,380350
5,350167	0,5	0,374000
5,358500	0,5	0,366100
5,366833	0,5	0,366400
5,375167	0,5	0,364250
5,383500	0,5	0,362200
5,391833	0,5	0,359400
5,400167	0,5	0,356400
5,408500	0,5	0,355550
5,416833	0,5	0,356200
5,425167	0,5	0,357900
5,433500	0,5	0,360000
5,441833	0,5	0,361350
5,450167	0,5	0,374550
5,458500	0,5	0,373650
5,466833	0,5	0,380850
5,475167	0,5	0,393200
5,483500	0,5	0,414350
5,491833	0,5	0,445200
5,500167	0,5	0,473050
5,508500	0,5	0,512400
5,516833	0,5	0,556050
5,525167	0,5	0,604950
5,533500	0,5	0,652350
5,541833	0,5	0,695100
5,550167	0,5	0,722550
5,558500	0,5	0,735200
5,566833	0,5	0,734400
5,575167	0,5	0,712850
5,583500	0,5	0,673900
5,591833	0,5	0,635050
5,600167	0,5	0,585800
5,608500	0,5	0,538350
5,616833	0,5	0,499100
5,625167	0,5	0,473800
5,633500	0,5	0,451000
5,641833	0,5	0,436100
5,650167	0,5	0,420450
5,658500	0,5	0,409400
5,666833	0,5	0,405050
5,675167	0,5	0,403350
5,683500	0,5	0,405300
5,691833	0,5	0,407950
5,700167	0,5	0,413200
5,708500	0,5	0,417000
5,716833	0,5	0,422600
5,725167	0,5	0,420700
5,733500	0,5	0,428000
5,741833	0,5	0,436250
5,750167	0,5	0,442100
5,758500	0,5	0,444600
5,766833	0,5	0,453300
5,775167	0,5	0,469650
5,783500	0,5	0,498050
5,791833	0,5	0,534900
5,800167	0,5	0,582400
5,808500	0,5	0,657050
5,816833	0,5	0,764150
5,825167	0,5	0,901300
5,833500	0,5	1,063650
5,841833	0,5	1,246350
5,850167	0,5	1,417250
5,858500	0,5	1,565700
5,866833	0,5	1,658150
5,875167	0,5	1,683450
5,883500	0,5	1,645000
5,891833	0,5	1,541700
5,900167	0,5	1,386800
5,908500	0,5	1,212250
5,916833	0,5	1,045300
5,925167	0,5	0,904250
5,933500	0,5	0,788850
5,941833	0,5	0,699950
5,950167	0,5	0,632950
5,958500	0,5	0,600800
5,966833	0,5	0,571400
5,975167	0,5	0,554050
5,983500	0,5	0,542050
5,991833	0,5	0,525800
6,000167	0,5	0,508500
6,008500	0,5	0,490450
6,016833	0,5	0,476300
6,025167	0,5	0,457300
6,033500	0,5	0,449800
6,041833	0,5	0,428500
6,050167	0,5	0,408550
6,058500	0,5	0,379450
6,066833	0,5	0,360050
6,075167	0,5	0,340350
6,083500	0,5	0,319950
6,091833	0,5	0,289550
6,100167	0,5	0,272600
6,108500	0,5	0,254300
6,116833	0,5	0,244150
6,125167	0,5	0,233650
6,133500	0,5	0,227050
6,141833	0,5	0,225400
6,150167	0,5	0,228700
6,158500	0,5	0,237900
6,166833	0,5	0,248350
6,175167	0,5	0,264550
6,183500	0,5	0,300800
6,191833	0,5	0,327850
6,200167	0,5	0,355550
6,208500	0,5	0,387150
6,216833	0,5	0,413650
6,225167	0,5	0,443450
6,233500	0,5	0,453200
6,241833	0,5	0,457150
6,250167	0,5	0,451350
6,258500	0,5	0,448800
6,266833	0,5	0,441600
6,275167	0,5	0,449550
6,283500	0,5	0,463550
6,291833	0,5	0,495000
6,300167	0,5	0,547100
6,308500	0,5	0,610900
6,316833	0,5	0,682950
6,325167	0,5	0,755250
6,333500	0,5	0,825500
6,341833	0,5	0,869400
6,350167	0,5	0,892000
6,358500	0,5	0,891850
6,366833	0,5	0,867200
6,375167	0,5	0,828650
6,383500	0,5	0,776650
6,391833	0,5	0,728900
6,400167	0,5	0,701850
6,408500	0,5	0,704900
6,416833	0,5	0,754150
6,425167	0,5	0,856200
6,433500	0,5	1,033300
6,441833	0,5	1,285000
6,450167	0,5	1,625900
6,458500	0,5	2,054800
6,466833	0,5	2,562600
6,475167	0,5	3,125500
6,483500	0,5	3,731200
6,491833	0,5	4,341000
6,500167	0,5	4,956300
6,508500	0,5	5,567700
6,516833	0,5	6,193100
6,525167	0,5	6,865150
6,533500	0,5	7,632950
6,541833	0,5	8,602400
6,550167	0,5	9,948750
6,558500	0,5	11,963100
6,566833	0,5	15,083800
6,575167	0,5	19,902000
6,583500	0,5	27,101200
6,591833	0,5	37,248251
6,600167	0,5	50,396701
6,608500	0,5	65,746151
6,616833	0,5	81,584101
6,625167	0,5	95,784501
6,633500	0,5	106,220602
6,641833	0,5	111,651452
6,650167	0,5	111,877352
6,658500	0,5	107,620902
6,666833	0,5	100,097551
6,675167	0,5	90,695151
6,683500	0,5	80,541451
6,691833	0,5	70,404451
6,700167	0,5	60,669451
6,708500	0,5	51,399601
6,716833	0,5	42,634051
6,725167	0,5	34,545851
6,733500	0,5	27,420250
6,741833	0,5	21,459250
6,750167	0,5	16,715100
6,758500	0,5	13,080750
6,766833	0,5	10,391950
6,775167	0,5	8,438150
6,783500	0,5	7,016100
6,791833	0,5	5,968950
6,800167	0,5	5,191900
6,808500	0,5	4,590650
6,816833	0,5	4,119650
6,825167	0,5	3,735950
6,833500	0,5	3,412200
6,841833	0,5	3,139150
6,850167	0,5	2,909500
6,858500	0,5	2,711650
6,866833	0,5	2,540950
6,875167	0,5	2,396600
6,883500	0,5	2,267950
6,891833	0,5	2,153700
6,900167	0,5	2,049400
6,908500	0,5	1,950100
6,916833	0,5	1,862450
6,925167	0,5	1,776350
6,933500	0,5	1,682600
6,941833	0,5	1,597550
6,950167	0,5	1,523050
6,958500	0,5	1,460350
6,966833	0,5	1,402150
6,975167	0,5	1,350050
6,983500	0,5	1,295750
6,991833	0,5	1,258800
7,000167	0,5	1,221050
7,008500	0,5	1,194200
7,016833	0,5	1,170850
7,025167	0,5	1,155850
7,033500	0,5	1,146900
7,041833	0,5	1,151200
7,050167	0,5	1,167400
7,058500	0,5	1,186650
7,066833	0,5	1,226300
7,075167	0,5	1,266750
7,083500	0,5	1,306400
7,091833	0,5	1,351550
7,100167	0,5	1,393850
7,108500	0,5	1,432350
7,116833	0,5	1,466000
7,125167	0,5	1,490650
7,133500	0,5	1,515900
7,141833	0,5	1,538350
7,150167	0,5	1,553050
7,158500	0,5	1,559600
7,166833	0,5	1,551000
7,175167	0,5	1,516650
7,183500	0,5	1,469550
7,191833	0,5	1,399250
7,200167	0,5	1,316350
7,208500	0,5	1,227700
7,216833	0,5	1,159850
7,225167	0,5	1,087850
7,233500	0,5	1,032700
7,241833	0,5	0,992650
7,250167	0,5	0,964050
7,258500	0,5	0,948250
7,266833	0,5	0,922650
7,275167	0,5	0,902500
7,283500	0,5	0,880650
7,291833	0,5	0,862300
7,300167	0,5	0,840800
7,308500	0,5	0,826900
7,316833	0,5	0,820500
7,325167	0,5	0,823400
7,333500	0,5	0,835500
7,341833	0,5	0,864000
7,350167	0,5	0,895900
7,358500	0,5	0,939550
7,366833	0,5	0,985950
7,375167	0,5	1,021000
7,383500	0,5	1,051100
7,391833	0,5	1,079200
7,400167	0,5	1,108000
7,408500	0,5	1,151500
7,416833	0,5	1,215550
7,425167	0,5	1,306900
7,433500	0,5	1,424350
7,441833	0,5	1,554500
7,450167	0,5	1,679400
7,458500	0,5	1,775350
7,466833	0,5	1,821200
7,475167	0,5	1,810650
7,483500	0,5	1,747350
7,491833	0,5	1,638800
7,500167	0,5	1,507850
7,508500	0,5	1,368250
7,516833	0,5	1,244050
7,525167	0,5	1,131550
7,533500	0,5	1,047300
7,541833	0,5	0,983850
7,550167	0,5	0,947700
7,558500	0,5	0,925900
7,566833	0,5	0,911900
7,575167	0,5	0,919750
7,583500	0,5	0,939150
7,591833	0,5	0,975150
7,600167	0,5	1,014450
7,608500	0,5	1,063550
7,616833	0,5	1,102150
7,625167	0,5	1,129350
7,633500	0,5	1,143250
7,641833	0,5	1,144450
7,650167	0,5	1,128250
7,658500	0,5	1,109050
7,666833	0,5	1,087250
7,675167	0,5	1,062650
7,683500	0,5	1,044250
7,691833	0,5	1,034650
7,700167	0,5	1,034750
7,708500	0,5	1,044150
7,716833	0,5	1,062100
7,725167	0,5	1,097200
7,733500	0,5	1,137300
7,741833	0,5	1,193000
7,750167	0,5	1,240500
7,758500	0,5	1,274500
7,766833	0,5	1,277550
7,775167	0,5	1,252050
7,783500	0,5	1,199250
7,791833	0,5	1,141900
7,800167	0,5	1,084800
7,808500	0,5	1,041400
7,816833	0,5	1,004300
7,825167	0,5	0,974650
7,833500	0,5	0,950000
7,841833	0,5	0,937400
7,850167	0,5	0,928450
7,858500	0,5	0,928250
7,866833	0,5	0,934650
7,875167	0,5	0,948250
7,883500	0,5	0,964500
7,891833	0,5	0,991300
7,900167	0,5	1,034550
7,908500	0,5	1,090550
7,916833	0,5	1,168800
7,925167	0,5	1,250900
7,933500	0,5	1,337300
7,941833	0,5	1,414250
7,950167	0,5	1,481400
7,958500	0,5	1,523500
7,966833	0,5	1,534650
7,975167	0,5	1,515400
7,983500	0,5	1,475600
7,991833	0,5	1,431300
8,000167	0,5	1,390100
8,008500	0,5	1,360200
8,016833	0,5	1,342600
8,025167	0,5	1,331800
8,033500	0,5	1,322250
8,041833	0,5	1,299100
8,050167	0,5	1,274250
8,058500	0,5	1,236550
8,066833	0,5	1,198800
8,075167	0,5	1,166300
8,083500	0,5	1,139500
8,091833	0,5	1,123450
8,100167	0,5	1,121050
8,108500	0,5	1,138200
8,116833	0,5	1,170350
8,125167	0,5	1,225300
8,133500	0,5	1,302550
8,141833	0,5	1,393000
8,150167	0,5	1,476650
8,158500	0,5	1,526650
8,166833	0,5	1,540900
8,175167	0,5	1,499750
8,183500	0,5	1,433100
8,191833	0,5	1,351700
8,200167	0,5	1,273900
8,208500	0,5	1,212550
8,216833	0,5	1,167450
8,225167	0,5	1,140700
8,233500	0,5	1,125300
8,241833	0,5	1,117200
8,250167	0,5	1,118000
8,258500	0,5	1,119300
8,266833	0,5	1,124700
8,275167	0,5	1,141300
8,283500	0,5	1,170400
8,291833	0,5	1,220300
8,300167	0,5	1,286300
8,308500	0,5	1,380350
8,316833	0,5	1,528450
8,325167	0,5	1,751900
8,333500	0,5	2,082200
8,341833	0,5	2,542500
8,350167	0,5	3,137350
8,358500	0,5	3,863650
8,366833	0,5	4,700500
8,375167	0,5	5,633650
8,383500	0,5	6,663900
8,391833	0,5	7,844750
8,400167	0,5	9,331250
8,408500	0,5	11,449600
8,416833	0,5	14,869350
8,425167	0,5	20,585700
8,433500	0,5	29,838050
8,441833	0,5	43,476301
8,450167	0,5	61,148151
8,458500	0,5	80,946501
8,466833	0,5	99,731701
8,475167	0,5	114,389452
8,483500	0,5	122,771202
8,491833	0,5	124,087102
8,500167	0,5	118,489202
8,508500	0,5	106,852602
8,516833	0,5	90,872701
8,525167	0,5	72,965151
8,533500	0,5	55,695501
8,541833	0,5	40,894101
8,550167	0,5	29,306000
8,558500	0,5	20,846900
8,566833	0,5	15,018650
8,575167	0,5	11,164100
8,583500	0,5	8,691500
8,591833	0,5	7,130550
8,600167	0,5	6,150150
8,608500	0,5	5,522750
8,616833	0,5	5,092200
8,625167	0,5	4,767150
8,633500	0,5	4,485700
8,641833	0,5	4,201250
8,650167	0,5	3,918000
8,658500	0,5	3,643350
8,666833	0,5	3,393800
8,675167	0,5	3,199450
8,683500	0,5	3,065700
8,691833	0,5	2,988800
8,700167	0,5	2,946800
8,708500	0,5	2,915850
8,716833	0,5	2,873550
8,725167	0,5	2,808050
8,733500	0,5	2,730250
8,741833	0,5	2,643000
8,750167	0,5	2,559250
8,758500	0,5	2,484050
8,766833	0,5	2,411250
8,775167	0,5	2,330000
8,783500	0,5	2,248400
8,791833	0,5	2,156600
8,800167	0,5	2,068850
8,808500	0,5	2,000150
8,816833	0,5	1,952700
8,825167	0,5	1,930750
8,833500	0,5	1,916900
8,841833	0,5	1,905750
8,850167	0,5	1,880900
8,858500	0,5	1,842600
8,866833	0,5	1,803800
8,875167	0,5	1,757250
8,883500	0,5	1,719850
8,891833	0,5	1,688400
8,900167	0,5	1,663650
8,908500	0,5	1,645400
8,916833	0,5	1,635850
8,925167	0,5	1,629100
8,933500	0,5	1,619700
8,941833	0,5	1,596500
8,950167	0,5	1,564100
8,958500	0,5	1,515400
8,966833	0,5	1,461250
8,975167	0,5	1,410600
8,983500	0,5	1,369700
8,991833	0,5	1,340400
9,000167	0,5	1,317350
9,008500	0,5	1,301450
9,016833	0,5	1,287050
9,025167	0,5	1,276800
9,033500	0,5	1,263550
9,041833	0,5	1,247800
9,050167	0,5	1,238700
9,058500	0,5	1,232000
9,066833	0,5	1,234300
9,075167	0,5	1,237200
9,083500	0,5	1,247800
9,091833	0,5	1,245800
9,100167	0,5	1,243900
9,108500	0,5	1,238600
9,116833	0,5	1,225050
9,125167	0,5	1,213000
9,133500	0,5	1,209600
9,141833	0,5	1,223350
9,150167	0,5	1,254500
9,158500	0,5	1,314750
9,166833	0,5	1,396250
9,175167	0,5	1,488200
9,183500	0,5	1,568850
9,191833	0,5	1,610650
9,200167	0,5	1,611550
9,208500	0,5	1,572650
9,216833	0,5	1,502000
9,225167	0,5	1,423200
9,233500	0,5	1,345200
9,241833	0,5	1,279250
9,250167	0,5	1,229500
9,258500	0,5	1,195100
9,266833	0,5	1,168050
9,275167	0,5	1,153350
9,283500	0,5	1,132600
9,291833	0,5	1,117800
9,300167	0,5	1,099600
9,308500	0,5	1,084450
9,316833	0,5	1,070600
9,325167	0,5	1,062050
9,333500	0,5	1,058700
9,341833	0,5	1,060400
9,350167	0,5	1,060500
9,358500	0,5	1,068100
9,366833	0,5	1,077000
9,375167	0,5	1,082800
9,383500	0,5	1,087550
9,391833	0,5	1,090500
9,400167	0,5	1,090150
9,408500	0,5	1,080850
9,416833	0,5	1,077950
9,425167	0,5	1,066250
9,433500	0,5	1,059550
9,441833	0,5	1,053200
9,450167	0,5	1,047100
9,458500	0,5	1,040750
9,466833	0,5	1,041750
9,475167	0,5	1,041300
9,483500	0,5	1,040400
9,491833	0,5	1,037900
9,500167	0,5	1,035250
9,508500	0,5	1,033250
9,516833	0,5	1,033800
9,525167	0,5	1,036400
9,533500	0,5	1,038850
9,541833	0,5	1,042950
9,550167	0,5	1,049250
9,558500	0,5	1,058850
9,566833	0,5	1,071750
9,575167	0,5	1,080150
9,583500	0,5	1,089700
9,591833	0,5	1,094950
9,600167	0,5	1,095200
9,608500	0,5	1,095050
9,616833	0,5	1,100150
9,625167	0,5	1,113950
9,633500	0,5	1,143450
9,641833	0,5	1,188750
9,650167	0,5	1,242500
9,658500	0,5	1,306100
9,666833	0,5	1,374300
9,675167	0,5	1,421200
9,683500	0,5	1,454450
9,691833	0,5	1,462800
9,700167	0,5	1,454500
9,708500	0,5	1,430700
9,716833	0,5	1,395400
9,725167	0,5	1,360200
9,733500	0,5	1,322950
9,741833	0,5	1,284800
9,750167	0,5	1,246000
9,758500	0,5	1,210650
9,766833	0,5	1,186050
9,775167	0,5	1,173800
9,783500	0,5	1,181350
9,791833	0,5	1,211300
9,800167	0,5	1,270550
9,808500	0,5	1,359550
9,816833	0,5	1,466300
9,825167	0,5	1,578300
9,833500	0,5	1,669400
9,841833	0,5	1,714900
9,850167	0,5	1,713250
9,858500	0,5	1,659350
9,866833	0,5	1,567850
9,875167	0,5	1,469950
9,883500	0,5	1,380900
9,891833	0,5	1,310650
9,900167	0,5	1,267000
9,908500	0,5	1,247950
9,916833	0,5	1,241300
9,925167	0,5	1,241100
9,933500	0,5	1,223250
9,941833	0,5	1,194750
9,950167	0,5	1,154350
9,958500	0,5	1,106700
9,966833	0,5	1,052600
9,975167	0,5	1,006050
9,983500	0,5	0,970550
9,991833	0,5	0,946100
10,000167	0,5	0,928750
10,008500	0,5	0,927850
10,016833	0,5	0,931600
10,025167	0,5	0,942800
10,033500	0,5	0,955450
10,041833	0,5	0,965700
10,050167	0,5	0,973750
10,058500	0,5	0,979450
10,066833	0,5	0,984900
10,075167	0,5	0,990100
10,083500	0,5	0,995600
10,091833	0,5	1,003000
10,100167	0,5	1,021300
10,108500	0,5	1,040900
10,116833	0,5	1,073900
10,125167	0,5	1,101650
10,133500	0,5	1,128250
10,141833	0,5	1,145600
10,150167	0,5	1,165400
10,158500	0,5	1,184350
10,166833	0,5	1,218300
10,175167	0,5	1,278650
10,183500	0,5	1,366150
10,191833	0,5	1,480300
10,200167	0,5	1,619350
10,208500	0,5	1,775450
10,216833	0,5	1,930200
10,225167	0,5	2,073300
10,233500	0,5	2,181150
10,241833	0,5	2,243600
10,250167	0,5	2,250250
10,258500	0,5	2,205200
10,266833	0,5	2,116900
10,275167	0,5	2,005250
10,283500	0,5	1,894500
10,291833	0,5	1,808000
10,300167	0,5	1,770900
10,308500	0,5	1,797600
10,316833	0,5	1,876800
10,325167	0,5	1,997550
10,333500	0,5	2,111000
10,341833	0,5	2,181600
10,350167	0,5	2,183450
10,358500	0,5	2,101950
10,366833	0,5	1,953600
10,375167	0,5	1,761450
10,383500	0,5	1,556750
10,391833	0,5	1,366550
10,400167	0,5	1,206150
10,408500	0,5	1,087250
10,416833	0,5	1,002000
10,425167	0,5	0,947950
10,433500	0,5	0,910300
10,441833	0,5	0,891950
10,450167	0,5	0,890400
10,458500	0,5	0,899450
10,466833	0,5	0,915350
10,475167	0,5	0,937950
10,483500	0,5	0,962150
10,491833	0,5	0,994700
10,500167	0,5	1,025550
10,508500	0,5	1,058150
10,516833	0,5	1,068700
10,525167	0,5	1,066100
10,533500	0,5	1,045400
10,541833	0,5	1,009300
10,550167	0,5	0,967550
10,558500	0,5	0,921900
10,566833	0,5	0,886700
10,575167	0,5	0,853500
10,583500	0,5	0,815550
10,591833	0,5	0,788500
10,600167	0,5	0,758850
10,608500	0,5	0,731400
10,616833	0,5	0,714700
10,625167	0,5	0,702500
10,633500	0,5	0,692600
10,641833	0,5	0,698700
10,650167	0,5	0,709250
10,658500	0,5	0,731350
10,666833	0,5	0,759050
10,675167	0,5	0,794450
10,683500	0,5	0,834450
10,691833	0,5	0,888750
10,700167	0,5	0,959600
10,708500	0,5	1,054850
10,716833	0,5	1,166600
10,725167	0,5	1,290700
10,733500	0,5	1,404200
10,741833	0,5	1,490450
10,750167	0,5	1,517550
10,758500	0,5	1,489400
10,766833	0,5	1,412800
10,775167	0,5	1,303700
10,783500	0,5	1,183250
10,791833	0,5	1,076600
10,800167	0,5	0,998000
10,808500	0,5	0,950600
10,816833	0,5	0,930750
10,825167	0,5	0,932750
10,833500	0,5	0,947450
10,841833	0,5	0,967450
10,850167	0,5	0,990900
10,858500	0,5	0,995850
10,866833	0,5	0,992200
10,875167	0,5	0,972650
10,883500	0,5	0,941450
10,891833	0,5	0,901650
10,900167	0,5	0,857800
10,908500	0,5	0,821050
10,916833	0,5	0,787300
10,925167	0,5	0,754350
10,933500	0,5	0,728400
10,941833	0,5	0,711500
10,950167	0,5	0,710650
10,958500	0,5	0,715050
10,966833	0,5	0,728850
10,975167	0,5	0,751400
10,983500	0,5	0,781600
10,991833	0,5	0,821250
11,000167	0,5	0,858350
11,008500	0,5	0,899650
11,016833	0,5	0,937850
11,025167	0,5	0,978700
11,033500	0,5	1,033050
11,041833	0,5	1,110150
11,050167	0,5	1,206000
11,058500	0,5	1,331850
11,066833	0,5	1,448800
11,075167	0,5	1,546900
11,083500	0,5	1,594600
11,091833	0,5	1,589950
11,100167	0,5	1,547300
11,108500	0,5	1,470650
11,116833	0,5	1,382700
11,125167	0,5	1,301150
11,133500	0,5	1,239800
11,141833	0,5	1,183150
11,150167	0,5	1,131450
11,158500	0,5	1,078700
11,166833	0,5	1,022350
11,175167	0,5	0,957800
11,183500	0,5	0,902600
11,191833	0,5	0,843400
11,200167	0,5	0,790700
11,208500	0,5	0,750800
11,216833	0,5	0,712800
11,225167	0,5	0,680300
11,233500	0,5	0,659100
11,241833	0,5	0,646450
11,250167	0,5	0,650050
11,258500	0,5	0,658650
11,266833	0,5	0,674950
11,275167	0,5	0,699300
11,283500	0,5	0,733200
11,291833	0,5	0,778100
11,300167	0,5	0,842650
11,308500	0,5	0,938700
11,316833	0,5	1,060250
11,325167	0,5	1,208450
11,333500	0,5	1,365350
11,341833	0,5	1,502200
11,350167	0,5	1,593050
11,358500	0,5	1,620400
11,366833	0,5	1,567650
11,375167	0,5	1,453500
11,383500	0,5	1,298150
11,391833	0,5	1,137650
11,400167	0,5	0,993350
11,408500	0,5	0,872700
11,416833	0,5	0,784250
11,425167	0,5	0,717050
11,433500	0,5	0,687250
11,441833	0,5	0,677150
11,450167	0,5	0,674700
11,458500	0,5	0,685500
11,466833	0,5	0,704200
11,475167	0,5	0,722100
11,483500	0,5	0,742700
11,491833	0,5	0,755000
11,500167	0,5	0,769550
11,508500	0,5	0,773950
11,516833	0,5	0,768650
11,525167	0,5	0,762350
11,533500	0,5	0,757950
11,541833	0,5	0,756950
11,550167	0,5	0,765600
11,558500	0,5	0,768450
11,566833	0,5	0,767100
11,575167	0,5	0,759650
11,583500	0,5	0,739550
11,591833	0,5	0,739150
11,600167	0,5	0,679050
11,608500	0,5	0,652550
11,616833	0,5	0,641950
11,625167	0,5	0,657200
11,633500	0,5	0,680300
11,641833	0,5	0,710050
11,650167	0,5	0,749050
11,658500	0,5	0,789600
11,666833	0,5	0,824600
11,675167	0,5	0,857600
11,683500	0,5	0,887850
11,691833	0,5	0,916350
11,700167	0,5	0,942750
11,708500	0,5	0,976400
11,716833	0,5	1,007650
11,725167	0,5	1,056550
11,733500	0,5	1,121000
11,741833	0,5	1,215950
11,750167	0,5	1,263450
11,758500	0,5	1,164900
11,766833	0,5	0,889200
11,775167	0,5	0,570550
11,783500	0,5	0,301350
11,791833	0,5	0,102700
11,800167	0,5	-0,030150
11,808500	0,5	-0,116250
11,816833	0,5	-0,166050
11,825167	0,5	-0,206500
11,833500	0,5	-0,220100
11,841833	0,5	-0,236950
11,850167	0,5	-0,243450
11,858500	0,5	-0,249300
11,866833	0,5	-0,251350
11,875167	0,5	-0,252450
11,883500	0,5	-0,247300
11,891833	0,5	-0,241850
11,900167	0,5	-0,237450
11,908500	0,5	-0,232200
11,916833	0,5	-0,231250
11,925167	0,5	-0,230950
11,933500	0,5	-0,236850
11,941833	0,5	-0,237850
11,950167	0,5	-0,242500
11,958500	0,5	-0,252250
11,966833	0,5	-0,262850
11,975167	0,5	-0,275700
11,983500	0,5	-0,283050
11,991833	0,5	-0,292750
12,000167	0,5	-0,301100
12,008500	0,5	-0,311300
12,016833	0,5	-0,323200
12,025167	0,5	-0,326950
12,033500	0,5	-0,338150
12,041833	0,5	-0,342800
12,050167	0,5	-0,348550
12,058500	0,5	-0,350800
12,066833	0,5	-0,352700
12,075167	0,5	-0,351000
12,083500	0,5	-0,358800
12,091833	0,5	-0,349450
12,100167	0,5	-0,347650
12,108500	0,5	-0,348600
12,116833	0,5	-0,348050
12,125167	0,5	-0,346300
12,133500	0,5	-0,330700
12,141833	0,5	-0,326650
12,150167	0,5	-0,320800
12,158500	0,5	-0,310750
12,166833	0,5	-0,304100
12,175167	0,5	-0,292450
12,183500	0,5	-0,284150
12,191833	0,5	-0,277550
12,200167	0,5	-0,267800
12,208500	0,5	-0,264500
12,216833	0,5	-0,256550
12,225167	0,5	-0,259850
12,233500	0,5	-0,257450
12,241833	0,5	-0,260900
12,250167	0,5	-0,262200
12,258500	0,5	-0,265950
12,266833	0,5	-0,264550
12,275167	0,5	-0,266650
12,283500	0,5	-0,258000
12,291833	0,5	-0,250250
12,300167	0,5	-0,243150
12,308500	0,5	-0,240850
12,316833	0,5	-0,235350
12,325167	0,5	-0,229200
12,333500	0,5	-0,226500
12,341833	0,5	-0,223850
12,350167	0,5	-0,224900
12,358500	0,5	-0,220400
12,366833	0,5	-0,219150
12,375167	0,5	-0,220050
12,383500	0,5	-0,213200
12,391833	0,5	-0,207900
12,400167	0,5	-0,203150
12,408500	0,5	-0,199950
12,416833	0,5	-0,198100
12,425167	0,5	-0,188900
12,433500	0,5	-0,180850
12,441833	0,5	-0,169600
12,450167	0,5	-0,163400
12,458500	0,5	-0,155950
12,466833	0,5	-0,154950
12,475167	0,5	-0,151400
12,483500	0,5	-0,147700
12,491833	0,5	-0,146100
12,500167	0,5	-0,145800
12,508500	0,5	-0,144400
12,516833	0,5	-0,142450
12,525167	0,5	-0,143350
12,533500	0,5	-0,133950
12,541833	0,5	-0,126100
12,550167	0,5	-0,125650
12,558500	0,5	-0,124100
12,566833	0,5	-0,117300
12,575167	0,5	-0,107400
12,583500	0,5	-0,090750
12,591833	0,5	-0,080750
12,600167	0,5	-0,062550
12,608500	0,5	-0,054500
12,616833	0,5	-0,040850
12,625167	0,5	-0,034200
12,633500	0,5	-0,026550
12,641833	0,5	-0,016050
12,650167	0,5	-0,009050
12,658500	0,5	-0,000400
12,666833	0,5	0,006250
12,675167	0,5	0,013750
12,683500	0,5	0,029100
12,691833	0,5	0,035100
12,700167	0,5	0,044050
12,708500	0,5	0,050300
12,716833	0,5	0,061000
12,725167	0,5	0,083800
12,733500	0,5	0,095350
12,741833	0,5	0,114450
12,750167	0,5	0,130250
12,758500	0,5	0,149950
12,766833	0,5	0,166050
12,775167	0,5	0,192050
12,783500	0,5	0,210500
12,791833	0,5	0,232100
12,800167	0,5	0,251650
12,808500	0,5	0,279450
12,816833	0,5	0,290400
12,825167	0,5	0,318800
12,833500	0,5	0,336850
12,841833	0,5	0,347850
12,850167	0,5	0,358450
12,858500	0,5	0,354850
12,866833	0,5	0,353200
12,875167	0,5	0,344000
12,883500	0,5	0,338400
12,891833	0,5	0,324750
12,900167	0,5	0,314400
12,908500	0,5	0,299900
12,916833	0,5	0,291650
12,925167	0,5	0,277950
12,933500	0,5	0,275600
12,941833	0,5	0,262000
12,950167	0,5	0,256300
12,958500	0,5	0,248500
12,966833	0,5	0,235300
12,975167	0,5	0,235550
12,983500	0,5	0,231800
12,991833	0,5	0,222550
13,000167	0,5	0,215250
13,008500	0,5	0,204600
13,016833	0,5	0,206750
13,025167	0,5	0,212800
13,033500	0,5	0,213350
13,041833	0,5	0,212150
13,050167	0,5	0,216350
13,058500	0,5	0,216450
13,066833	0,5	0,217150
13,075167	0,5	0,224300
13,083500	0,5	0,219500
13,091833	0,5	0,223000
13,100167	0,5	0,222700
13,108500	0,5	0,224700
13,116833	0,5	0,221800
13,125167	0,5	0,229500
13,133500	0,5	0,230600
13,141833	0,5	0,233000
13,150167	0,5	0,226300
13,158500	0,5	0,228700
13,166833	0,5	0,237400
13,175167	0,5	0,243500
13,183500	0,5	0,242700
13,191833	0,5	0,241300
13,200167	0,5	0,233950
13,208500	0,5	0,232350
13,216833	0,5	0,227450
13,225167	0,5	0,224500
13,233500	0,5	0,218850
13,241833	0,5	0,213800
13,250167	0,5	0,217450
13,258500	0,5	0,205400
13,266833	0,5	0,207850
13,275167	0,5	0,205650
13,283500	0,5	0,206200
13,291833	0,5	0,197150
13,300167	0,5	0,191950
13,308500	0,5	0,189950
13,316833	0,5	0,194150
13,325167	0,5	0,193350
13,333500	0,5	0,194800
13,341833	0,5	0,190750
13,350167	0,5	0,195750
13,358500	0,5	0,199100
13,366833	0,5	0,205000
13,375167	0,5	0,215350
13,383500	0,5	0,235000
13,391833	0,5	0,266600
13,400167	0,5	0,304150
13,408500	0,5	0,343750
13,416833	0,5	0,397400
13,425167	0,5	0,444600
13,433500	0,5	0,474100
13,441833	0,5	0,484350
13,450167	0,5	0,470100
13,458500	0,5	0,445850
13,466833	0,5	0,410050
13,475167	0,5	0,372850
13,483500	0,5	0,333750
13,491833	0,5	0,301150
13,500167	0,5	0,280300
13,508500	0,5	0,271100
13,516833	0,5	0,257250
13,525167	0,5	0,248000
13,533500	0,5	0,237700
13,541833	0,5	0,228700
13,550167	0,5	0,214400
13,558500	0,5	0,204050
13,566833	0,5	0,202400
13,575167	0,5	0,202400
13,583500	0,5	0,198200
13,591833	0,5	0,199550
13,600167	0,5	0,216350
13,608500	0,5	0,242550
13,616833	0,5	0,281050
13,625167	0,5	0,326400
13,633500	0,5	0,376600
13,641833	0,5	0,424350
13,650167	0,5	0,463550
13,658500	0,5	0,481000
13,666833	0,5	0,478050
13,675167	0,5	0,449700
13,683500	0,5	0,405350
13,691833	0,5	0,356000
13,700167	0,5	0,300800
13,708500	0,5	0,264800
13,716833	0,5	0,241300
13,725167	0,5	0,222100
13,733500	0,5	0,219300
13,741833	0,5	0,220250
13,750167	0,5	0,237000
13,758500	0,5	0,259750
13,766833	0,5	0,275050
13,775167	0,5	0,284650
13,783500	0,5	0,289850
13,791833	0,5	0,304050
13,800167	0,5	0,325850
13,808500	0,5	0,374350
13,816833	0,5	0,427250
13,825167	0,5	0,487650
13,833500	0,5	0,538350
13,841833	0,5	0,570500
13,850167	0,5	0,555600
13,858500	0,5	0,535600
13,866833	0,5	0,480000
13,875167	0,5	0,418600
13,883500	0,5	0,355000
13,891833	0,5	0,307500
13,900167	0,5	0,284700
13,908500	0,5	0,264500
13,916833	0,5	0,247050
13,925167	0,5	0,229500
13,933500	0,5	0,214700
13,941833	0,5	0,199500
13,950167	0,5	0,200150
13,958500	0,5	0,220900
13,966833	0,5	0,256350
13,975167	0,5	0,308350
13,983500	0,5	0,370600
13,991833	0,5	0,421350
14,000167	0,5	0,451350
14,008500	0,5	0,466550
14,016833	0,5	0,453300
14,025167	0,5	0,413200
14,033500	0,5	0,371650
14,041833	0,5	0,313750
14,050167	0,5	0,271000
14,058500	0,5	0,228700
14,066833	0,5	0,193500
14,075167	0,5	0,163400
14,083500	0,5	0,147300
14,091833	0,5	0,148800
14,100167	0,5	0,165550
14,108500	0,5	0,204700
14,116833	0,5	0,243850
14,125167	0,5	0,291250
14,133500	0,5	0,335150
14,141833	0,5	0,364900
14,150167	0,5	0,370300
14,158500	0,5	0,364400
14,166833	0,5	0,326450
14,175167	0,5	0,277900
14,183500	0,5	0,222050
14,191833	0,5	0,178950
14,200167	0,5	0,144350
14,208500	0,5	0,123000
14,216833	0,5	0,109300
14,225167	0,5	0,116000
14,233500	0,5	0,131050
14,241833	0,5	0,155650
14,250167	0,5	0,176850
14,258500	0,5	0,196200
14,266833	0,5	0,208500
14,275167	0,5	0,202550
14,283500	0,5	0,196300
14,291833	0,5	0,165200
14,300167	0,5	0,141550
14,308500	0,5	0,113350
14,316833	0,5	0,084950
14,325167	0,5	0,050200
14,333500	0,5	0,032500
14,341833	0,5	0,025550
14,350167	0,5	0,034150
14,358500	0,5	0,037100
14,366833	0,5	0,051050
14,375167	0,5	0,047050
14,383500	0,5	0,053400
14,391833	0,5	0,054500
14,400167	0,5	0,049200
14,408500	0,5	0,038050
14,416833	0,5	0,031150
14,425167	0,5	0,026300
14,433500	0,5	0,024200
14,441833	0,5	0,028350
14,450167	0,5	0,052450
14,458500	0,5	0,072950
14,466833	0,5	0,101000
14,475167	0,5	0,126150
14,483500	0,5	0,141800
14,491833	0,5	0,161450
14,500167	0,5	0,157100
14,508500	0,5	0,139650
14,516833	0,5	0,106050
14,525167	0,5	0,077600
14,533500	0,5	0,040500
14,541833	0,5	0,013800
14,550167	0,5	-0,013250
14,558500	0,5	-0,027550
14,566833	0,5	-0,039500
14,575167	0,5	-0,042650
14,583500	0,5	-0,050450
14,591833	0,5	-0,039750
14,600167	0,5	-0,031500
14,608500	0,5	-0,029900
14,616833	0,5	-0,026800
14,625167	0,5	-0,036900
14,633500	0,5	-0,039050
14,641833	0,5	-0,046100
14,650167	0,5	-0,053350
14,658500	0,5	-0,061650
14,666833	0,5	-0,067300
14,675167	0,5	-0,075300
14,683500	0,5	-0,069750
14,691833	0,5	-0,068250
14,700167	0,5	-0,054750
14,708500	0,5	-0,051100
14,716833	0,5	-0,039600
14,725167	0,5	-0,037900
14,733500	0,5	-0,041800
14,741833	0,5	-0,037800
14,750167	0,5	-0,051350
14,758500	0,5	-0,060000
14,766833	0,5	-0,078550
14,775167	0,5	-0,096700
14,783500	0,5	-0,104900
14,791833	0,5	-0,107550
14,800167	0,5	-0,109750
14,808500	0,5	-0,107250
14,816833	0,5	-0,103750
14,825167	0,5	-0,093350
14,833500	0,5	-0,092500
14,841833	0,5	-0,082350
14,850167	0,5	-0,081700
14,858500	0,5	-0,080900
14,866833	0,5	-0,080900
14,875167	0,5	-0,080100
14,883500	0,5	-0,089400
14,891833	0,5	-0,083800
14,900167	0,5	-0,082650
14,908500	0,5	-0,096300
14,916833	0,5	-0,104600
14,925167	0,5	-0,117000
14,933500	0,5	-0,124700
14,941833	0,5	-0,132550
14,950167	0,5	-0,141350
14,958500	0,5	-0,146550
14,966833	0,5	-0,149800
14,975167	0,5	-0,157950
14,983500	0,5	-0,150500
14,991833	0,5	-0,154300
15,000167	0,5	-0,149950
15,008500	0,5	-0,149600
15,016833	0,5	-0,142250
15,025167	0,5	-0,143100
15,033500	0,5	-0,136150
15,041833	0,5	-0,125050
15,050167	0,5	-0,125100
15,058500	0,5	-0,137950
15,066833	0,5	-0,148700
15,075167	0,5	-0,157600
15,083500	0,5	-0,157400
15,091833	0,5	-0,164000
15,100167	0,5	-0,171400
15,108500	0,5	-0,178150
15,116833	0,5	-0,181200
15,125167	0,5	-0,181050
15,133500	0,5	-0,182450
15,141833	0,5	-0,185000
15,150167	0,5	-0,188100
15,158500	0,5	-0,194450
15,166833	0,5	-0,193000
15,175167	0,5	-0,198350
15,183500	0,5	-0,185300
15,191833	0,5	-0,182550
15,200167	0,5	-0,182250
15,208500	0,5	-0,178900
15,216833	0,5	-0,190450
15,225167	0,5	-0,184300
15,233500	0,5	-0,180650
15,241833	0,5	-0,172700
15,250167	0,5	-0,174700
15,258500	0,5	-0,175100
15,266833	0,5	-0,176100
15,275167	0,5	-0,178200
15,283500	0,5	-0,186100
15,291833	0,5	-0,195750
15,300167	0,5	-0,202050
15,308500	0,5	-0,216200
15,316833	0,5	-0,212300
15,325167	0,5	-0,223600
15,333500	0,5	-0,213050
15,341833	0,5	-0,214500
15,350167	0,5	-0,218550
15,358500	0,5	-0,227900
15,366833	0,5	-0,230750
15,375167	0,5	-0,227800
15,383500	0,5	-0,218600
15,391833	0,5	-0,218250
15,400167	0,5	-0,215650
15,408500	0,5	-0,216150
15,416833	0,5	-0,211550
15,425167	0,5	-0,210850
15,433500	0,5	-0,209050
15,441833	0,5	-0,203100
15,450167	0,5	-0,198550
15,458500	0,5	-0,195150
15,466833	0,5	-0,193050
15,475167	0,5	-0,190550
15,483500	0,5	-0,182800
15,491833	0,5	-0,186550
15,500167	0,5	-0,193100
15,508500	0,5	-0,200450
15,516833	0,5	-0,204650
15,525167	0,5	-0,193600
15,533500	0,5	-0,196550
15,541833	0,5	-0,181850
15,550167	0,5	-0,179950
15,558500	0,5	-0,167400
15,566833	0,5	-0,157900
15,575167	0,5	-0,144650
15,583500	0,5	-0,135500
15,591833	0,5	-0,127850
15,600167	0,5	-0,117100
15,608500	0,5	-0,117650
15,616833	0,5	-0,134300
15,625167	0,5	-0,132200
15,633500	0,5	-0,136950
15,641833	0,5	-0,152600
15,650167	0,5	-0,173900
15,658500	0,5	-0,201200
15,666833	0,5	-0,206100
15,675167	0,5	-0,214250
15,683500	0,5	-0,213100
15,691833	0,5	-0,223400
15,700167	0,5	-0,224100
15,708500	0,5	-0,228900
15,716833	0,5	-0,229000
15,725167	0,5	-0,228350
15,733500	0,5	-0,229300
15,741833	0,5	-0,225050
15,750167	0,5	-0,220500
15,758500	0,5	-0,219500
15,766833	0,5	-0,216150
15,775167	0,5	-0,213500
15,783500	0,5	-0,216400
15,791833	0,5	-0,228200
15,800167	0,5	-0,239100
15,808500	0,5	-0,249100
15,816833	0,5	-0,253750
15,825167	0,5	-0,247850
15,833500	0,5	-0,252650
15,841833	0,5	-0,245100
15,850167	0,5	-0,243000
15,858500	0,5	-0,228950
15,866833	0,5	-0,220950
15,875167	0,5	-0,206950
15,883500	0,5	-0,201500
15,891833	0,5	-0,203950
15,900167	0,5	-0,206000
15,908500	0,5	-0,219800
15,916833	0,5	-0,232600
15,925167	0,5	-0,234950
15,933500	0,5	-0,248200
15,941833	0,5	-0,260900
15,950167	0,5	-0,281450
15,958500	0,5	-0,286350
15,966833	0,5	-0,281700
15,975167	0,5	-0,288700
15,983500	0,5	-0,289150
15,991833	0,5	-0,293100
16,000167	0,5	-0,290600
16,008500	0,5	-0,293200
16,016833	0,5	-0,291150
16,025167	0,5	-0,295450
16,033500	0,5	-0,293200
16,041833	0,5	-0,294950
16,050167	0,5	-0,285650
16,058500	0,5	-0,296550
16,066833	0,5	-0,282250
16,075167	0,5	-0,279450
16,083500	0,5	-0,277600
16,091833	0,5	-0,283350
16,100167	0,5	-0,300500
16,108500	0,5	-0,294000
16,116833	0,5	-0,290650
16,125167	0,5	-0,292650
16,133500	0,5	-0,293150
16,141833	0,5	-0,293200
16,150167	0,5	-0,296250
16,158500	0,5	-0,289650
16,166833	0,5	-0,287400
16,175167	0,5	-0,285600
16,183500	0,5	-0,288300
16,191833	0,5	-0,282700
16,200167	0,5	-0,284600
16,208500	0,5	-0,294450
16,216833	0,5	-0,290050
16,225167	0,5	-0,293450
16,233500	0,5	-0,299850
16,241833	0,5	-0,308750
16,250167	0,5	-0,318350
16,258500	0,5	-0,313300
16,266833	0,5	-0,306750
16,275167	0,5	-0,299300
16,283500	0,5	-0,299700
16,291833	0,5	-0,295800
16,300167	0,5	-0,296850
16,308500	0,5	-0,302200
16,316833	0,5	-0,302800
16,325167	0,5	-0,308400
16,333500	0,5	-0,307050
16,341833	0,5	-0,310700
16,350167	0,5	-0,309400
16,358500	0,5	-0,310850
16,366833	0,5	-0,300350
16,375167	0,5	-0,298900
16,383500	0,5	-0,297850
16,391833	0,5	-0,308550
16,400167	0,5	-0,309400
16,408500	0,5	-0,306450
16,416833	0,5	-0,298350
16,425167	0,5	-0,300850
16,433500	0,5	-0,297850
16,441833	0,5	-0,298350
16,450167	0,5	-0,289800
16,458500	0,5	-0,290250
16,466833	0,5	-0,288650
16,475167	0,5	-0,288250
16,483500	0,5	-0,288300
16,491833	0,5	-0,288700
16,500167	0,5	-0,300700
16,508500	0,5	-0,294000
16,516833	0,5	-0,296350
16,525167	0,5	-0,299550
16,533500	0,5	-0,312450
16,541833	0,5	-0,319200
16,550167	0,5	-0,323950
16,558500	0,5	-0,313550
16,566833	0,5	-0,316300
16,575167	0,5	-0,312350
16,583500	0,5	-0,312900
16,591833	0,5	-0,306600
16,600167	0,5	-0,305750
16,608500	0,5	-0,299800
16,616833	0,5	-0,299450
16,625167	0,5	-0,296700
16,633500	0,5	-0,288600
16,641833	0,5	-0,288850
16,650167	0,5	-0,284500
16,658500	0,5	-0,267500
16,666833	0,5	-0,256350
16,675167	0,5	-0,253050
16,683500	0,5	-0,253700
16,691833	0,5	-0,260200
16,700167	0,5	-0,250700
16,708500	0,5	-0,254100
16,716833	0,5	-0,251100
16,725167	0,5	-0,255850
16,733500	0,5	-0,249700
16,741833	0,5	-0,251600
16,750167	0,5	-0,247800
16,758500	0,5	-0,243700
16,766833	0,5	-0,235250
16,775167	0,5	-0,228950
16,783500	0,5	-0,214600
16,791833	0,5	-0,215350
16,800167	0,5	-0,195050
16,808500	0,5	-0,180500
16,816833	0,5	-0,165600
16,825167	0,5	-0,160950
16,833500	0,5	-0,163850
16,841833	0,5	-0,152400
16,850167	0,5	-0,143650
16,858500	0,5	-0,138550
16,866833	0,5	-0,147650
16,875167	0,5	-0,150600
16,883500	0,5	-0,162000
16,891833	0,5	-0,166750
16,900167	0,5	-0,173450
16,908500	0,5	-0,179250
16,916833	0,5	-0,182550
16,925167	0,5	-0,188350
16,933500	0,5	-0,187150
16,941833	0,5	-0,196950
16,950167	0,5	-0,187000
16,958500	0,5	-0,177350
16,966833	0,5	-0,179100
16,975167	0,5	-0,177000
16,983500	0,5	-0,189900
16,991833	0,5	-0,183750
17,000167	0,5	-0,177300
17,008500	0,5	-0,173400
17,016833	0,5	-0,172600
17,025167	0,5	-0,172150
17,033500	0,5	-0,163250
17,041833	0,5	-0,159150
17,050167	0,5	-0,150550
17,058500	0,5	-0,147150
17,066833	0,5	-0,142200
17,075167	0,5	-0,142650
17,083500	0,5	-0,138900
17,091833	0,5	-0,158000
17,100167	0,5	-0,145650
17,108500	0,5	-0,153400
17,116833	0,5	-0,158850
17,125167	0,5	-0,177100
17,133500	0,5	-0,187250
17,141833	0,5	-0,180650
17,150167	0,5	-0,182150
17,158500	0,5	-0,180200
17,166833	0,5	-0,184750
17,175167	0,5	-0,183850
17,183500	0,5	-0,183500
17,191833	0,5	-0,180450
17,200167	0,5	-0,182700
17,208500	0,5	-0,181150
17,216833	0,5	-0,181300
17,225167	0,5	-0,174000
17,233500	0,5	-0,180050
17,241833	0,5	-0,180650
17,250167	0,5	-0,175800
17,258500	0,5	-0,179250
17,266833	0,5	-0,192450
17,275167	0,5	-0,199850
17,283500	0,5	-0,207650
17,291833	0,5	-0,203800
17,300167	0,5	-0,207650
17,308500	0,5	-0,208100
17,316833	0,5	-0,211100
17,325167	0,5	-0,213750
17,333500	0,5	-0,214550
17,341833	0,5	-0,213750
17,350167	0,5	-0,216300
17,358500	0,5	-0,217650
17,366833	0,5	-0,213600
17,375167	0,5	-0,215650
17,383500	0,5	-0,226800
17,391833	0,5	-0,222000
17,400167	0,5	-0,218700
17,408500	0,5	-0,227750
17,416833	0,5	-0,235950
17,425167	0,5	-0,251550
17,433500	0,5	-0,252050
17,441833	0,5	-0,253150
17,450167	0,5	-0,250800
17,458500	0,5	-0,254400
17,466833	0,5	-0,254050
17,475167	0,5	-0,256100
17,483500	0,5	-0,258750
17,491833	0,5	-0,259600
17,500167	0,5	-0,267350
17,508500	0,5	-0,265700
17,516833	0,5	-0,269250
17,525167	0,5	-0,277350
17,533500	0,5	-0,282300
17,541833	0,5	-0,276400
17,550167	0,5	-0,282550
17,558500	0,5	-0,282350
17,566833	0,5	-0,300350
17,575167	0,5	-0,302400
17,583500	0,5	-0,309750
17,591833	0,5	-0,304950
17,600167	0,5	-0,312050
17,608500	0,5	-0,307900
17,616833	0,5	-0,321000
17,625167	0,5	-0,317050
17,633500	0,5	-0,317900
17,641833	0,5	-0,317350
17,650167	0,5	-0,316950
17,658500	0,5	-0,320900
17,666833	0,5	-0,318100
17,675167	0,5	-0,331150
17,683500	0,5	-0,324150
17,691833	0,5	-0,325900
17,700167	0,5	-0,330250
17,708500	0,5	-0,340250
17,716833	0,5	-0,357200
17,725167	0,5	-0,358300
17,733500	0,5	-0,355250
17,741833	0,5	-0,366150
17,750167	0,5	-0,360200
17,758500	0,5	-0,363050
17,766833	0,5	-0,361300
17,775167	0,5	-0,364700
17,783500	0,5	-0,368850
17,791833	0,5	-0,369500
17,800167	0,5	-0,374350
17,808500	0,5	-0,366850
17,816833	0,5	-0,370650
17,825167	0,5	-0,384500
17,833500	0,5	-0,378100
17,841833	0,5	-0,380250
17,850167	0,5	-0,386600
17,858500	0,5	-0,391650
17,866833	0,5	-0,408600
17,875167	0,5	-0,397650
17,883500	0,5	-0,401900
17,891833	0,5	-0,395100
17,900167	0,5	-0,401950
17,908500	0,5	-0,401850
17,916833	0,5	-0,404850
17,925167	0,5	-0,399050
17,933500	0,5	-0,398800
17,941833	0,5	-0,400800
17,950167	0,5	-0,402950
17,958500	0,5	-0,401950
17,966833	0,5	-0,401900
17,975167	0,5	-0,412500
17,983500	0,5	-0,405600
17,991833	0,5	-0,404800
18,000167	0,5	-0,410850
18,008500	0,5	-0,425850
18,016833	0,5	-0,432050
18,025167	0,5	-0,431600
18,033500	0,5	-0,426550
18,041833	0,5	-0,432150
18,050167	0,5	-0,431000
18,058500	0,5	-0,438950
18,066833	0,5	-0,433650
18,075167	0,5	-0,433100
18,083500	0,5	-0,439050
18,091833	0,5	-0,441900
18,100167	0,5	-0,441900
18,108500	0,5	-0,440550
18,116833	0,5	-0,447200
18,125167	0,5	-0,447100
18,133500	0,5	-0,444150
18,141833	0,5	-0,449450
18,150167	0,5	-0,464150
18,158500	0,5	-0,477600
18,166833	0,5	-0,488300
18,175167	0,5	-0,482150
18,183500	0,5	-0,492050
18,191833	0,5	-0,491350
18,200167	0,5	-0,498550
18,208500	0,5	-0,502400
18,216833	0,5	-0,503000
18,225167	0,5	-0,501950
18,233500	0,5	-0,510050
18,241833	0,5	-0,506900
18,250167	0,5	-0,503950
18,258500	0,5	-0,504250
18,266833	0,5	-0,517750
18,275167	0,5	-0,512150
18,283500	0,5	-0,511150
18,291833	0,5	-0,516300
18,300167	0,5	-0,532800
18,308500	0,5	-0,542750
18,316833	0,5	-0,540250
18,325167	0,5	-0,536150
18,333500	0,5	-0,535350
18,341833	0,5	-0,539900
18,350167	0,5	-0,539050
18,358500	0,5	-0,543300
18,366833	0,5	-0,538350
18,375167	0,5	-0,538950
18,383500	0,5	-0,537350
18,391833	0,5	-0,537850
18,400167	0,5	-0,529850
18,408500	0,5	-0,534350
18,416833	0,5	-0,533650
18,425167	0,5	-0,529100
18,433500	0,5	-0,534800
18,441833	0,5	-0,535650
18,450167	0,5	-0,545950
18,458500	0,5	-0,555600
18,466833	0,5	-0,556700
18,475167	0,5	-0,549950
18,483500	0,5	-0,547550
18,491833	0,5	-0,540250
18,500167	0,5	-0,547150
18,508500	0,5	-0,542900
18,516833	0,5	-0,539700
18,525167	0,5	-0,536750
18,533500	0,5	-0,538200
18,541833	0,5	-0,523950
18,550167	0,5	-0,520500
18,558500	0,5	-0,531050
18,566833	0,5	-0,529000
18,575167	0,5	-0,520600
18,583500	0,5	-0,524150
18,591833	0,5	-0,527550
18,600167	0,5	-0,544350
18,608500	0,5	-0,542450
18,616833	0,5	-0,536550
18,625167	0,5	-0,532250
18,633500	0,5	-0,531250
18,641833	0,5	-0,525000
18,650167	0,5	-0,519300
18,658500	0,5	-0,512500
18,666833	0,5	-0,501950
18,675167	0,5	-0,500000
18,683500	0,5	-0,493850
18,691833	0,5	-0,487800
18,700167	0,5	-0,490400
18,708500	0,5	-0,509250
18,716833	0,5	-0,502400
18,725167	0,5	-0,510250
18,733500	0,5	-0,523100
18,741833	0,5	-0,535750
18,750167	0,5	-0,552550
18,758500	0,5	-0,552250
18,766833	0,5	-0,554850
18,775167	0,5	-0,559300
18,783500	0,5	-0,557650
18,791833	0,5	-0,562500
18,800167	0,5	-0,562800
18,808500	0,5	-0,564450
18,816833	0,5	-0,560850
18,825167	0,5	-0,560150
18,833500	0,5	-0,564600
18,841833	0,5	-0,551850
18,850167	0,5	-0,559700
18,858500	0,5	-0,557400
18,866833	0,5	-0,554000
18,875167	0,5	-0,555600
18,883500	0,5	-0,572000
18,891833	0,5	-0,590650
18,900167	0,5	-0,598250
18,908500	0,5	-0,584750
18,916833	0,5	-0,594150
18,925167	0,5	-0,596550
18,933500	0,5	-0,598450
18,941833	0,5	-0,593850
18,950167	0,5	-0,596750
18,958500	0,5	-0,593200
18,966833	0,5	-0,596800
18,975167	0,5	-0,598150
18,983500	0,5	-0,597250
18,991833	0,5	-0,597400
19,000167	0,5	-0,609750
19,008500	0,5	-0,601800
19,016833	0,5	-0,599150
19,025167	0,5	-0,598200
19,033500	0,5	-0,598300
19,041833	0,5	-0,610650
19,050167	0,5	-0,604700
19,058500	0,5	-0,602650
19,066833	0,5	-0,599950
19,075167	0,5	-0,605700
19,083500	0,5	-0,607400
19,091833	0,5	-0,612150
19,100167	0,5	-0,604300
19,108500	0,5	-0,597200
19,116833	0,5	-0,596200
19,125167	0,5	-0,588050
19,133500	0,5	-0,587800
19,141833	0,5	-0,586250
19,150167	0,5	-0,600250
19,158500	0,5	-0,597750
19,166833	0,5	-0,606100
19,175167	0,5	-0,611350
19,183500	0,5	-0,634550
19,191833	0,5	-0,650750
19,200167	0,5	-0,655800
19,208500	0,5	-0,640100
19,216833	0,5	-0,647300
19,225167	0,5	-0,636950
19,233500	0,5	-0,636650
19,241833	0,5	-0,638500
19,250167	0,5	-0,634400
19,258500	0,5	-0,633150
19,266833	0,5	-0,634400
19,275167	0,5	-0,630350
19,283500	0,5	-0,626000
19,291833	0,5	-0,630300
19,300167	0,5	-0,626400
19,308500	0,5	-0,611350
19,316833	0,5	-0,601800
19,325167	0,5	-0,590350
19,333500	0,5	-0,574900
19,341833	0,5	-0,560750
19,350167	0,5	-0,535800
19,358500	0,5	-0,522000
19,366833	0,5	-0,522900
19,375167	0,5	-0,535350
19,383500	0,5	-0,551550
19,391833	0,5	-0,564950
19,400167	0,5	-0,564400
19,408500	0,5	-0,557700
19,416833	0,5	-0,539900
19,425167	0,5	-0,498600
19,433500	0,5	-0,466700
19,441833	0,5	-0,442750
19,450167	0,5	-0,413400
19,458500	0,5	-0,407100
19,466833	0,5	-0,431300
19,475167	0,5	-0,470600
19,483500	0,5	-0,530050
19,491833	0,5	-0,561700
19,500167	0,5	-0,592050
19,508500	0,5	-0,605350
19,516833	0,5	-0,618550
19,525167	0,5	-0,616650
19,533500	0,5	-0,619200
19,541833	0,5	-0,606550
19,550167	0,5	-0,606550
19,558500	0,5	-0,599800
19,566833	0,5	-0,598150
19,575167	0,5	-0,587200
19,583500	0,5	-0,594600
19,591833	0,5	-0,595600
19,600167	0,5	-0,587450
19,608500	0,5	-0,576350
19,616833	0,5	-0,565350
19,625167	0,5	-0,558300
19,633500	0,5	-0,538900
19,641833	0,5	-0,516300
19,650167	0,5	-0,498000
19,658500	0,5	-0,496350
19,666833	0,5	-0,505150
19,675167	0,5	-0,528550
19,683500	0,5	-0,550650
19,691833	0,5	-0,572800
19,700167	0,5	-0,583950
19,708500	0,5	-0,600750
19,716833	0,5	-0,602650
19,725167	0,5	-0,602200
19,733500	0,5	-0,615800
19,741833	0,5	-0,615500
19,750167	0,5	-0,610500
19,758500	0,5	-0,611700
19,766833	0,5	-0,618550
19,775167	0,5	-0,637150
19,783500	0,5	-0,632400
19,791833	0,5	-0,624800
19,800167	0,5	-0,624400
19,808500	0,5	-0,620300
19,816833	0,5	-0,617600
19,825167	0,5	-0,613600
19,833500	0,5	-0,612300
19,841833	0,5	-0,603400
19,850167	0,5	-0,602850
19,858500	0,5	-0,599950
19,866833	0,5	-0,593800
19,875167	0,5	-0,593050
19,883500	0,5	-0,611200
19,891833	0,5	-0,591750
19,900167	0,5	-0,593800
19,908500	0,5	-0,595950
19,916833	0,5	-0,604000
19,925167	0,5	-0,615550
19,933500	0,5	-0,600750
19,941833	0,5	-0,597050
19,950167	0,5	-0,593550
19,958500	0,5	-0,598000
19,966833	0,5	-0,590250
19,975167	0,5	-0,592600
19,983500	0,5	-0,585950
19,991833	0,5	-0,582500
20,000167	0,5	-0,582750
20,008500	0,5	-0,575550
20,016833	0,5	-0,561850
20,025167	0,5	-0,563200
20,033500	0,5	-0,568100
20,041833	0,5	-0,564000
20,050167	0,5	-0,562750
20,058500	0,5	-0,571100
20,066833	0,5	-0,577800
20,075167	0,5	-0,583900
20,083500	0,5	-0,581450
20,091833	0,5	-0,573700
20,100167	0,5	-0,572800
20,108500	0,5	-0,576950
20,116833	0,5	-0,573950
20,125167	0,5	-0,573650
20,133500	0,5	-0,573900
20,141833	0,5	-0,570750
20,150167	0,5	-0,575700
20,158500	0,5	-0,564500
20,166833	0,5	-0,562750
20,175167	0,5	-0,573950
20,183500	0,5	-0,566100
20,191833	0,5	-0,562750
20,200167	0,5	-0,561450
20,208500	0,5	-0,566800
20,216833	0,5	-0,581550
20,225167	0,5	-0,579650
20,233500	0,5	-0,575750
20,241833	0,5	-0,573500
20,250167	0,5	-0,575050
20,258500	0,5	-0,575300
20,266833	0,5	-0,577200
20,275167	0,5	-0,579200
20,283500	0,5	-0,573500
20,291833	0,5	-0,579750
20,300167	0,5	-0,576750
20,308500	0,5	-0,569900
20,316833	0,5	-0,570550
20,325167	0,5	-0,578800
20,333500	0,5	-0,571800
20,341833	0,5	-0,573400
20,350167	0,5	-0,577400
20,358500	0,5	-0,592700
20,366833	0,5	-0,604600
20,375167	0,5	-0,604000
20,383500	0,5	-0,594600
20,391833	0,5	-0,595800
20,400167	0,5	-0,593700
20,408500	0,5	-0,593550
20,416833	0,5	-0,593550
20,425167	0,5	-0,590850
20,433500	0,5	-0,591300
20,441833	0,5	-0,588450
20,450167	0,5	-0,581550
20,458500	0,5	-0,568450
20,466833	0,5	-0,578250
20,475167	0,5	-0,577750
20,483500	0,5	-0,569250
20,491833	0,5	-0,570200
20,500167	0,5	-0,577700
20,508500	0,5	-0,587600
20,516833	0,5	-0,589300
20,525167	0,5	-0,581900
20,533500	0,5	-0,585650
20,541833	0,5	-0,576950
20,550167	0,5	-0,577300
20,558500	0,5	-0,572700
20,566833	0,5	-0,577900
20,575167	0,5	-0,571750
20,583500	0,5	-0,565650
20,591833	0,5	-0,564150
20,600167	0,5	-0,546800
20,608500	0,5	-0,534800
20,616833	0,5	-0,542600
20,625167	0,5	-0,542700
20,633500	0,5	-0,538450
20,641833	0,5	-0,544450
20,650167	0,5	-0,548900
20,658500	0,5	-0,558100
20,666833	0,5	-0,554000
20,675167	0,5	-0,554300
20,683500	0,5	-0,547250
20,691833	0,5	-0,548150
20,700167	0,5	-0,538100
20,708500	0,5	-0,538650
20,716833	0,5	-0,529600
20,725167	0,5	-0,524300
20,733500	0,5	-0,520300
20,741833	0,5	-0,509550
20,750167	0,5	-0,492250
20,758500	0,5	-0,481650
20,766833	0,5	-0,492750
20,775167	0,5	-0,486850
20,783500	0,5	-0,480200
20,791833	0,5	-0,483650
20,800167	0,5	-0,497100
20,808500	0,5	-0,490200
20,816833	0,5	-0,482150
20,825167	0,5	-0,475150
20,833500	0,5	-0,475900
20,841833	0,5	-0,465100
20,850167	0,5	-0,458800
20,858500	0,5	-0,450450
20,866833	0,5	-0,442300
20,875167	0,5	-0,437250
20,883500	0,5	-0,424900
20,891833	0,5	-0,404600
20,900167	0,5	-0,389450
20,908500	0,5	-0,389100
20,916833	0,5	-0,386650
20,925167	0,5	-0,387100
20,933500	0,5	-0,385800
20,941833	0,5	-0,398650
20,950167	0,5	-0,405000
20,958500	0,5	-0,403400
20,966833	0,5	-0,395000
20,975167	0,5	-0,387750
20,983500	0,5	-0,385500
20,991833	0,5	-0,383000
21,000167	0,5	-0,375000
21,008500	0,5	-0,367950
21,016833	0,5	-0,362450
21,025167	0,5	-0,353600
21,033500	0,5	-0,346450
21,041833	0,5	-0,322150
21,050167	0,5	-0,303850
21,058500	0,5	-0,308950
21,066833	0,5	-0,306350
21,075167	0,5	-0,305750
21,083500	0,5	-0,312300
21,091833	0,5	-0,311400
21,100167	0,5	-0,319250
21,108500	0,5	-0,306900
21,116833	0,5	-0,305500
21,125167	0,5	-0,293200
21,133500	0,5	-0,296350
21,141833	0,5	-0,287950
21,150167	0,5	-0,282250
21,158500	0,5	-0,278650
21,166833	0,5	-0,271900
21,175167	0,5	-0,266750
21,183500	0,5	-0,244300
21,191833	0,5	-0,222950
21,200167	0,5	-0,221800
21,208500	0,5	-0,220800
21,216833	0,5	-0,217100
21,225167	0,5	-0,220550
21,233500	0,5	-0,219050
21,241833	0,5	-0,227250
21,250167	0,5	-0,219950
21,258500	0,5	-0,216600
21,266833	0,5	-0,191600
21,275167	0,5	-0,180800
21,283500	0,5	-0,157400
21,291833	0,5	-0,142400
21,300167	0,5	-0,119850
21,308500	0,5	-0,094050
21,316833	0,5	-0,065550
21,325167	0,5	-0,034050
21,333500	0,5	0,005900
21,341833	0,5	0,028100
21,350167	0,5	0,025700
21,358500	0,5	0,013250
21,366833	0,5	0,001650
21,375167	0,5	-0,003850
21,383500	0,5	-0,019750
21,391833	0,5	-0,021550
21,400167	0,5	-0,016350
21,408500	0,5	0,003500
21,416833	0,5	0,018200
21,425167	0,5	0,041450
21,433500	0,5	0,050700
21,441833	0,5	0,065200
21,450167	0,5	0,067300
21,458500	0,5	0,072350
21,466833	0,5	0,082800
21,475167	0,5	0,100300
21,483500	0,5	0,117350
21,491833	0,5	0,132350
21,500167	0,5	0,132200
21,508500	0,5	0,140850
21,516833	0,5	0,142500
21,525167	0,5	0,142150
21,533500	0,5	0,149900
21,541833	0,5	0,162150
21,550167	0,5	0,177150
21,558500	0,5	0,183300
21,566833	0,5	0,199900
21,575167	0,5	0,214050
21,583500	0,5	0,229600
21,591833	0,5	0,240400
21,600167	0,5	0,253000
21,608500	0,5	0,268650
21,616833	0,5	0,286850
21,625167	0,5	0,323800
21,633500	0,5	0,349550
21,641833	0,5	0,355900
21,650167	0,5	0,365300
21,658500	0,5	0,374950
21,666833	0,5	0,379250
21,675167	0,5	0,380700
21,683500	0,5	0,382600
21,691833	0,5	0,412700
21,700167	0,5	0,425150
21,708500	0,5	0,447150
21,716833	0,5	0,458400
21,725167	0,5	0,481800
21,733500	0,5	0,494300
21,741833	0,5	0,513350
21,750167	0,5	0,526000
21,758500	0,5	0,544450
21,766833	0,5	0,573950
21,775167	0,5	0,604600
21,783500	0,5	0,613050
21,791833	0,5	0,630150
21,800167	0,5	0,654600
21,808500	0,5	0,669400
21,816833	0,5	0,687900
21,825167	0,5	0,698900
21,833500	0,5	0,733000
21,841833	0,5	0,761350
21,850167	0,5	0,792000
21,858500	0,5	0,816850
21,866833	0,5	0,850900
21,875167	0,5	0,876300
21,883500	0,5	0,910900
21,891833	0,5	0,938400
21,900167	0,5	0,953100
21,908500	0,5	0,973750
21,916833	0,5	1,002300
21,925167	0,5	1,021700
21,933500	0,5	1,021200
21,941833	0,5	1,042750
21,950167	0,5	1,049100
21,958500	0,5	1,059400
21,966833	0,5	1,066450
21,975167	0,5	1,078350
21,983500	0,5	1,107850
21,991833	0,5	1,133000
22,000167	0,5	1,153350
22,008500	0,5	1,180050
22,016833	0,5	1,205800
22,025167	0,5	1,232650
22,033500	0,5	1,256300
22,041833	0,5	1,279500
22,050167	0,5	1,306800
22,058500	0,5	1,338150
22,066833	0,5	1,372100
22,075167	0,5	1,399600
22,083500	0,5	1,435100
22,091833	0,5	1,474050
22,100167	0,5	1,509800
22,108500	0,5	1,533400
22,116833	0,5	1,564950
22,125167	0,5	1,585000
22,133500	0,5	1,625150
22,141833	0,5	1,643950
22,150167	0,5	1,675450
22,158500	0,5	1,697700
22,166833	0,5	1,732650
22,175167	0,5	1,766550
22,183500	0,5	1,799750
22,191833	0,5	1,835650
22,200167	0,5	1,867550
22,208500	0,5	1,901450
22,216833	0,5	1,935750
22,225167	0,5	1,977500
22,233500	0,5	2,024150
22,241833	0,5	2,068450
22,250167	0,5	2,106000
22,258500	0,5	2,143500
22,266833	0,5	2,184700
22,275167	0,5	2,242400
22,283500	0,5	2,294350
22,291833	0,5	2,350050
22,300167	0,5	2,396450
22,308500	0,5	2,448500
22,316833	0,5	2,490500
22,325167	0,5	2,532950
22,333500	0,5	2,568800
22,341833	0,5	2,610000
22,350167	0,5	2,649450
22,358500	0,5	2,672700
22,366833	0,5	2,730700
22,375167	0,5	2,795300
22,383500	0,5	2,853700
22,391833	0,5	2,896750
22,400167	0,5	2,949500
22,408500	0,5	2,992700
22,416833	0,5	3,050800
22,425167	0,5	3,113200
22,433500	0,5	3,169050
22,441833	0,5	3,227250
22,450167	0,5	3,291300
22,458500	0,5	3,345400
22,466833	0,5	3,403200
22,475167	0,5	3,458000
22,483500	0,5	3,513550
22,491833	0,5	3,564050
22,500167	0,5	3,588150
22,508500	0,5	3,638150
22,516833	0,5	3,700500
22,525167	0,5	3,763350
22,533500	0,5	3,807150
22,541833	0,5	3,846400
22,550167	0,5	3,877850
22,558500	0,5	3,905700
22,566833	0,5	3,940850
22,575167	0,5	3,972050
22,583500	0,5	3,990950
22,591833	0,5	4,014250
22,600167	0,5	4,032900
22,608500	0,5	4,049300
22,616833	0,5	4,057650
22,625167	0,5	4,055400
22,633500	0,5	4,052100
22,641833	0,5	4,030700
22,650167	0,5	3,979050
22,658500	0,5	3,961950
22,666833	0,5	3,957550
22,675167	0,5	3,920350
22,683500	0,5	3,872050
22,691833	0,5	3,811400
22,700167	0,5	3,743450
22,708500	0,5	3,671350
22,716833	0,5	3,608300
22,725167	0,5	3,518600
22,733500	0,5	3,437550
22,741833	0,5	3,339850
22,750167	0,5	3,246650
22,758500	0,5	3,137850
22,766833	0,5	3,034450
22,775167	0,5	2,910300
22,783500	0,5	2,791750
22,791833	0,5	2,627100
22,800167	0,5	2,497500
22,808500	0,5	2,373800
22,816833	0,5	2,252950
22,825167	0,5	2,103750
22,833500	0,5	1,957600
22,841833	0,5	1,804450
22,850167	0,5	1,667500
22,858500	0,5	1,514700
22,866833	0,5	1,370000
22,875167	0,5	1,232450
22,883500	0,5	1,103700
22,891833	0,5	0,964250
22,900167	0,5	0,839600
22,908500	0,5	0,713350
22,916833	0,5	0,591750
22,925167	0,5	0,471750
22,933500	0,5	0,360400
22,941833	0,5	0,242450
22,950167	0,5	0,142150
22,958500	0,5	0,021950
22,966833	0,5	-0,113700
22,975167	0,5	-0,213350
22,983500	0,5	-0,312850
22,991833	0,5	-0,401700
23,000167	0,5	-0,496650
23,008500	0,5	-0,586850
23,016833	0,5	-0,680000
23,025167	0,5	-0,753800
23,033500	0,5	-0,830100
23,041833	0,5	-0,898350
23,050167	0,5	-0,967300
23,058500	0,5	-1,030700
23,066833	0,5	-1,093100
23,075167	0,5	-1,151600
23,083500	0,5	-1,177750
23,091833	0,5	-1,247900
23,100167	0,5	-1,293050
23,108500	0,5	-1,368650
23,116833	0,5	-1,438550
23,125167	0,5	-1,488400
23,133500	0,5	-1,525250
23,141833	0,5	-1,558050
23,150167	0,5	-1,588600
23,158500	0,5	-1,633500
23,166833	0,5	-1,653100
23,175167	0,5	-1,683350
23,183500	0,5	-1,698350
23,191833	0,5	-1,720350
23,200167	0,5	-1,731650
23,208500	0,5	-1,751550
23,216833	0,5	-1,767850
23,225167	0,5	-1,778750
23,233500	0,5	-1,795450
23,241833	0,5	-1,795500
23,250167	0,5	-1,789400
23,258500	0,5	-1,828500
23,266833	0,5	-1,856100
23,275167	0,5	-1,869250
23,283500	0,5	-1,866000
23,291833	0,5	-1,867700
23,300167	0,5	-1,871000
23,308500	0,5	-1,872050
23,316833	0,5	-1,879350
23,325167	0,5	-1,872450
23,333500	0,5	-1,873900
23,341833	0,5	-1,862250
23,350167	0,5	-1,860350
23,358500	0,5	-1,848950
23,366833	0,5	-1,839100
23,375167	0,5	-1,820300
23,383500	0,5	-1,863750
23,391833	0,5	-1,832750
23,400167	0,5	-1,789050
23,408500	0,5	-1,792850
23,416833	0,5	-1,797950
23,425167	0,5	-1,794950
23,433500	0,5	-1,784950
23,441833	0,5	-1,780550
23,450167	0,5	-1,774050
23,458500	0,5	-1,771900
23,466833	0,5	-1,761400
23,475167	0,5	-1,751300
23,483500	0,5	-1,742850
23,491833	0,5	-1,731550
23,500167	0,5	-1,717950
23,508500	0,5	-1,708600
23,516833	0,5	-1,692000
23,525167	0,5	-1,735250
23,533500	0,5	-1,741050
23,541833	0,5	-1,699150
23,550167	0,5	-1,645600
23,558500	0,5	-1,633450
23,566833	0,5	-1,625550
23,575167	0,5	-1,616650
23,583500	0,5	-1,606950
23,591833	0,5	-1,596700
23,600167	0,5	-1,584950
23,608500	0,5	-1,575650
23,616833	0,5	-1,562850
23,625167	0,5	-1,549450
23,633500	0,5	-1,537800
23,641833	0,5	-1,526550
23,650167	0,5	-1,518300
23,658500	0,5	-1,499850
23,666833	0,5	-1,491350
23,675167	0,5	-1,602500
23,683500	0,5	-1,546400
23,691833	0,5	-1,522900
23,700167	0,5	-1,458050
23,708500	0,5	-1,438150
23,716833	0,5	-1,425250
23,725167	0,5	-1,416300
23,733500	0,5	-1,407750
23,741833	0,5	-1,389000
23,750167	0,5	-1,373050
23,758500	0,5	-1,356900
23,766833	0,5	-1,342350
23,775167	0,5	-1,326650
23,783500	0,5	-1,311200
23,791833	0,5	-1,300350
23,800167	0,5	-1,284750
23,808500	0,5	-1,266600
23,816833	0,5	-1,304200
23,825167	0,5	-1,358050
23,833500	0,5	-1,323250
23,841833	0,5	-1,275000
23,850167	0,5	-1,227150
23,858500	0,5	-1,206500
23,866833	0,5	-1,194400
23,875167	0,5	-1,184550
23,883500	0,5	-1,186300
23,891833	0,5	-1,165150
23,900167	0,5	-1,153600
23,908500	0,5	-1,132300
23,916833	0,5	-1,123500
23,925167	0,5	-1,102250
23,933500	0,5	-1,089850
23,941833	0,5	-1,071250
23,950167	0,5	-1,053900
23,958500	0,5	-1,045050
23,966833	0,5	-1,136850
23,975167	0,5	-1,120000
23,983500	0,5	-1,087200
23,991833	0,5	-1,028300
24,000167	0,5	-0,989750
24,008500	0,5	-0,970200
24,016833	0,5	-0,961750
24,025167	0,5	-0,957950
24,033500	0,5	-0,948550
24,041833	0,5	-0,934400
24,050167	0,5	-0,914000
24,058500	0,5	-0,901000
24,066833	0,5	-0,884100
24,075167	0,5	-0,873450
24,083500	0,5	-0,861800
24,091833	0,5	-0,845000
24,100167	0,5	-0,834800
24,108500	0,5	-0,824850
24,116833	0,5	-0,927950
24,125167	0,5	-0,882400
24,133500	0,5	-0,849900
24,141833	0,5	-0,803550
24,150167	0,5	-0,774150
24,158500	0,5	-0,759550
24,166833	0,5	-0,752900
24,175167	0,5	-0,752900
24,183500	0,5	-0,746500
24,191833	0,5	-0,720400
24,200167	0,5	-0,708750
24,208500	0,5	-0,692150
24,216833	0,5	-0,681500
24,225167	0,5	-0,664800
24,233500	0,5	-0,654750
24,241833	0,5	-0,638800
24,250167	0,5	-0,628250
24,258500	0,5	-0,653850
24,266833	0,5	-0,691850
24,275167	0,5	-0,671100
24,283500	0,5	-0,638700
24,291833	0,5	-0,603950
24,300167	0,5	-0,587100
24,308500	0,5	-0,577050
24,316833	0,5	-0,573450
24,325167	0,5	-0,575000
24,333500	0,5	-0,556700
24,341833	0,5	-0,548850
24,350167	0,5	-0,534150
24,358500	0,5	-0,526150
24,366833	0,5	-0,509900
24,375167	0,5	-0,503850
24,383500	0,5	-0,488500
24,391833	0,5	-0,476750
24,400167	0,5	-0,467450
24,408500	0,5	-0,518000
24,416833	0,5	-0,507700
24,425167	0,5	-0,497100
24,433500	0,5	-0,459500
24,441833	0,5	-0,445400
24,450167	0,5	-0,432300
24,458500	0,5	-0,428700
24,466833	0,5	-0,436850
24,475167	0,5	-0,427350
24,483500	0,5	-0,415150
24,491833	0,5	-0,402950
24,500167	0,5	-0,401300
24,508500	0,5	-0,393950
24,516833	0,5	-0,387350
24,525167	0,5	-0,377300
24,533500	0,5	-0,369800
24,541833	0,5	-0,358550
24,550167	0,5	-0,361050
24,558500	0,5	-0,397250
24,566833	0,5	-0,386850
24,575167	0,5	-0,367550
24,583500	0,5	-0,348150
24,591833	0,5	-0,327600
24,600167	0,5	-0,324850
24,608500	0,5	-0,319800
24,616833	0,5	-0,324400
24,625167	0,5	-0,313050
24,633500	0,5	-0,306450
24,641833	0,5	-0,301550
24,650167	0,5	-0,296150
24,658500	0,5	-0,293500
24,666833	0,5	-0,287700
24,675167	0,5	-0,284300
24,683500	0,5	-0,275650
24,691833	0,5	-0,275000
24,700167	0,5	-0,287650
24,708500	0,5	-0,299300
24,716833	0,5	-0,286750
24,725167	0,5	-0,274400
24,733500	0,5	-0,260450
24,741833	0,5	-0,250500
24,750167	0,5	-0,245550
24,758500	0,5	-0,248750
24,766833	0,5	-0,254150
24,775167	0,5	-0,240250
24,783500	0,5	-0,233750
24,791833	0,5	-0,231750
24,800167	0,5	-0,225550
24,808500	0,5	-0,222400
24,816833	0,5	-0,217900
24,825167	0,5	-0,213000
24,833500	0,5	-0,209400
24,841833	0,5	-0,204850
24,850167	0,5	-0,233000
24,858500	0,5	-0,220100
24,866833	0,5	-0,218800
24,875167	0,5	-0,203100
24,883500	0,5	-0,198750
24,891833	0,5	-0,193450
24,900167	0,5	-0,193750
24,908500	0,5	-0,195600
24,916833	0,5	-0,194700
24,925167	0,5	-0,190900
24,933500	0,5	-0,186100
24,941833	0,5	-0,183350
24,950167	0,5	-0,180200
24,958500	0,5	-0,175450
24,966833	0,5	-0,173600
24,975167	0,5	-0,170050
24,983500	0,5	-0,165400
24,991833	0,5	-0,164150
25,000167	0,5	-0,177200
25,008500	0,5	-0,168350
25,016833	0,5	-0,162150
25,025167	0,5	-0,153500
25,033500	0,5	-0,152900
25,041833	0,5	-0,151500
25,050167	0,5	-0,152150
25,058500	0,5	-0,158300
25,066833	0,5	-0,154600
25,075167	0,5	-0,152250
25,083500	0,5	-0,149550
25,091833	0,5	-0,150250
25,100167	0,5	-0,145350
25,108500	0,5	-0,143500
25,116833	0,5	-0,140100
25,125167	0,5	-0,141450
25,133500	0,5	-0,139150
25,141833	0,5	-0,138850
25,150167	0,5	-0,144750
25,158500	0,5	-0,137550
25,166833	0,5	-0,134350
25,175167	0,5	-0,132150
25,183500	0,5	-0,129600
25,191833	0,5	-0,127350
25,200167	0,5	-0,130150
25,208500	0,5	-0,130800
25,216833	0,5	-0,127450
25,225167	0,5	-0,126900
25,233500	0,5	-0,127950
25,241833	0,5	-0,124950
25,250167	0,5	-0,127450
25,258500	0,5	-0,127900
25,266833	0,5	-0,125600
25,275167	0,5	-0,121700
25,283500	0,5	-0,120200
25,291833	0,5	-0,123150
25,300167	0,5	-0,122250
25,308500	0,5	-0,118350
25,316833	0,5	-0,118200
25,325167	0,5	-0,115150
25,333500	0,5	-0,115550
25,341833	0,5	-0,113950
25,350167	0,5	-0,119050
25,358500	0,5	-0,117200
25,366833	0,5	-0,113250
25,375167	0,5	-0,114300
25,383500	0,5	-0,116200
25,391833	0,5	-0,113050
25,400167	0,5	-0,115100
25,408500	0,5	-0,115250
25,416833	0,5	-0,114250
25,425167	0,5	-0,112200
25,433500	0,5	-0,111850
25,441833	0,5	-0,109500
25,450167	0,5	-0,107800
25,458500	0,5	-0,104750
25,466833	0,5	-0,107750
25,475167	0,5	-0,105450
25,483500	0,5	-0,105700
25,491833	0,5	-0,106500
25,500167	0,5	-0,102600
25,508500	0,5	-0,104550
25,516833	0,5	-0,105750
25,525167	0,5	-0,104350
25,533500	0,5	-0,103950
25,541833	0,5	-0,104400
25,550167	0,5	-0,100100
25,558500	0,5	-0,105750
25,566833	0,5	-0,104950
25,575167	0,5	-0,104700
25,583500	0,5	-0,102800
25,591833	0,5	-0,103700
25,600167	0,5	-0,097900
25,608500	0,5	-0,099800
25,616833	0,5	-0,103400
25,625167	0,5	-0,104150
25,633500	0,5	-0,101700
25,641833	0,5	-0,099350
25,650167	0,5	-0,100200
25,658500	0,5	-0,097500
25,666833	0,5	-0,096200
25,675167	0,5	-0,096400
25,683500	0,5	-0,095050
25,691833	0,5	-0,092850
25,700167	0,5	-0,096150
25,708500	0,5	-0,094750
25,716833	0,5	-0,096750
25,725167	0,5	-0,092900
25,733500	0,5	-0,089800
25,741833	0,5	-0,086150
25,750167	0,5	-0,087050
25,758500	0,5	-0,091600
25,766833	0,5	-0,095700
25,775167	0,5	-0,094350
25,783500	0,5	-0,092300
25,791833	0,5	-0,090050
25,800167	0,5	-0,088500
25,808500	0,5	-0,088050
25,816833	0,5	-0,087600
25,825167	0,5	-0,085000
25,833500	0,5	-0,084350
25,841833	0,5	-0,085950
25,850167	0,5	-0,083550
25,858500	0,5	-0,085900
25,866833	0,5	-0,083200
25,875167	0,5	-0,081650
25,883500	0,5	-0,074700
25,891833	0,5	-0,079600
25,900167	0,5	-0,074550
25,908500	0,5	-0,083350
25,916833	0,5	-0,081500
25,925167	0,5	-0,079450
25,933500	0,5	-0,074400
25,941833	0,5	-0,071150
25,950167	0,5	-0,068450
25,958500	0,5	-0,071200
25,966833	0,5	-0,067950
25,975167	0,5	-0,068150
25,983500	0,5	-0,065300
25,991833	0,5	-0,066150
26,000167	0,5	-0,065900
