File Path	chrom://chromeleon01/ikbm_chromeleon/2022/ICS-5000/ED1/Esteban/20220612_Cell_7_4_eg.seq/977.smp/ED_1.channel/ED_1.chm
Channel	ED_1

Injection Information:
Data Vault	ikbm_chromeleon
Injection	CelS2_00.5h-EGS_2
Injection Number	120
Position	BC4
Comment	
Processing Method	Stop sequence after Cell Death
Instrument Method	ICS5000_PA200_FullNative_Ox_26min_ED1
Type	Unknown
Status	Finished
Injection Date	15.06.2022
Injection Time	00:50:53
Injection Volume (µl)	5,0
Dilution Factor	1,0000
Weight	1,0000

Chromatogram Data Information:
Time Min. (min)	0,000167
Time Max. (min)	26,000167
Data Points	3121
Detector	EDet1
Generating Data System	Chromeleon 7.2.9.11323
Exporting Data System	Chromeleon 7.2.9.0
Operator	Instrument Controller
Signal Quantity	
Signal Unit	nC
Signal Min.	-2,666900
Signal Max.	29,303550
Channel	ED_1
Driver Name	DC-5000
Channel Type	Evaluation
Min. Step (s)	0,5
Max. Step (s)	0,5
Average Step (s)	0,5

Signal Parameter Information:
Signal Info	

Chromatogram Data:
Time (min)	Step (s)	Value (nC)
0,000167	n.a.	0,006100
0,008500	0,5	-0,065700
0,016833	0,5	-0,059450
0,025167	0,5	-0,056700
0,033500	0,5	-0,024450
0,041833	0,5	-0,029350
0,050167	0,5	-0,041750
0,058500	0,5	-0,040450
0,066833	0,5	-0,028850
0,075167	0,5	0,014150
0,083500	0,5	0,010000
0,091833	0,5	0,011950
0,100167	0,5	0,003850
0,108500	0,5	0,009000
0,116833	0,5	-0,000100
0,125167	0,5	0,003500
0,133500	0,5	-0,002650
0,141833	0,5	0,003000
0,150167	0,5	-0,005700
0,158500	0,5	-0,004100
0,166833	0,5	-0,013850
0,175167	0,5	-0,025400
0,183500	0,5	0,003900
0,191833	0,5	-0,016150
0,200167	0,5	-0,031250
0,208500	0,5	-0,026500
0,216833	0,5	-0,024200
0,225167	0,5	0,021500
0,233500	0,5	0,011800
0,241833	0,5	-0,000650
0,250167	0,5	-0,002700
0,258500	0,5	-0,000500
0,266833	0,5	0,001850
0,275167	0,5	-0,005100
0,283500	0,5	-0,001550
0,291833	0,5	-0,017350
0,300167	0,5	0,009300
0,308500	0,5	0,017000
0,316833	0,5	0,003350
0,325167	0,5	-0,035250
0,333500	0,5	-0,017000
0,341833	0,5	-0,044250
0,350167	0,5	-0,046300
0,358500	0,5	-0,042750
0,366833	0,5	-0,027700
0,375167	0,5	0,006200
0,383500	0,5	-0,001500
0,391833	0,5	-0,007000
0,400167	0,5	-0,002600
0,408500	0,5	-0,007700
0,416833	0,5	-0,006800
0,425167	0,5	-0,004150
0,433500	0,5	-0,008250
0,441833	0,5	-0,008700
0,450167	0,5	-0,014750
0,458500	0,5	-0,015500
0,466833	0,5	-0,034350
0,475167	0,5	-0,030500
0,483500	0,5	-0,020950
0,491833	0,5	-0,038100
0,500167	0,5	-0,035000
0,508500	0,5	-0,021000
0,516833	0,5	0,000400
0,525167	0,5	0,029650
0,533500	0,5	0,011850
0,541833	0,5	0,015750
0,550167	0,5	0,007250
0,558500	0,5	0,015200
0,566833	0,5	0,008350
0,575167	0,5	0,007100
0,583500	0,5	0,001350
0,591833	0,5	0,002500
0,600167	0,5	0,009150
0,608500	0,5	-0,001550
0,616833	0,5	-0,004000
0,625167	0,5	0,007950
0,633500	0,5	0,008400
0,641833	0,5	-0,007350
0,650167	0,5	-0,001100
0,658500	0,5	0,003850
0,666833	0,5	0,035350
0,675167	0,5	0,052300
0,683500	0,5	0,059750
0,691833	0,5	0,043450
0,700167	0,5	0,051250
0,708500	0,5	0,044200
0,716833	0,5	0,050650
0,725167	0,5	0,040800
0,733500	0,5	0,033450
0,741833	0,5	0,038450
0,750167	0,5	0,045300
0,758500	0,5	0,041000
0,766833	0,5	0,040050
0,775167	0,5	0,050700
0,783500	0,5	0,038700
0,791833	0,5	0,029500
0,800167	0,5	0,039100
0,808500	0,5	0,058800
0,816833	0,5	0,084750
0,825167	0,5	0,101900
0,833500	0,5	0,086600
0,841833	0,5	0,094250
0,850167	0,5	0,085050
0,858500	0,5	0,087300
0,866833	0,5	0,080500
0,875167	0,5	0,085600
0,883500	0,5	0,077050
0,891833	0,5	0,086950
0,900167	0,5	0,085900
0,908500	0,5	0,088800
0,916833	0,5	0,094600
0,925167	0,5	0,110700
0,933500	0,5	0,083850
0,941833	0,5	0,077900
0,950167	0,5	0,082400
0,958500	0,5	0,106750
0,966833	0,5	0,126500
0,975167	0,5	0,119000
0,983500	0,5	0,116600
0,991833	0,5	0,124500
1,000167	0,5	0,124600
1,008500	0,5	0,122900
1,016833	0,5	0,124100
1,025167	0,5	0,111950
1,033500	0,5	0,119450
1,041833	0,5	0,120450
1,050167	0,5	0,128400
1,058500	0,5	0,108950
1,066833	0,5	0,137850
1,075167	0,5	0,123150
1,083500	0,5	0,110100
1,091833	0,5	0,107500
1,100167	0,5	0,118000
1,108500	0,5	0,149050
1,116833	0,5	0,156000
1,125167	0,5	0,149650
1,133500	0,5	0,151800
1,141833	0,5	0,148900
1,150167	0,5	0,147450
1,158500	0,5	0,148050
1,166833	0,5	0,148800
1,175167	0,5	0,147200
1,183500	0,5	0,146250
1,191833	0,5	0,153650
1,200167	0,5	0,139200
1,208500	0,5	0,130450
1,216833	0,5	0,153750
1,225167	0,5	0,139900
1,233500	0,5	0,134300
1,241833	0,5	0,139350
1,250167	0,5	0,143000
1,258500	0,5	0,183500
1,266833	0,5	0,173200
1,275167	0,5	0,175000
1,283500	0,5	0,172150
1,291833	0,5	0,182050
1,300167	0,5	0,174350
1,308500	0,5	0,178550
1,316833	0,5	0,173300
1,325167	0,5	0,168800
1,333500	0,5	0,169550
1,341833	0,5	0,168700
1,350167	0,5	0,177500
1,358500	0,5	0,163900
1,366833	0,5	0,191300
1,375167	0,5	0,165650
1,383500	0,5	0,160500
1,391833	0,5	0,159750
1,400167	0,5	0,181000
1,408500	0,5	0,207300
1,416833	0,5	0,211300
1,425167	0,5	0,196850
1,433500	0,5	0,207300
1,441833	0,5	0,195850
1,450167	0,5	0,200950
1,458500	0,5	0,191900
1,466833	0,5	0,199100
1,475167	0,5	0,195000
1,483500	0,5	0,198050
1,491833	0,5	0,198700
1,500167	0,5	0,185250
1,508500	0,5	0,187150
1,516833	0,5	0,202650
1,525167	0,5	0,177700
1,533500	0,5	0,178000
1,541833	0,5	0,182150
1,550167	0,5	0,201850
1,558500	0,5	0,230550
1,566833	0,5	0,196450
1,575167	0,5	0,072800
1,583500	0,5	-0,301950
1,591833	0,5	-0,813450
1,600167	0,5	-0,972950
1,608500	0,5	-0,007450
1,616833	0,5	2,923000
1,625167	0,5	8,926150
1,633500	0,5	17,722250
1,641833	0,5	25,909400
1,650167	0,5	29,303550
1,658500	0,5	27,141450
1,666833	0,5	22,036350
1,675167	0,5	16,874100
1,683500	0,5	12,968150
1,691833	0,5	10,386300
1,700167	0,5	8,815000
1,708500	0,5	7,913300
1,716833	0,5	7,530350
1,725167	0,5	7,521750
1,733500	0,5	7,587400
1,741833	0,5	7,355400
1,750167	0,5	6,814200
1,758500	0,5	6,163800
1,766833	0,5	5,602950
1,775167	0,5	5,158750
1,783500	0,5	4,870650
1,791833	0,5	4,792800
1,800167	0,5	5,092750
1,808500	0,5	5,798850
1,816833	0,5	6,739000
1,825167	0,5	7,616450
1,833500	0,5	8,200950
1,841833	0,5	8,381400
1,850167	0,5	8,188750
1,858500	0,5	7,671350
1,866833	0,5	7,038400
1,875167	0,5	6,448100
1,883500	0,5	5,961300
1,891833	0,5	5,593350
1,900167	0,5	5,329350
1,908500	0,5	5,123350
1,916833	0,5	4,909250
1,925167	0,5	4,681950
1,933500	0,5	4,455800
1,941833	0,5	4,265100
1,950167	0,5	4,110550
1,958500	0,5	3,973850
1,966833	0,5	3,794900
1,975167	0,5	3,650400
1,983500	0,5	3,550750
1,991833	0,5	3,520500
2,000167	0,5	3,528250
2,008500	0,5	3,540000
2,016833	0,5	3,524850
2,025167	0,5	3,487600
2,033500	0,5	3,421150
2,041833	0,5	3,372650
2,050167	0,5	3,339850
2,058500	0,5	3,348900
2,066833	0,5	3,411350
2,075167	0,5	3,564250
2,083500	0,5	3,878700
2,091833	0,5	4,429050
2,100167	0,5	5,252050
2,108500	0,5	5,994250
2,116833	0,5	6,286950
2,125167	0,5	6,070400
2,133500	0,5	5,672250
2,141833	0,5	5,414250
2,150167	0,5	5,362550
2,158500	0,5	5,465450
2,166833	0,5	5,747600
2,175167	0,5	6,111950
2,183500	0,5	6,404100
2,191833	0,5	6,393250
2,200167	0,5	6,131050
2,208500	0,5	5,790050
2,216833	0,5	5,555250
2,225167	0,5	5,476500
2,233500	0,5	5,564550
2,241833	0,5	5,881550
2,250167	0,5	6,526550
2,258500	0,5	7,303250
2,266833	0,5	7,930200
2,275167	0,5	8,095850
2,283500	0,5	7,819500
2,291833	0,5	7,383800
2,300167	0,5	6,944250
2,308500	0,5	6,623000
2,316833	0,5	6,395550
2,325167	0,5	6,282950
2,333500	0,5	6,221200
2,341833	0,5	6,215100
2,350167	0,5	6,212400
2,358500	0,5	6,236200
2,366833	0,5	6,276250
2,375167	0,5	6,366050
2,383500	0,5	6,486150
2,391833	0,5	6,618850
2,400167	0,5	6,759600
2,408500	0,5	6,854100
2,416833	0,5	6,958600
2,425167	0,5	7,072950
2,433500	0,5	7,177300
2,441833	0,5	7,257900
2,450167	0,5	7,255400
2,458500	0,5	7,201550
2,466833	0,5	7,153400
2,475167	0,5	7,107150
2,483500	0,5	7,075950
2,491833	0,5	7,038200
2,500167	0,5	7,013050
2,508500	0,5	6,980900
2,516833	0,5	6,968850
2,525167	0,5	6,953900
2,533500	0,5	6,937200
2,541833	0,5	6,911100
2,550167	0,5	6,901650
2,558500	0,5	6,854800
2,566833	0,5	6,837950
2,575167	0,5	6,818550
2,583500	0,5	6,822700
2,591833	0,5	6,823700
2,600167	0,5	6,803400
2,608500	0,5	6,790650
2,616833	0,5	6,795150
2,625167	0,5	6,819650
2,633500	0,5	6,855700
2,641833	0,5	6,891350
2,650167	0,5	6,886400
2,658500	0,5	6,833950
2,666833	0,5	6,726900
2,675167	0,5	6,598800
2,683500	0,5	6,463450
2,691833	0,5	6,370100
2,700167	0,5	6,266100
2,708500	0,5	6,176700
2,716833	0,5	6,100900
2,725167	0,5	6,038100
2,733500	0,5	5,988900
2,741833	0,5	5,935950
2,750167	0,5	5,868150
2,758500	0,5	5,801300
2,766833	0,5	5,728450
2,775167	0,5	5,660950
2,783500	0,5	5,585250
2,791833	0,5	5,514650
2,800167	0,5	5,450900
2,808500	0,5	5,409400
2,816833	0,5	5,379750
2,825167	0,5	5,358650
2,833500	0,5	5,380250
2,841833	0,5	5,462000
2,850167	0,5	5,611250
2,858500	0,5	5,928050
2,866833	0,5	6,522250
2,875167	0,5	7,391250
2,883500	0,5	8,438100
2,891833	0,5	9,350100
2,900167	0,5	9,884650
2,908500	0,5	9,905800
2,916833	0,5	9,515800
2,925167	0,5	8,873950
2,933500	0,5	8,182650
2,941833	0,5	7,560550
2,950167	0,5	7,072200
2,958500	0,5	6,740650
2,966833	0,5	6,573900
2,975167	0,5	6,603400
2,983500	0,5	6,921400
2,991833	0,5	7,658550
3,000167	0,5	8,973900
3,008500	0,5	11,005750
3,016833	0,5	13,670550
3,025167	0,5	16,594250
3,033500	0,5	19,201200
3,041833	0,5	20,990950
3,050167	0,5	21,738300
3,058500	0,5	21,497100
3,066833	0,5	20,381250
3,075167	0,5	18,622100
3,083500	0,5	16,428250
3,091833	0,5	14,115250
3,100167	0,5	11,919250
3,108500	0,5	10,044950
3,116833	0,5	8,543550
3,125167	0,5	7,393950
3,133500	0,5	6,552450
3,141833	0,5	5,920750
3,150167	0,5	5,443200
3,158500	0,5	5,122050
3,166833	0,5	4,960250
3,175167	0,5	4,950750
3,183500	0,5	5,027900
3,191833	0,5	5,085500
3,200167	0,5	5,078200
3,208500	0,5	4,922550
3,216833	0,5	4,632150
3,225167	0,5	4,236700
3,233500	0,5	3,835900
3,241833	0,5	3,459950
3,250167	0,5	3,159550
3,258500	0,5	2,909700
3,266833	0,5	2,719150
3,275167	0,5	2,548250
3,283500	0,5	2,452200
3,291833	0,5	2,336500
3,300167	0,5	2,247600
3,308500	0,5	2,173050
3,316833	0,5	2,118900
3,325167	0,5	2,087000
3,333500	0,5	2,035650
3,341833	0,5	1,979000
3,350167	0,5	1,927650
3,358500	0,5	1,888250
3,366833	0,5	1,844250
3,375167	0,5	1,810150
3,383500	0,5	1,776600
3,391833	0,5	1,751350
3,400167	0,5	1,734050
3,408500	0,5	1,738050
3,416833	0,5	1,742850
3,425167	0,5	1,779300
3,433500	0,5	1,841750
3,441833	0,5	1,881600
3,450167	0,5	1,916400
3,458500	0,5	1,938300
3,466833	0,5	1,929800
3,475167	0,5	1,912950
3,483500	0,5	1,843200
3,491833	0,5	1,756850
3,500167	0,5	1,676700
3,508500	0,5	1,610550
3,516833	0,5	1,553450
3,525167	0,5	1,514400
3,533500	0,5	1,482500
3,541833	0,5	1,448500
3,550167	0,5	1,425300
3,558500	0,5	1,386450
3,566833	0,5	1,357550
3,575167	0,5	1,343550
3,583500	0,5	1,336450
3,591833	0,5	1,314900
3,600167	0,5	1,340300
3,608500	0,5	1,386050
3,616833	0,5	1,486100
3,625167	0,5	1,597700
3,633500	0,5	1,705900
3,641833	0,5	1,786700
3,650167	0,5	1,847450
3,658500	0,5	1,843450
3,666833	0,5	1,798400
3,675167	0,5	1,695350
3,683500	0,5	1,575200
3,691833	0,5	1,454800
3,700167	0,5	1,345900
3,708500	0,5	1,256450
3,716833	0,5	1,180900
3,725167	0,5	1,141950
3,733500	0,5	1,095650
3,741833	0,5	1,054750
3,750167	0,5	1,028100
3,758500	0,5	1,013200
3,766833	0,5	1,015000
3,775167	0,5	1,018050
3,783500	0,5	1,000000
3,791833	0,5	0,997550
3,800167	0,5	0,980650
3,808500	0,5	0,982400
3,816833	0,5	0,969050
3,825167	0,5	0,963400
3,833500	0,5	0,951650
3,841833	0,5	0,943800
3,850167	0,5	0,940900
3,858500	0,5	0,929300
3,866833	0,5	0,924200
3,875167	0,5	0,947200
3,883500	0,5	0,923450
3,891833	0,5	0,915950
3,900167	0,5	0,919550
3,908500	0,5	0,925400
3,916833	0,5	0,952450
3,925167	0,5	0,942100
3,933500	0,5	0,946550
3,941833	0,5	0,937850
3,950167	0,5	0,944600
3,958500	0,5	0,938100
3,966833	0,5	0,935200
3,975167	0,5	0,926250
3,983500	0,5	0,922900
3,991833	0,5	0,911350
4,000167	0,5	0,904550
4,008500	0,5	0,882550
4,016833	0,5	0,879600
4,025167	0,5	0,872850
4,033500	0,5	0,849250
4,041833	0,5	0,823250
4,050167	0,5	0,820450
4,058500	0,5	0,821150
4,066833	0,5	0,830700
4,075167	0,5	0,818850
4,083500	0,5	0,803900
4,091833	0,5	0,805550
4,100167	0,5	0,802000
4,108500	0,5	0,801900
4,116833	0,5	0,791650
4,125167	0,5	0,790850
4,133500	0,5	0,784700
4,141833	0,5	0,788650
4,150167	0,5	0,792650
4,158500	0,5	0,786050
4,166833	0,5	0,788100
4,175167	0,5	0,779350
4,183500	0,5	0,760500
4,191833	0,5	0,754800
4,200167	0,5	0,756500
4,208500	0,5	0,769750
4,216833	0,5	0,780250
4,225167	0,5	0,768150
4,233500	0,5	0,766100
4,241833	0,5	0,770950
4,250167	0,5	0,766100
4,258500	0,5	0,764800
4,266833	0,5	0,766300
4,275167	0,5	0,762450
4,283500	0,5	0,764100
4,291833	0,5	0,762450
4,300167	0,5	0,774250
4,308500	0,5	0,756900
4,316833	0,5	0,776400
4,325167	0,5	0,762700
4,333500	0,5	0,762450
4,341833	0,5	0,765150
4,350167	0,5	0,790950
4,358500	0,5	0,821700
4,366833	0,5	0,836550
4,375167	0,5	0,839200
4,383500	0,5	0,850600
4,391833	0,5	0,850500
4,400167	0,5	0,853600
4,408500	0,5	0,839400
4,416833	0,5	0,827350
4,425167	0,5	0,808300
4,433500	0,5	0,793300
4,441833	0,5	0,779800
4,450167	0,5	0,754600
4,458500	0,5	0,743450
4,466833	0,5	0,749000
4,475167	0,5	0,723650
4,483500	0,5	0,711100
4,491833	0,5	0,705550
4,500167	0,5	0,712150
4,508500	0,5	0,733150
4,516833	0,5	0,731250
4,525167	0,5	0,733250
4,533500	0,5	0,722150
4,541833	0,5	0,728400
4,550167	0,5	0,718350
4,558500	0,5	0,715300
4,566833	0,5	0,707350
4,575167	0,5	0,704900
4,583500	0,5	0,704850
4,591833	0,5	0,700800
4,600167	0,5	0,695750
4,608500	0,5	0,701150
4,616833	0,5	0,699750
4,625167	0,5	0,683800
4,633500	0,5	0,682350
4,641833	0,5	0,685500
4,650167	0,5	0,707800
4,658500	0,5	0,721550
4,666833	0,5	0,728150
4,675167	0,5	0,717200
4,683500	0,5	0,720800
4,691833	0,5	0,713550
4,700167	0,5	0,724350
4,708500	0,5	0,721700
4,716833	0,5	0,731850
4,725167	0,5	0,732750
4,733500	0,5	0,739650
4,741833	0,5	0,746600
4,750167	0,5	0,748000
4,758500	0,5	0,753750
4,766833	0,5	0,747400
4,775167	0,5	0,727600
4,783500	0,5	0,719450
4,791833	0,5	0,716750
4,800167	0,5	0,726450
4,808500	0,5	0,732650
4,816833	0,5	0,721500
4,825167	0,5	0,721800
4,833500	0,5	0,716500
4,841833	0,5	0,715350
4,850167	0,5	0,703750
4,858500	0,5	0,702450
4,866833	0,5	0,694100
4,875167	0,5	0,695600
4,883500	0,5	0,692650
4,891833	0,5	0,691500
4,900167	0,5	0,685850
4,908500	0,5	0,716300
4,916833	0,5	0,694950
4,925167	0,5	0,691550
4,933500	0,5	0,694900
4,941833	0,5	0,705950
4,950167	0,5	0,729600
4,958500	0,5	0,735750
4,966833	0,5	0,741650
4,975167	0,5	0,749000
4,983500	0,5	0,755050
4,991833	0,5	0,761400
5,000167	0,5	0,773650
5,008500	0,5	0,784650
5,016833	0,5	0,806700
5,025167	0,5	0,822400
5,033500	0,5	0,852000
5,041833	0,5	0,863600
5,050167	0,5	0,905750
5,058500	0,5	0,957700
5,066833	0,5	0,994950
5,075167	0,5	1,041050
5,083500	0,5	1,108900
5,091833	0,5	1,184250
5,100167	0,5	1,275900
5,108500	0,5	1,343050
5,116833	0,5	1,418300
5,125167	0,5	1,501600
5,133500	0,5	1,590000
5,141833	0,5	1,673400
5,150167	0,5	1,765200
5,158500	0,5	1,850250
5,166833	0,5	1,923250
5,175167	0,5	1,991600
5,183500	0,5	2,043500
5,191833	0,5	2,065950
5,200167	0,5	2,071900
5,208500	0,5	2,039750
5,216833	0,5	1,969500
5,225167	0,5	1,888650
5,233500	0,5	1,794150
5,241833	0,5	1,707200
5,250167	0,5	1,605700
5,258500	0,5	1,491350
5,266833	0,5	1,385650
5,275167	0,5	1,298200
5,283500	0,5	1,212100
5,291833	0,5	1,150700
5,300167	0,5	1,090100
5,308500	0,5	1,047200
5,316833	0,5	1,016100
5,325167	0,5	0,984300
5,333500	0,5	0,965100
5,341833	0,5	0,939350
5,350167	0,5	0,947200
5,358500	0,5	0,929500
5,366833	0,5	0,920750
5,375167	0,5	0,920050
5,383500	0,5	0,932600
5,391833	0,5	0,956150
5,400167	0,5	0,967600
5,408500	0,5	0,957600
5,416833	0,5	0,962800
5,425167	0,5	0,961600
5,433500	0,5	0,965100
5,441833	0,5	0,962850
5,450167	0,5	0,964650
5,458500	0,5	0,959500
5,466833	0,5	0,967000
5,475167	0,5	0,969800
5,483500	0,5	0,965150
5,491833	0,5	0,964800
5,500167	0,5	0,986250
5,508500	0,5	0,981050
5,516833	0,5	0,984500
5,525167	0,5	0,989100
5,533500	0,5	1,006250
5,541833	0,5	1,031300
5,550167	0,5	1,033450
5,558500	0,5	1,033450
5,566833	0,5	1,022500
5,575167	0,5	1,019950
5,583500	0,5	1,004250
5,591833	0,5	0,994600
5,600167	0,5	0,976750
5,608500	0,5	0,961350
5,616833	0,5	0,942800
5,625167	0,5	0,927400
5,633500	0,5	0,903400
5,641833	0,5	0,904500
5,650167	0,5	0,899350
5,658500	0,5	0,881850
5,666833	0,5	0,877450
5,675167	0,5	0,880500
5,683500	0,5	0,901150
5,691833	0,5	0,914800
5,700167	0,5	0,912650
5,708500	0,5	0,912500
5,716833	0,5	0,911300
5,725167	0,5	0,912750
5,733500	0,5	0,912800
5,741833	0,5	0,914000
5,750167	0,5	0,921200
5,758500	0,5	0,921000
5,766833	0,5	0,932650
5,775167	0,5	0,926750
5,783500	0,5	0,925750
5,791833	0,5	0,948400
5,800167	0,5	0,952450
5,808500	0,5	0,954800
5,816833	0,5	0,968400
5,825167	0,5	0,980700
5,833500	0,5	1,016650
5,841833	0,5	1,035450
5,850167	0,5	1,050400
5,858500	0,5	1,062350
5,866833	0,5	1,088400
5,875167	0,5	1,109000
5,883500	0,5	1,135550
5,891833	0,5	1,167800
5,900167	0,5	1,200350
5,908500	0,5	1,256600
5,916833	0,5	1,327100
5,925167	0,5	1,414650
5,933500	0,5	1,522200
5,941833	0,5	1,686350
5,950167	0,5	1,846600
5,958500	0,5	2,032300
5,966833	0,5	2,250200
5,975167	0,5	2,479600
5,983500	0,5	2,714250
5,991833	0,5	2,907800
6,000167	0,5	3,052950
6,008500	0,5	3,157150
6,016833	0,5	3,189850
6,025167	0,5	3,161500
6,033500	0,5	3,070750
6,041833	0,5	2,937350
6,050167	0,5	2,765450
6,058500	0,5	2,574900
6,066833	0,5	2,382150
6,075167	0,5	2,176600
6,083500	0,5	1,994900
6,091833	0,5	1,851200
6,100167	0,5	1,703650
6,108500	0,5	1,581950
6,116833	0,5	1,495500
6,125167	0,5	1,426850
6,133500	0,5	1,384750
6,141833	0,5	1,324500
6,150167	0,5	1,291200
6,158500	0,5	1,258350
6,166833	0,5	1,239050
6,175167	0,5	1,217150
6,183500	0,5	1,205450
6,191833	0,5	1,192350
6,200167	0,5	1,185050
6,208500	0,5	1,182800
6,216833	0,5	1,174900
6,225167	0,5	1,164400
6,233500	0,5	1,173400
6,241833	0,5	1,184650
6,250167	0,5	1,184550
6,258500	0,5	1,197300
6,266833	0,5	1,211900
6,275167	0,5	1,236350
6,283500	0,5	1,255350
6,291833	0,5	1,264200
6,300167	0,5	1,265700
6,308500	0,5	1,272200
6,316833	0,5	1,267250
6,325167	0,5	1,267450
6,333500	0,5	1,253350
6,341833	0,5	1,249650
6,350167	0,5	1,243600
6,358500	0,5	1,241650
6,366833	0,5	1,226700
6,375167	0,5	1,217550
6,383500	0,5	1,218800
6,391833	0,5	1,215500
6,400167	0,5	1,207550
6,408500	0,5	1,207800
6,416833	0,5	1,211150
6,425167	0,5	1,231750
6,433500	0,5	1,246500
6,441833	0,5	1,244350
6,450167	0,5	1,245700
6,458500	0,5	1,244300
6,466833	0,5	1,248300
6,475167	0,5	1,250350
6,483500	0,5	1,257450
6,491833	0,5	1,251050
6,500167	0,5	1,258850
6,508500	0,5	1,260850
6,516833	0,5	1,267250
6,525167	0,5	1,266300
6,533500	0,5	1,285300
6,541833	0,5	1,282700
6,550167	0,5	1,283700
6,558500	0,5	1,294950
6,566833	0,5	1,311900
6,575167	0,5	1,331850
6,583500	0,5	1,344000
6,591833	0,5	1,350850
6,600167	0,5	1,360500
6,608500	0,5	1,364100
6,616833	0,5	1,369050
6,625167	0,5	1,371100
6,633500	0,5	1,374150
6,641833	0,5	1,374950
6,650167	0,5	1,379950
6,658500	0,5	1,380850
6,666833	0,5	1,371950
6,675167	0,5	1,382900
6,683500	0,5	1,392350
6,691833	0,5	1,385800
6,700167	0,5	1,386300
6,708500	0,5	1,393700
6,716833	0,5	1,412400
6,725167	0,5	1,432850
6,733500	0,5	1,436300
6,741833	0,5	1,444500
6,750167	0,5	1,442550
6,758500	0,5	1,447500
6,766833	0,5	1,444150
6,775167	0,5	1,447350
6,783500	0,5	1,445200
6,791833	0,5	1,447000
6,800167	0,5	1,451700
6,808500	0,5	1,445850
6,816833	0,5	1,442300
6,825167	0,5	1,456850
6,833500	0,5	1,455300
6,841833	0,5	1,447850
6,850167	0,5	1,449800
6,858500	0,5	1,450600
6,866833	0,5	1,469900
6,875167	0,5	1,474050
6,883500	0,5	1,478850
6,891833	0,5	1,473300
6,900167	0,5	1,482050
6,908500	0,5	1,479550
6,916833	0,5	1,486850
6,925167	0,5	1,483250
6,933500	0,5	1,486100
6,941833	0,5	1,484100
6,950167	0,5	1,484250
6,958500	0,5	1,481800
6,966833	0,5	1,476400
6,975167	0,5	1,489600
6,983500	0,5	1,478450
6,991833	0,5	1,469950
7,000167	0,5	1,471850
7,008500	0,5	1,475500
7,016833	0,5	1,499450
7,025167	0,5	1,503550
7,033500	0,5	1,508700
7,041833	0,5	1,526350
7,050167	0,5	1,541800
7,058500	0,5	1,563700
7,066833	0,5	1,581650
7,075167	0,5	1,596650
7,083500	0,5	1,600050
7,091833	0,5	1,595950
7,100167	0,5	1,580150
7,108500	0,5	1,551450
7,116833	0,5	1,518850
7,125167	0,5	1,506450
7,133500	0,5	1,474900
7,141833	0,5	1,454800
7,150167	0,5	1,444900
7,158500	0,5	1,443800
7,166833	0,5	1,453950
7,175167	0,5	1,440850
7,183500	0,5	1,437950
7,191833	0,5	1,427550
7,200167	0,5	1,417550
7,208500	0,5	1,411650
7,216833	0,5	1,401300
7,225167	0,5	1,389100
7,233500	0,5	1,377300
7,241833	0,5	1,365150
7,250167	0,5	1,359500
7,258500	0,5	1,346200
7,266833	0,5	1,341650
7,275167	0,5	1,337700
7,283500	0,5	1,326350
7,291833	0,5	1,318450
7,300167	0,5	1,317100
7,308500	0,5	1,316950
7,316833	0,5	1,321950
7,325167	0,5	1,313400
7,333500	0,5	1,309500
7,341833	0,5	1,304350
7,350167	0,5	1,300450
7,358500	0,5	1,293000
7,366833	0,5	1,289200
7,375167	0,5	1,283700
7,383500	0,5	1,280950
7,391833	0,5	1,280200
7,400167	0,5	1,277850
7,408500	0,5	1,272250
7,416833	0,5	1,271650
7,425167	0,5	1,269750
7,433500	0,5	1,259500
7,441833	0,5	1,259900
7,450167	0,5	1,259700
7,458500	0,5	1,267050
7,466833	0,5	1,274500
7,475167	0,5	1,268150
7,483500	0,5	1,261600
7,491833	0,5	1,257500
7,500167	0,5	1,247750
7,508500	0,5	1,240700
7,516833	0,5	1,237000
7,525167	0,5	1,233300
7,533500	0,5	1,232550
7,541833	0,5	1,232950
7,550167	0,5	1,234550
7,558500	0,5	1,239000
7,566833	0,5	1,240850
7,575167	0,5	1,231200
7,583500	0,5	1,220350
7,591833	0,5	1,209500
7,600167	0,5	1,199850
7,608500	0,5	1,193100
7,616833	0,5	1,184150
7,625167	0,5	1,173550
7,633500	0,5	1,165600
7,641833	0,5	1,155250
7,650167	0,5	1,147050
7,658500	0,5	1,142850
7,666833	0,5	1,134550
7,675167	0,5	1,132200
7,683500	0,5	1,134400
7,691833	0,5	1,140250
7,700167	0,5	1,151950
7,708500	0,5	1,181600
7,716833	0,5	1,224500
7,725167	0,5	1,261800
7,733500	0,5	1,297250
7,741833	0,5	1,321700
7,750167	0,5	1,341100
7,758500	0,5	1,341100
7,766833	0,5	1,316200
7,775167	0,5	1,281200
7,783500	0,5	1,234800
7,791833	0,5	1,197350
7,800167	0,5	1,159850
7,808500	0,5	1,137750
7,816833	0,5	1,115650
7,825167	0,5	1,108500
7,833500	0,5	1,101700
7,841833	0,5	1,096900
7,850167	0,5	1,085300
7,858500	0,5	1,087800
7,866833	0,5	1,081350
7,875167	0,5	1,069700
7,883500	0,5	1,061200
7,891833	0,5	1,054500
7,900167	0,5	1,053750
7,908500	0,5	1,053500
7,916833	0,5	1,051000
7,925167	0,5	1,049900
7,933500	0,5	1,050100
7,941833	0,5	1,046350
7,950167	0,5	1,043650
7,958500	0,5	1,042750
7,966833	0,5	1,045500
7,975167	0,5	1,052650
7,983500	0,5	1,062200
7,991833	0,5	1,070800
8,000167	0,5	1,073100
8,008500	0,5	1,076250
8,016833	0,5	1,062850
8,025167	0,5	1,040500
8,033500	0,5	1,024600
8,041833	0,5	1,018500
8,050167	0,5	1,028800
8,058500	0,5	1,043200
8,066833	0,5	1,069200
8,075167	0,5	1,099450
8,083500	0,5	1,129050
8,091833	0,5	1,143900
8,100167	0,5	1,150850
8,108500	0,5	1,159050
8,116833	0,5	1,180550
8,125167	0,5	1,215800
8,133500	0,5	1,265150
8,141833	0,5	1,329750
8,150167	0,5	1,421900
8,158500	0,5	1,570200
8,166833	0,5	1,815050
8,175167	0,5	2,258150
8,183500	0,5	2,989450
8,191833	0,5	4,009800
8,200167	0,5	5,130750
8,208500	0,5	5,998850
8,216833	0,5	6,287400
8,225167	0,5	5,898200
8,233500	0,5	5,008600
8,241833	0,5	3,940150
8,250167	0,5	2,970500
8,258500	0,5	2,239050
8,266833	0,5	1,756350
8,275167	0,5	1,467700
8,283500	0,5	1,300850
8,291833	0,5	1,206900
8,300167	0,5	1,151200
8,308500	0,5	1,122550
8,316833	0,5	1,093100
8,325167	0,5	1,070650
8,333500	0,5	1,048200
8,341833	0,5	1,035850
8,350167	0,5	1,039050
8,358500	0,5	1,039900
8,366833	0,5	1,039450
8,375167	0,5	1,026700
8,383500	0,5	1,006450
8,391833	0,5	0,982850
8,400167	0,5	0,961000
8,408500	0,5	0,948550
8,416833	0,5	0,941600
8,425167	0,5	0,936050
8,433500	0,5	0,934050
8,441833	0,5	0,930100
8,450167	0,5	0,921600
8,458500	0,5	0,913050
8,466833	0,5	0,899650
8,475167	0,5	0,886650
8,483500	0,5	0,879050
8,491833	0,5	0,875050
8,500167	0,5	0,881600
8,508500	0,5	0,882500
8,516833	0,5	0,882750
8,525167	0,5	0,887150
8,533500	0,5	0,889500
8,541833	0,5	0,891500
8,550167	0,5	0,892800
8,558500	0,5	0,889100
8,566833	0,5	0,891050
8,575167	0,5	0,892700
8,583500	0,5	0,901150
8,591833	0,5	0,916000
8,600167	0,5	0,925200
8,608500	0,5	0,919050
8,616833	0,5	0,903300
8,625167	0,5	0,886100
8,633500	0,5	0,873350
8,641833	0,5	0,871800
8,650167	0,5	0,872800
8,658500	0,5	0,874050
8,666833	0,5	0,877400
8,675167	0,5	0,880000
8,683500	0,5	0,882100
8,691833	0,5	0,879750
8,700167	0,5	0,874650
8,708500	0,5	0,865450
8,716833	0,5	0,852550
8,725167	0,5	0,846450
8,733500	0,5	0,847200
8,741833	0,5	0,855050
8,750167	0,5	0,869100
8,758500	0,5	0,882400
8,766833	0,5	0,894600
8,775167	0,5	0,912700
8,783500	0,5	0,935600
8,791833	0,5	0,957050
8,800167	0,5	0,971800
8,808500	0,5	0,969700
8,816833	0,5	0,956850
8,825167	0,5	0,935650
8,833500	0,5	0,916650
8,841833	0,5	0,902800
8,850167	0,5	0,895300
8,858500	0,5	0,895500
8,866833	0,5	0,907900
8,875167	0,5	0,925150
8,883500	0,5	0,952850
8,891833	0,5	0,987050
8,900167	0,5	1,031550
8,908500	0,5	1,067700
8,916833	0,5	1,107600
8,925167	0,5	1,171600
8,933500	0,5	1,268950
8,941833	0,5	1,451250
8,950167	0,5	1,787350
8,958500	0,5	2,392250
8,966833	0,5	3,323000
8,975167	0,5	4,447850
8,983500	0,5	5,403400
8,991833	0,5	5,802200
9,000167	0,5	5,486500
9,008500	0,5	4,629550
9,016833	0,5	3,579200
9,025167	0,5	2,641500
9,033500	0,5	1,953200
9,041833	0,5	1,519200
9,050167	0,5	1,267150
9,058500	0,5	1,127100
9,066833	0,5	1,052450
9,075167	0,5	1,011650
9,083500	0,5	0,998400
9,091833	0,5	0,989700
9,100167	0,5	0,983450
9,108500	0,5	0,974300
9,116833	0,5	0,964650
9,125167	0,5	0,961050
9,133500	0,5	0,963500
9,141833	0,5	0,971600
9,150167	0,5	0,983400
9,158500	0,5	0,996200
9,166833	0,5	1,002650
9,175167	0,5	1,009250
9,183500	0,5	1,010450
9,191833	0,5	1,011400
9,200167	0,5	1,013100
9,208500	0,5	1,017550
9,216833	0,5	1,022850
9,225167	0,5	1,033000
9,233500	0,5	1,047050
9,241833	0,5	1,057100
9,250167	0,5	1,065150
9,258500	0,5	1,069500
9,266833	0,5	1,071400
9,275167	0,5	1,073750
9,283500	0,5	1,077000
9,291833	0,5	1,086500
9,300167	0,5	1,100350
9,308500	0,5	1,116900
9,316833	0,5	1,124900
9,325167	0,5	1,125100
9,333500	0,5	1,108650
9,341833	0,5	1,083100
9,350167	0,5	1,061350
9,358500	0,5	1,036800
9,366833	0,5	1,017850
9,375167	0,5	1,006300
9,383500	0,5	1,001750
9,391833	0,5	0,997050
9,400167	0,5	0,997950
9,408500	0,5	1,000700
9,416833	0,5	1,004950
9,425167	0,5	1,004900
9,433500	0,5	1,013950
9,441833	0,5	1,018650
9,450167	0,5	1,025900
9,458500	0,5	1,031750
9,466833	0,5	1,042000
9,475167	0,5	1,047500
9,483500	0,5	1,052350
9,491833	0,5	1,066200
9,500167	0,5	1,077500
9,508500	0,5	1,084750
9,516833	0,5	1,097600
9,525167	0,5	1,111850
9,533500	0,5	1,118050
9,541833	0,5	1,118250
9,550167	0,5	1,120850
9,558500	0,5	1,116500
9,566833	0,5	1,117750
9,575167	0,5	1,120400
9,583500	0,5	1,123150
9,591833	0,5	1,134350
9,600167	0,5	1,151650
9,608500	0,5	1,173800
9,616833	0,5	1,202950
9,625167	0,5	1,238050
9,633500	0,5	1,282600
9,641833	0,5	1,326700
9,650167	0,5	1,367050
9,658500	0,5	1,403300
9,666833	0,5	1,430050
9,675167	0,5	1,446800
9,683500	0,5	1,456900
9,691833	0,5	1,456600
9,700167	0,5	1,449250
9,708500	0,5	1,432300
9,716833	0,5	1,415000
9,725167	0,5	1,397550
9,733500	0,5	1,383100
9,741833	0,5	1,371750
9,750167	0,5	1,366100
9,758500	0,5	1,365850
9,766833	0,5	1,368250
9,775167	0,5	1,371850
9,783500	0,5	1,381300
9,791833	0,5	1,391100
9,800167	0,5	1,396800
9,808500	0,5	1,403250
9,816833	0,5	1,411050
9,825167	0,5	1,421650
9,833500	0,5	1,434950
9,841833	0,5	1,448850
9,850167	0,5	1,460150
9,858500	0,5	1,469350
9,866833	0,5	1,475100
9,875167	0,5	1,478500
9,883500	0,5	1,479200
9,891833	0,5	1,480350
9,900167	0,5	1,482800
9,908500	0,5	1,489000
9,916833	0,5	1,492950
9,925167	0,5	1,504950
9,933500	0,5	1,523700
9,941833	0,5	1,541300
9,950167	0,5	1,560250
9,958500	0,5	1,578500
9,966833	0,5	1,597450
9,975167	0,5	1,609800
9,983500	0,5	1,620800
9,991833	0,5	1,628600
10,000167	0,5	1,631000
10,008500	0,5	1,634950
10,016833	0,5	1,639150
10,025167	0,5	1,646600
10,033500	0,5	1,656400
10,041833	0,5	1,670050
10,050167	0,5	1,687900
10,058500	0,5	1,715300
10,066833	0,5	1,744250
10,075167	0,5	1,790150
10,083500	0,5	1,859150
10,091833	0,5	1,943850
10,100167	0,5	2,045550
10,108500	0,5	2,172750
10,116833	0,5	2,309750
10,125167	0,5	2,456400
10,133500	0,5	2,590950
10,141833	0,5	2,708000
10,150167	0,5	2,788100
10,158500	0,5	2,825850
10,166833	0,5	2,811500
10,175167	0,5	2,744850
10,183500	0,5	2,638850
10,191833	0,5	2,504600
10,200167	0,5	2,362700
10,208500	0,5	2,220900
10,216833	0,5	2,100200
10,225167	0,5	1,997500
10,233500	0,5	1,919350
10,241833	0,5	1,858300
10,250167	0,5	1,821450
10,258500	0,5	1,800900
10,266833	0,5	1,787400
10,275167	0,5	1,790600
10,283500	0,5	1,793700
10,291833	0,5	1,796700
10,300167	0,5	1,793700
10,308500	0,5	1,790800
10,316833	0,5	1,781050
10,325167	0,5	1,770750
10,333500	0,5	1,760200
10,341833	0,5	1,750350
10,350167	0,5	1,745800
10,358500	0,5	1,740150
10,366833	0,5	1,737800
10,375167	0,5	1,734700
10,383500	0,5	1,736250
10,391833	0,5	1,732500
10,400167	0,5	1,729850
10,408500	0,5	1,730250
10,416833	0,5	1,733250
10,425167	0,5	1,740400
10,433500	0,5	1,744200
10,441833	0,5	1,749200
10,450167	0,5	1,750050
10,458500	0,5	1,749150
10,466833	0,5	1,746250
10,475167	0,5	1,748000
10,483500	0,5	1,747350
10,491833	0,5	1,751800
10,500167	0,5	1,755850
10,508500	0,5	1,762900
10,516833	0,5	1,761800
10,525167	0,5	1,771550
10,533500	0,5	1,774300
10,541833	0,5	1,785850
10,550167	0,5	1,789600
10,558500	0,5	1,797400
10,566833	0,5	1,803100
10,575167	0,5	1,808150
10,583500	0,5	1,806350
10,591833	0,5	1,800650
10,600167	0,5	1,792050
10,608500	0,5	1,778550
10,616833	0,5	1,766700
10,625167	0,5	1,755200
10,633500	0,5	1,745400
10,641833	0,5	1,732050
10,650167	0,5	1,728700
10,658500	0,5	1,716700
10,666833	0,5	1,709050
10,675167	0,5	1,705300
10,683500	0,5	1,701050
10,691833	0,5	1,696050
10,700167	0,5	1,690350
10,708500	0,5	1,683400
10,716833	0,5	1,679250
10,725167	0,5	1,672300
10,733500	0,5	1,672450
10,741833	0,5	1,663900
10,750167	0,5	1,664800
10,758500	0,5	1,666650
10,766833	0,5	1,670900
10,775167	0,5	1,678150
10,783500	0,5	1,682650
10,791833	0,5	1,685900
10,800167	0,5	1,683600
10,808500	0,5	1,669350
10,816833	0,5	1,655350
10,825167	0,5	1,640600
10,833500	0,5	1,616650
10,841833	0,5	1,597450
10,850167	0,5	1,571600
10,858500	0,5	1,553050
10,866833	0,5	1,536950
10,875167	0,5	1,525250
10,883500	0,5	1,510950
10,891833	0,5	1,502000
10,900167	0,5	1,491900
10,908500	0,5	1,483750
10,916833	0,5	1,479650
10,925167	0,5	1,474000
10,933500	0,5	1,466850
10,941833	0,5	1,462450
10,950167	0,5	1,458000
10,958500	0,5	1,454250
10,966833	0,5	1,463150
10,975167	0,5	1,468850
10,983500	0,5	1,479000
10,991833	0,5	1,485050
11,000167	0,5	1,484500
11,008500	0,5	1,482100
11,016833	0,5	1,473550
11,025167	0,5	1,455400
11,033500	0,5	1,438950
11,041833	0,5	1,413650
11,050167	0,5	1,394450
11,058500	0,5	1,377900
11,066833	0,5	1,363300
11,075167	0,5	1,348300
11,083500	0,5	1,336300
11,091833	0,5	1,329100
11,100167	0,5	1,322400
11,108500	0,5	1,310000
11,116833	0,5	1,310700
11,125167	0,5	1,308550
11,133500	0,5	1,307350
11,141833	0,5	1,307550
11,150167	0,5	1,308400
11,158500	0,5	1,323900
11,166833	0,5	1,337850
11,175167	0,5	1,349400
11,183500	0,5	1,359100
11,191833	0,5	1,360600
11,200167	0,5	1,352500
11,208500	0,5	1,339200
11,216833	0,5	1,318200
11,225167	0,5	1,303350
11,233500	0,5	1,287050
11,241833	0,5	1,276400
11,250167	0,5	1,262900
11,258500	0,5	1,250850
11,266833	0,5	1,245300
11,275167	0,5	1,239700
11,283500	0,5	1,236750
11,291833	0,5	1,233800
11,300167	0,5	1,233250
11,308500	0,5	1,244100
11,316833	0,5	1,255100
11,325167	0,5	1,270450
11,333500	0,5	1,280400
11,341833	0,5	1,298100
11,350167	0,5	1,309000
11,358500	0,5	1,310300
11,366833	0,5	1,308800
11,375167	0,5	1,297000
11,383500	0,5	1,287400
11,391833	0,5	1,267150
11,400167	0,5	1,243650
11,408500	0,5	1,216100
11,416833	0,5	1,194050
11,425167	0,5	1,164150
11,433500	0,5	1,137550
11,441833	0,5	1,112600
11,450167	0,5	1,103300
11,458500	0,5	1,106200
11,466833	0,5	1,117150
11,475167	0,5	1,135800
11,483500	0,5	1,157150
11,491833	0,5	1,181450
11,500167	0,5	1,201400
11,508500	0,5	1,216200
11,516833	0,5	1,220850
11,525167	0,5	1,225100
11,533500	0,5	1,220400
11,541833	0,5	1,212500
11,550167	0,5	1,200750
11,558500	0,5	1,197250
11,566833	0,5	1,190250
11,575167	0,5	1,182150
11,583500	0,5	1,169700
11,591833	0,5	1,162250
11,600167	0,5	1,158100
11,608500	0,5	1,163250
11,616833	0,5	1,162350
11,625167	0,5	1,164150
11,633500	0,5	1,164200
11,641833	0,5	1,168450
11,650167	0,5	1,165500
11,658500	0,5	1,161950
11,666833	0,5	1,155700
11,675167	0,5	1,149250
11,683500	0,5	1,149650
11,691833	0,5	1,136100
11,700167	0,5	1,129000
11,708500	0,5	1,126650
11,716833	0,5	1,123300
11,725167	0,5	1,118250
11,733500	0,5	1,112600
11,741833	0,5	1,109750
11,750167	0,5	1,116400
11,758500	0,5	1,114400
11,766833	0,5	1,119500
11,775167	0,5	1,122050
11,783500	0,5	1,129250
11,791833	0,5	1,128450
11,800167	0,5	1,131450
11,808500	0,5	1,135600
11,816833	0,5	1,138050
11,825167	0,5	1,147250
11,833500	0,5	1,156250
11,841833	0,5	1,158400
11,850167	0,5	1,171400
11,858500	0,5	1,181200
11,866833	0,5	1,191850
11,875167	0,5	1,202300
11,883500	0,5	1,204400
11,891833	0,5	1,212150
11,900167	0,5	1,218050
11,908500	0,5	1,225250
11,916833	0,5	1,227950
11,925167	0,5	1,232700
11,933500	0,5	1,237800
11,941833	0,5	1,241600
11,950167	0,5	1,247450
11,958500	0,5	1,254100
11,966833	0,5	1,261950
11,975167	0,5	1,274450
11,983500	0,5	1,288250
11,991833	0,5	1,294250
12,000167	0,5	1,313350
12,008500	0,5	1,327450
12,016833	0,5	1,346150
12,025167	0,5	1,362100
12,033500	0,5	1,381150
12,041833	0,5	1,414450
12,050167	0,5	1,457650
12,058500	0,5	1,497900
12,066833	0,5	1,545150
12,075167	0,5	1,578050
12,083500	0,5	1,610150
12,091833	0,5	1,623900
12,100167	0,5	1,627150
12,108500	0,5	1,616250
12,116833	0,5	1,593700
12,125167	0,5	1,568750
12,133500	0,5	1,544150
12,141833	0,5	1,515500
12,150167	0,5	1,500850
12,158500	0,5	1,482450
12,166833	0,5	1,469850
12,175167	0,5	1,456150
12,183500	0,5	1,438900
12,191833	0,5	1,436700
12,200167	0,5	1,430850
12,208500	0,5	1,427850
12,216833	0,5	1,427900
12,225167	0,5	1,427350
12,233500	0,5	1,431350
12,241833	0,5	1,435950
12,250167	0,5	1,435200
12,258500	0,5	1,437050
12,266833	0,5	1,433550
12,275167	0,5	1,440700
12,283500	0,5	1,433150
12,291833	0,5	1,427100
12,300167	0,5	1,427300
12,308500	0,5	1,425550
12,316833	0,5	1,417900
12,325167	0,5	1,410300
12,333500	0,5	1,407050
12,341833	0,5	1,412000
12,350167	0,5	1,408700
12,358500	0,5	1,412850
12,366833	0,5	1,413850
12,375167	0,5	1,414450
12,383500	0,5	1,416700
12,391833	0,5	1,418200
12,400167	0,5	1,421700
12,408500	0,5	1,419600
12,416833	0,5	1,419850
12,425167	0,5	1,418550
12,433500	0,5	1,409300
12,441833	0,5	1,406100
12,450167	0,5	1,401000
12,458500	0,5	1,391050
12,466833	0,5	1,383100
12,475167	0,5	1,372200
12,483500	0,5	1,369800
12,491833	0,5	1,368950
12,500167	0,5	1,371500
12,508500	0,5	1,367650
12,516833	0,5	1,371100
12,525167	0,5	1,368700
12,533500	0,5	1,372800
12,541833	0,5	1,372350
12,550167	0,5	1,370200
12,558500	0,5	1,367550
12,566833	0,5	1,370350
12,575167	0,5	1,365350
12,583500	0,5	1,361150
12,591833	0,5	1,365900
12,600167	0,5	1,363850
12,608500	0,5	1,364400
12,616833	0,5	1,356150
12,625167	0,5	1,354200
12,633500	0,5	1,357100
12,641833	0,5	1,361700
12,650167	0,5	1,363100
12,658500	0,5	1,366900
12,666833	0,5	1,367800
12,675167	0,5	1,371850
12,683500	0,5	1,368550
12,691833	0,5	1,370350
12,700167	0,5	1,364350
12,708500	0,5	1,364350
12,716833	0,5	1,365750
12,725167	0,5	1,360200
12,733500	0,5	1,360950
12,741833	0,5	1,369900
12,750167	0,5	1,368650
12,758500	0,5	1,370600
12,766833	0,5	1,364000
12,775167	0,5	1,365150
12,783500	0,5	1,371300
12,791833	0,5	1,373400
12,800167	0,5	1,375250
12,808500	0,5	1,371050
12,816833	0,5	1,373450
12,825167	0,5	1,368650
12,833500	0,5	1,365800
12,841833	0,5	1,359450
12,850167	0,5	1,351900
12,858500	0,5	1,346850
12,866833	0,5	1,345450
12,875167	0,5	1,328900
12,883500	0,5	1,334450
12,891833	0,5	1,332400
12,900167	0,5	1,327950
12,908500	0,5	1,317000
12,916833	0,5	1,306050
12,925167	0,5	1,300550
12,933500	0,5	1,294650
12,941833	0,5	1,286700
12,950167	0,5	1,279700
12,958500	0,5	1,275700
12,966833	0,5	1,274050
12,975167	0,5	1,275150
12,983500	0,5	1,271800
12,991833	0,5	1,268800
13,000167	0,5	1,267400
13,008500	0,5	1,266100
13,016833	0,5	1,268500
13,025167	0,5	1,266650
13,033500	0,5	1,279600
13,041833	0,5	1,284100
13,050167	0,5	1,280050
13,058500	0,5	1,276450
13,066833	0,5	1,264600
13,075167	0,5	1,267900
13,083500	0,5	1,272700
13,091833	0,5	1,276250
13,100167	0,5	1,284300
13,108500	0,5	1,290050
13,116833	0,5	1,293750
13,125167	0,5	1,294700
13,133500	0,5	1,291850
13,141833	0,5	1,287800
13,150167	0,5	1,292500
13,158500	0,5	1,297750
13,166833	0,5	1,305400
13,175167	0,5	1,301650
13,183500	0,5	1,310750
13,191833	0,5	1,302800
13,200167	0,5	1,299450
13,208500	0,5	1,287700
13,216833	0,5	1,285450
13,225167	0,5	1,294950
13,233500	0,5	1,299200
13,241833	0,5	1,297150
13,250167	0,5	1,292300
13,258500	0,5	1,284000
13,266833	0,5	1,280350
13,275167	0,5	1,281400
13,283500	0,5	1,281900
13,291833	0,5	1,282600
13,300167	0,5	1,281400
13,308500	0,5	1,280050
13,316833	0,5	1,261350
13,325167	0,5	1,257100
13,333500	0,5	1,258900
13,341833	0,5	1,259050
13,350167	0,5	1,248450
13,358500	0,5	1,242950
13,366833	0,5	1,231950
13,375167	0,5	1,234750
13,383500	0,5	1,230350
13,391833	0,5	1,236250
13,400167	0,5	1,234200
13,408500	0,5	1,236550
13,416833	0,5	1,234350
13,425167	0,5	1,233250
13,433500	0,5	1,231750
13,441833	0,5	1,230000
13,450167	0,5	1,228650
13,458500	0,5	1,228900
13,466833	0,5	1,218400
13,475167	0,5	1,216200
13,483500	0,5	1,212500
13,491833	0,5	1,202650
13,500167	0,5	1,190800
13,508500	0,5	1,176850
13,516833	0,5	1,174600
13,525167	0,5	1,175150
13,533500	0,5	1,176700
13,541833	0,5	1,171400
13,550167	0,5	1,175900
13,558500	0,5	1,168250
13,566833	0,5	1,171250
13,575167	0,5	1,168700
13,583500	0,5	1,166500
13,591833	0,5	1,163950
13,600167	0,5	1,164750
13,608500	0,5	1,155200
13,616833	0,5	1,149900
13,625167	0,5	1,155850
13,633500	0,5	1,151300
13,641833	0,5	1,149250
13,650167	0,5	1,137550
13,658500	0,5	1,129850
13,666833	0,5	1,126200
13,675167	0,5	1,133250
13,683500	0,5	1,132450
13,691833	0,5	1,135400
13,700167	0,5	1,130650
13,708500	0,5	1,131500
13,716833	0,5	1,133500
13,725167	0,5	1,135350
13,733500	0,5	1,131000
13,741833	0,5	1,135800
13,750167	0,5	1,136500
13,758500	0,5	1,129500
13,766833	0,5	1,137850
13,775167	0,5	1,140350
13,783500	0,5	1,136400
13,791833	0,5	1,134400
13,800167	0,5	1,117800
13,808500	0,5	1,115600
13,816833	0,5	1,119100
13,825167	0,5	1,112600
13,833500	0,5	1,109700
13,841833	0,5	1,104050
13,850167	0,5	1,104350
13,858500	0,5	1,098750
13,866833	0,5	1,106050
13,875167	0,5	1,105700
13,883500	0,5	1,108000
13,891833	0,5	1,108850
13,900167	0,5	1,113450
13,908500	0,5	1,097700
13,916833	0,5	1,111650
13,925167	0,5	1,114150
13,933500	0,5	1,099500
13,941833	0,5	1,072600
13,950167	0,5	1,037550
13,958500	0,5	1,018700
13,966833	0,5	0,998400
13,975167	0,5	0,975650
13,983500	0,5	0,944800
13,991833	0,5	0,916100
14,000167	0,5	0,875400
14,008500	0,5	0,827850
14,016833	0,5	0,720550
14,025167	0,5	0,505150
14,033500	0,5	0,227700
14,041833	0,5	0,005350
14,050167	0,5	-0,154500
14,058500	0,5	-0,251200
14,066833	0,5	-0,296800
14,075167	0,5	-0,327150
14,083500	0,5	-0,357500
14,091833	0,5	-0,379550
14,100167	0,5	-0,404800
14,108500	0,5	-0,415000
14,116833	0,5	-0,426250
14,125167	0,5	-0,436150
14,133500	0,5	-0,452700
14,141833	0,5	-0,460150
14,150167	0,5	-0,464900
14,158500	0,5	-0,469050
14,166833	0,5	-0,467050
14,175167	0,5	-0,471050
14,183500	0,5	-0,467750
14,191833	0,5	-0,459500
14,200167	0,5	-0,464900
14,208500	0,5	-0,459950
14,216833	0,5	-0,446750
14,225167	0,5	-0,445700
14,233500	0,5	-0,441650
14,241833	0,5	-0,444550
14,250167	0,5	-0,438900
14,258500	0,5	-0,423200
14,266833	0,5	-0,409750
14,275167	0,5	-0,400850
14,283500	0,5	-0,383850
14,291833	0,5	-0,368850
14,300167	0,5	-0,355050
14,308500	0,5	-0,341450
14,316833	0,5	-0,330100
14,325167	0,5	-0,323600
14,333500	0,5	-0,321950
14,341833	0,5	-0,314300
14,350167	0,5	-0,317750
14,358500	0,5	-0,309700
14,366833	0,5	-0,296500
14,375167	0,5	-0,293500
14,383500	0,5	-0,295900
14,391833	0,5	-0,290600
14,400167	0,5	-0,287050
14,408500	0,5	-0,272850
14,416833	0,5	-0,270200
14,425167	0,5	-0,258650
14,433500	0,5	-0,252350
14,441833	0,5	-0,242900
14,450167	0,5	-0,238450
14,458500	0,5	-0,230950
14,466833	0,5	-0,223650
14,475167	0,5	-0,213350
14,483500	0,5	-0,196050
14,491833	0,5	-0,185850
14,500167	0,5	-0,174800
14,508500	0,5	-0,154050
14,516833	0,5	-0,141500
14,525167	0,5	-0,132400
14,533500	0,5	-0,124400
14,541833	0,5	-0,119700
14,550167	0,5	-0,095550
14,558500	0,5	-0,080000
14,566833	0,5	-0,053550
14,575167	0,5	-0,031350
14,583500	0,5	-0,007200
14,591833	0,5	0,014500
14,600167	0,5	0,037900
14,608500	0,5	0,056850
14,616833	0,5	0,075300
14,625167	0,5	0,091650
14,633500	0,5	0,114100
14,641833	0,5	0,118300
14,650167	0,5	0,144850
14,658500	0,5	0,169350
14,666833	0,5	0,190850
14,675167	0,5	0,208300
14,683500	0,5	0,215850
14,691833	0,5	0,243500
14,700167	0,5	0,267900
14,708500	0,5	0,301200
14,716833	0,5	0,328850
14,725167	0,5	0,359850
14,733500	0,5	0,388400
14,741833	0,5	0,418150
14,750167	0,5	0,446200
14,758500	0,5	0,474950
14,766833	0,5	0,492850
14,775167	0,5	0,525250
14,783500	0,5	0,546500
14,791833	0,5	0,564100
14,800167	0,5	0,599100
14,808500	0,5	0,629050
14,816833	0,5	0,644150
14,825167	0,5	0,660950
14,833500	0,5	0,662050
14,841833	0,5	0,675800
14,850167	0,5	0,684250
14,858500	0,5	0,682950
14,866833	0,5	0,676000
14,875167	0,5	0,665450
14,883500	0,5	0,660600
14,891833	0,5	0,651650
14,900167	0,5	0,647150
14,908500	0,5	0,642900
14,916833	0,5	0,644450
14,925167	0,5	0,641200
14,933500	0,5	0,643700
14,941833	0,5	0,626200
14,950167	0,5	0,637750
14,958500	0,5	0,631850
14,966833	0,5	0,624150
14,975167	0,5	0,607750
14,983500	0,5	0,588300
14,991833	0,5	0,586950
15,000167	0,5	0,581750
15,008500	0,5	0,574750
15,016833	0,5	0,570400
15,025167	0,5	0,570900
15,033500	0,5	0,566650
15,041833	0,5	0,563100
15,050167	0,5	0,564150
15,058500	0,5	0,558750
15,066833	0,5	0,550850
15,075167	0,5	0,558600
15,083500	0,5	0,545700
15,091833	0,5	0,542200
15,100167	0,5	0,544200
15,108500	0,5	0,544750
15,116833	0,5	0,531300
15,125167	0,5	0,521100
15,133500	0,5	0,509400
15,141833	0,5	0,512500
15,150167	0,5	0,504750
15,158500	0,5	0,502850
15,166833	0,5	0,500850
15,175167	0,5	0,496100
15,183500	0,5	0,486800
15,191833	0,5	0,484250
15,200167	0,5	0,481000
15,208500	0,5	0,473350
15,216833	0,5	0,472750
15,225167	0,5	0,470500
15,233500	0,5	0,453000
15,241833	0,5	0,457100
15,250167	0,5	0,456050
15,258500	0,5	0,450750
15,266833	0,5	0,440300
15,275167	0,5	0,427250
15,283500	0,5	0,419300
15,291833	0,5	0,421050
15,300167	0,5	0,419950
15,308500	0,5	0,411700
15,316833	0,5	0,414850
15,325167	0,5	0,406150
15,333500	0,5	0,410400
15,341833	0,5	0,403600
15,350167	0,5	0,395800
15,358500	0,5	0,394950
15,366833	0,5	0,392300
15,375167	0,5	0,392550
15,383500	0,5	0,380900
15,391833	0,5	0,389850
15,400167	0,5	0,387550
15,408500	0,5	0,382900
15,416833	0,5	0,371250
15,425167	0,5	0,356600
15,433500	0,5	0,349500
15,441833	0,5	0,354100
15,450167	0,5	0,350450
15,458500	0,5	0,352900
15,466833	0,5	0,343900
15,475167	0,5	0,346650
15,483500	0,5	0,343750
15,491833	0,5	0,339750
15,500167	0,5	0,333700
15,508500	0,5	0,333750
15,516833	0,5	0,333850
15,525167	0,5	0,322950
15,533500	0,5	0,314450
15,541833	0,5	0,319400
15,550167	0,5	0,313100
15,558500	0,5	0,303450
15,566833	0,5	0,286650
15,575167	0,5	0,275250
15,583500	0,5	0,278150
15,591833	0,5	0,273050
15,600167	0,5	0,276700
15,608500	0,5	0,271850
15,616833	0,5	0,274900
15,625167	0,5	0,268350
15,633500	0,5	0,267750
15,641833	0,5	0,260250
15,650167	0,5	0,260000
15,658500	0,5	0,261050
15,666833	0,5	0,260100
15,675167	0,5	0,236750
15,683500	0,5	0,237950
15,691833	0,5	0,239600
15,700167	0,5	0,233100
15,708500	0,5	0,222650
15,716833	0,5	0,205200
15,725167	0,5	0,204350
15,733500	0,5	0,198700
15,741833	0,5	0,199500
15,750167	0,5	0,195300
15,758500	0,5	0,197300
15,766833	0,5	0,194900
15,775167	0,5	0,194000
15,783500	0,5	0,189650
15,791833	0,5	0,187600
15,800167	0,5	0,177200
15,808500	0,5	0,189500
15,816833	0,5	0,179900
15,825167	0,5	0,170450
15,833500	0,5	0,172950
15,841833	0,5	0,175900
15,850167	0,5	0,162700
15,858500	0,5	0,154800
15,866833	0,5	0,138200
15,875167	0,5	0,136100
15,883500	0,5	0,137600
15,891833	0,5	0,132850
15,900167	0,5	0,130500
15,908500	0,5	0,126850
15,916833	0,5	0,122550
15,925167	0,5	0,121500
15,933500	0,5	0,124000
15,941833	0,5	0,112650
15,950167	0,5	0,113500
15,958500	0,5	0,112250
15,966833	0,5	0,107050
15,975167	0,5	0,096200
15,983500	0,5	0,106750
15,991833	0,5	0,099300
16,000167	0,5	0,089850
16,008500	0,5	0,073250
16,016833	0,5	0,067300
16,025167	0,5	0,071650
16,033500	0,5	0,067400
16,041833	0,5	0,063200
16,050167	0,5	0,062950
16,058500	0,5	0,061600
16,066833	0,5	0,056200
16,075167	0,5	0,055750
16,083500	0,5	0,049550
16,091833	0,5	0,045950
16,100167	0,5	0,043050
16,108500	0,5	0,047100
16,116833	0,5	0,031950
16,125167	0,5	0,036100
16,133500	0,5	0,034450
16,141833	0,5	0,035650
16,150167	0,5	0,023350
16,158500	0,5	0,008400
16,166833	0,5	-0,000100
16,175167	0,5	0,009700
16,183500	0,5	0,011150
16,191833	0,5	0,001450
16,200167	0,5	0,001150
16,208500	0,5	0,002100
16,216833	0,5	0,000100
16,225167	0,5	-0,003950
16,233500	0,5	-0,006600
16,241833	0,5	-0,011050
16,250167	0,5	-0,000200
16,258500	0,5	-0,001050
16,266833	0,5	-0,018150
16,275167	0,5	-0,014400
16,283500	0,5	-0,020200
16,291833	0,5	-0,031300
16,300167	0,5	-0,043750
16,308500	0,5	-0,067900
16,316833	0,5	-0,067050
16,325167	0,5	-0,073600
16,333500	0,5	-0,073050
16,341833	0,5	-0,077950
16,350167	0,5	-0,077550
16,358500	0,5	-0,086300
16,366833	0,5	-0,080550
16,375167	0,5	-0,089300
16,383500	0,5	-0,090400
16,391833	0,5	-0,092000
16,400167	0,5	-0,089850
16,408500	0,5	-0,099600
16,416833	0,5	-0,104750
16,425167	0,5	-0,102150
16,433500	0,5	-0,112300
16,441833	0,5	-0,114600
16,450167	0,5	-0,135650
16,458500	0,5	-0,148750
16,466833	0,5	-0,153000
16,475167	0,5	-0,148700
16,483500	0,5	-0,156150
16,491833	0,5	-0,154550
16,500167	0,5	-0,158850
16,508500	0,5	-0,159150
16,516833	0,5	-0,165600
16,525167	0,5	-0,164700
16,533500	0,5	-0,172050
16,541833	0,5	-0,168700
16,550167	0,5	-0,172450
16,558500	0,5	-0,182100
16,566833	0,5	-0,181500
16,575167	0,5	-0,178950
16,583500	0,5	-0,188550
16,591833	0,5	-0,196750
16,600167	0,5	-0,214400
16,608500	0,5	-0,222600
16,616833	0,5	-0,218000
16,625167	0,5	-0,221400
16,633500	0,5	-0,222000
16,641833	0,5	-0,230550
16,650167	0,5	-0,228750
16,658500	0,5	-0,234750
16,666833	0,5	-0,230200
16,675167	0,5	-0,238200
16,683500	0,5	-0,235300
16,691833	0,5	-0,236200
16,700167	0,5	-0,235850
16,708500	0,5	-0,253400
16,716833	0,5	-0,247100
16,725167	0,5	-0,244650
16,733500	0,5	-0,253700
16,741833	0,5	-0,267500
16,750167	0,5	-0,281700
16,758500	0,5	-0,284000
16,766833	0,5	-0,287350
16,775167	0,5	-0,289150
16,783500	0,5	-0,294200
16,791833	0,5	-0,294250
16,800167	0,5	-0,298350
16,808500	0,5	-0,295500
16,816833	0,5	-0,304950
16,825167	0,5	-0,305400
16,833500	0,5	-0,313850
16,841833	0,5	-0,304250
16,850167	0,5	-0,323550
16,858500	0,5	-0,328050
16,866833	0,5	-0,322650
16,875167	0,5	-0,322650
16,883500	0,5	-0,334100
16,891833	0,5	-0,350000
16,900167	0,5	-0,359050
16,908500	0,5	-0,356000
16,916833	0,5	-0,359700
16,925167	0,5	-0,355550
16,933500	0,5	-0,364700
16,941833	0,5	-0,365650
16,950167	0,5	-0,369300
16,958500	0,5	-0,373100
16,966833	0,5	-0,369500
16,975167	0,5	-0,374400
16,983500	0,5	-0,371150
16,991833	0,5	-0,372150
17,000167	0,5	-0,389650
17,008500	0,5	-0,386500
17,016833	0,5	-0,381700
17,025167	0,5	-0,386100
17,033500	0,5	-0,392100
17,041833	0,5	-0,417000
17,050167	0,5	-0,418250
17,058500	0,5	-0,414950
17,066833	0,5	-0,414500
17,075167	0,5	-0,421700
17,083500	0,5	-0,418450
17,091833	0,5	-0,422450
17,100167	0,5	-0,419750
17,108500	0,5	-0,419500
17,116833	0,5	-0,429100
17,125167	0,5	-0,430950
17,133500	0,5	-0,441200
17,141833	0,5	-0,434100
17,150167	0,5	-0,451350
17,158500	0,5	-0,437550
17,166833	0,5	-0,440600
17,175167	0,5	-0,440600
17,183500	0,5	-0,454450
17,191833	0,5	-0,471900
17,200167	0,5	-0,476200
17,208500	0,5	-0,468700
17,216833	0,5	-0,475600
17,225167	0,5	-0,477000
17,233500	0,5	-0,484650
17,241833	0,5	-0,484500
17,250167	0,5	-0,487000
17,258500	0,5	-0,485300
17,266833	0,5	-0,489600
17,275167	0,5	-0,491900
17,283500	0,5	-0,482450
17,291833	0,5	-0,479800
17,300167	0,5	-0,482200
17,308500	0,5	-0,469350
17,316833	0,5	-0,469100
17,325167	0,5	-0,478250
17,333500	0,5	-0,491400
17,341833	0,5	-0,506250
17,350167	0,5	-0,501550
17,358500	0,5	-0,510200
17,366833	0,5	-0,514900
17,375167	0,5	-0,518300
17,383500	0,5	-0,515550
17,391833	0,5	-0,520300
17,400167	0,5	-0,520150
17,408500	0,5	-0,525550
17,416833	0,5	-0,527700
17,425167	0,5	-0,525150
17,433500	0,5	-0,519550
17,441833	0,5	-0,534450
17,450167	0,5	-0,537300
17,458500	0,5	-0,529400
17,466833	0,5	-0,534450
17,475167	0,5	-0,540000
17,483500	0,5	-0,565150
17,491833	0,5	-0,571150
17,500167	0,5	-0,574250
17,508500	0,5	-0,567800
17,516833	0,5	-0,570700
17,525167	0,5	-0,568700
17,533500	0,5	-0,575950
17,541833	0,5	-0,569900
17,550167	0,5	-0,573250
17,558500	0,5	-0,571550
17,566833	0,5	-0,577550
17,575167	0,5	-0,569800
17,583500	0,5	-0,576250
17,591833	0,5	-0,580450
17,600167	0,5	-0,575150
17,608500	0,5	-0,574600
17,616833	0,5	-0,583700
17,625167	0,5	-0,595750
17,633500	0,5	-0,607650
17,641833	0,5	-0,612500
17,650167	0,5	-0,605800
17,658500	0,5	-0,607500
17,666833	0,5	-0,605300
17,675167	0,5	-0,607850
17,683500	0,5	-0,604500
17,691833	0,5	-0,607850
17,700167	0,5	-0,603150
17,708500	0,5	-0,610450
17,716833	0,5	-0,605550
17,725167	0,5	-0,600350
17,733500	0,5	-0,609200
17,741833	0,5	-0,612650
17,750167	0,5	-0,601250
17,758500	0,5	-0,602050
17,766833	0,5	-0,604050
17,775167	0,5	-0,625000
17,783500	0,5	-0,625700
17,791833	0,5	-0,614750
17,800167	0,5	-0,622100
17,808500	0,5	-0,620000
17,816833	0,5	-0,621300
17,825167	0,5	-0,616600
17,833500	0,5	-0,618900
17,841833	0,5	-0,611200
17,850167	0,5	-0,612900
17,858500	0,5	-0,610650
17,866833	0,5	-0,605800
17,875167	0,5	-0,592950
17,883500	0,5	-0,614900
17,891833	0,5	-0,597900
17,900167	0,5	-0,594700
17,908500	0,5	-0,590450
17,916833	0,5	-0,596900
17,925167	0,5	-0,611950
17,933500	0,5	-0,595600
17,941833	0,5	-0,588350
17,950167	0,5	-0,581050
17,958500	0,5	-0,579650
17,966833	0,5	-0,574350
17,975167	0,5	-0,579200
17,983500	0,5	-0,574150
17,991833	0,5	-0,577400
18,000167	0,5	-0,578550
18,008500	0,5	-0,582350
18,016833	0,5	-0,571950
18,025167	0,5	-0,573050
18,033500	0,5	-0,579300
18,041833	0,5	-0,571550
18,050167	0,5	-0,569450
18,058500	0,5	-0,573850
18,066833	0,5	-0,575350
18,075167	0,5	-0,594400
18,083500	0,5	-0,583250
18,091833	0,5	-0,589350
18,100167	0,5	-0,580400
18,108500	0,5	-0,582500
18,116833	0,5	-0,579200
18,125167	0,5	-0,575050
18,133500	0,5	-0,571650
18,141833	0,5	-0,567850
18,150167	0,5	-0,569850
18,158500	0,5	-0,567800
18,166833	0,5	-0,564400
18,175167	0,5	-0,565900
18,183500	0,5	-0,570250
18,191833	0,5	-0,555650
18,200167	0,5	-0,558750
18,208500	0,5	-0,563350
18,216833	0,5	-0,578050
18,225167	0,5	-0,588600
18,233500	0,5	-0,585650
18,241833	0,5	-0,581300
18,250167	0,5	-0,583200
18,258500	0,5	-0,579600
18,266833	0,5	-0,582400
18,275167	0,5	-0,583600
18,283500	0,5	-0,590950
18,291833	0,5	-0,590150
18,300167	0,5	-0,588850
18,308500	0,5	-0,584500
18,316833	0,5	-0,580100
18,325167	0,5	-0,592500
18,333500	0,5	-0,591000
18,341833	0,5	-0,589100
18,350167	0,5	-0,589150
18,358500	0,5	-0,611000
18,366833	0,5	-0,622500
18,375167	0,5	-0,641750
18,383500	0,5	-0,631850
18,391833	0,5	-0,639700
18,400167	0,5	-0,637600
18,408500	0,5	-0,645650
18,416833	0,5	-0,645950
18,425167	0,5	-0,648250
18,433500	0,5	-0,649850
18,441833	0,5	-0,654850
18,450167	0,5	-0,659600
18,458500	0,5	-0,654750
18,466833	0,5	-0,664150
18,475167	0,5	-0,678650
18,483500	0,5	-0,670150
18,491833	0,5	-0,674150
18,500167	0,5	-0,685200
18,508500	0,5	-0,696200
18,516833	0,5	-0,716300
18,525167	0,5	-0,719050
18,533500	0,5	-0,726200
18,541833	0,5	-0,724050
18,550167	0,5	-0,733550
18,558500	0,5	-0,729050
18,566833	0,5	-0,740250
18,575167	0,5	-0,742850
18,583500	0,5	-0,750000
18,591833	0,5	-0,751650
18,600167	0,5	-0,751850
18,608500	0,5	-0,753650
18,616833	0,5	-0,768800
18,625167	0,5	-0,767150
18,633500	0,5	-0,763550
18,641833	0,5	-0,770100
18,650167	0,5	-0,777300
18,658500	0,5	-0,802850
18,666833	0,5	-0,814200
18,675167	0,5	-0,813450
18,683500	0,5	-0,813550
18,691833	0,5	-0,823400
18,700167	0,5	-0,819950
18,708500	0,5	-0,824750
18,716833	0,5	-0,824300
18,725167	0,5	-0,831400
18,733500	0,5	-0,831900
18,741833	0,5	-0,840650
18,750167	0,5	-0,838200
18,758500	0,5	-0,840050
18,766833	0,5	-0,864950
18,775167	0,5	-0,856250
18,783500	0,5	-0,855650
18,791833	0,5	-0,864850
18,800167	0,5	-0,872650
18,808500	0,5	-0,896650
18,816833	0,5	-0,897750
18,825167	0,5	-0,895550
18,833500	0,5	-0,903900
18,841833	0,5	-0,908050
18,850167	0,5	-0,913950
18,858500	0,5	-0,912700
18,866833	0,5	-0,917400
18,875167	0,5	-0,914950
18,883500	0,5	-0,919750
18,891833	0,5	-0,920900
18,900167	0,5	-0,916050
18,908500	0,5	-0,916800
18,916833	0,5	-0,934750
18,925167	0,5	-0,918350
18,933500	0,5	-0,924350
18,941833	0,5	-0,929650
18,950167	0,5	-0,942700
18,958500	0,5	-0,957650
18,966833	0,5	-0,951350
18,975167	0,5	-0,957550
18,983500	0,5	-0,954950
18,991833	0,5	-0,961000
19,000167	0,5	-0,959200
19,008500	0,5	-0,965800
19,016833	0,5	-0,964650
19,025167	0,5	-0,970150
19,033500	0,5	-0,970000
19,041833	0,5	-0,974500
19,050167	0,5	-0,964350
19,058500	0,5	-0,980400
19,066833	0,5	-0,988350
19,075167	0,5	-0,990300
19,083500	0,5	-0,993550
19,091833	0,5	-1,015700
19,100167	0,5	-1,043000
19,108500	0,5	-1,052350
19,116833	0,5	-1,053050
19,125167	0,5	-1,064200
19,133500	0,5	-1,072800
19,141833	0,5	-1,085050
19,150167	0,5	-1,092550
19,158500	0,5	-1,099950
19,166833	0,5	-1,108150
19,175167	0,5	-1,114850
19,183500	0,5	-1,125450
19,191833	0,5	-1,125150
19,200167	0,5	-1,134700
19,208500	0,5	-1,153350
19,216833	0,5	-1,153950
19,225167	0,5	-1,159550
19,233500	0,5	-1,169450
19,241833	0,5	-1,184300
19,250167	0,5	-1,212500
19,258500	0,5	-1,221800
19,266833	0,5	-1,223300
19,275167	0,5	-1,225150
19,283500	0,5	-1,228950
19,291833	0,5	-1,236200
19,300167	0,5	-1,238150
19,308500	0,5	-1,241600
19,316833	0,5	-1,246600
19,325167	0,5	-1,257450
19,333500	0,5	-1,258750
19,341833	0,5	-1,255850
19,350167	0,5	-1,254900
19,358500	0,5	-1,262800
19,366833	0,5	-1,251200
19,375167	0,5	-1,254700
19,383500	0,5	-1,256850
19,391833	0,5	-1,274200
19,400167	0,5	-1,283700
19,408500	0,5	-1,282650
19,416833	0,5	-1,278500
19,425167	0,5	-1,285950
19,433500	0,5	-1,285700
19,441833	0,5	-1,292700
19,450167	0,5	-1,298000
19,458500	0,5	-1,301000
19,466833	0,5	-1,307150
19,475167	0,5	-1,316100
19,483500	0,5	-1,319050
19,491833	0,5	-1,320500
19,500167	0,5	-1,341600
19,508500	0,5	-1,340150
19,516833	0,5	-1,339500
19,525167	0,5	-1,346550
19,533500	0,5	-1,354450
19,541833	0,5	-1,372750
19,550167	0,5	-1,384050
19,558500	0,5	-1,380050
19,566833	0,5	-1,386000
19,575167	0,5	-1,388150
19,583500	0,5	-1,390450
19,591833	0,5	-1,390350
19,600167	0,5	-1,394500
19,608500	0,5	-1,394600
19,616833	0,5	-1,403000
19,625167	0,5	-1,411250
19,633500	0,5	-1,402250
19,641833	0,5	-1,404950
19,650167	0,5	-1,419650
19,658500	0,5	-1,417150
19,666833	0,5	-1,411550
19,675167	0,5	-1,425950
19,683500	0,5	-1,436050
19,691833	0,5	-1,457500
19,700167	0,5	-1,457200
19,708500	0,5	-1,467100
19,716833	0,5	-1,466900
19,725167	0,5	-1,473050
19,733500	0,5	-1,473400
19,741833	0,5	-1,478350
19,750167	0,5	-1,477650
19,758500	0,5	-1,480450
19,766833	0,5	-1,483050
19,775167	0,5	-1,482800
19,783500	0,5	-1,474200
19,791833	0,5	-1,487400
19,800167	0,5	-1,496350
19,808500	0,5	-1,493350
19,816833	0,5	-1,499200
19,825167	0,5	-1,510450
19,833500	0,5	-1,532200
19,841833	0,5	-1,534950
19,850167	0,5	-1,543650
19,858500	0,5	-1,543350
19,866833	0,5	-1,551600
19,875167	0,5	-1,548550
19,883500	0,5	-1,557150
19,891833	0,5	-1,558350
19,900167	0,5	-1,563900
19,908500	0,5	-1,561650
19,916833	0,5	-1,568200
19,925167	0,5	-1,568650
19,933500	0,5	-1,559700
19,941833	0,5	-1,579500
19,950167	0,5	-1,573150
19,958500	0,5	-1,575200
19,966833	0,5	-1,578200
19,975167	0,5	-1,594350
19,983500	0,5	-1,617250
19,991833	0,5	-1,621450
20,000167	0,5	-1,616500
20,008500	0,5	-1,627550
20,016833	0,5	-1,626400
20,025167	0,5	-1,630850
20,033500	0,5	-1,628900
20,041833	0,5	-1,631900
20,050167	0,5	-1,632900
20,058500	0,5	-1,638050
20,066833	0,5	-1,636850
20,075167	0,5	-1,628250
20,083500	0,5	-1,627700
20,091833	0,5	-1,646300
20,100167	0,5	-1,639200
20,108500	0,5	-1,648400
20,116833	0,5	-1,654400
20,125167	0,5	-1,668400
20,133500	0,5	-1,692850
20,141833	0,5	-1,685900
20,150167	0,5	-1,692500
20,158500	0,5	-1,692150
20,166833	0,5	-1,701350
20,175167	0,5	-1,699350
20,183500	0,5	-1,709000
20,191833	0,5	-1,711000
20,200167	0,5	-1,715850
20,208500	0,5	-1,721000
20,216833	0,5	-1,718500
20,225167	0,5	-1,713900
20,233500	0,5	-1,726550
20,241833	0,5	-1,732200
20,250167	0,5	-1,724600
20,258500	0,5	-1,730900
20,266833	0,5	-1,739700
20,275167	0,5	-1,753150
20,283500	0,5	-1,763000
20,291833	0,5	-1,766100
20,300167	0,5	-1,756350
20,308500	0,5	-1,761800
20,316833	0,5	-1,752100
20,325167	0,5	-1,754300
20,333500	0,5	-1,746700
20,341833	0,5	-1,751250
20,350167	0,5	-1,742200
20,358500	0,5	-1,745700
20,366833	0,5	-1,724450
20,375167	0,5	-1,722150
20,383500	0,5	-1,729150
20,391833	0,5	-1,723050
20,400167	0,5	-1,718950
20,408500	0,5	-1,722500
20,416833	0,5	-1,737150
20,425167	0,5	-1,753300
20,433500	0,5	-1,761300
20,441833	0,5	-1,752300
20,450167	0,5	-1,753400
20,458500	0,5	-1,753000
20,466833	0,5	-1,751050
20,475167	0,5	-1,747300
20,483500	0,5	-1,745250
20,491833	0,5	-1,741600
20,500167	0,5	-1,740500
20,508500	0,5	-1,730500
20,516833	0,5	-1,716900
20,525167	0,5	-1,714300
20,533500	0,5	-1,725100
20,541833	0,5	-1,719800
20,550167	0,5	-1,723850
20,558500	0,5	-1,722500
20,566833	0,5	-1,740700
20,575167	0,5	-1,746900
20,583500	0,5	-1,743450
20,591833	0,5	-1,735600
20,600167	0,5	-1,726150
20,608500	0,5	-1,723400
20,616833	0,5	-1,712950
20,625167	0,5	-1,714100
20,633500	0,5	-1,697050
20,641833	0,5	-1,697500
20,650167	0,5	-1,692450
20,658500	0,5	-1,671350
20,666833	0,5	-1,653950
20,675167	0,5	-1,664550
20,683500	0,5	-1,664200
20,691833	0,5	-1,666350
20,700167	0,5	-1,673800
20,708500	0,5	-1,686650
20,716833	0,5	-1,714350
20,725167	0,5	-1,714300
20,733500	0,5	-1,717750
20,741833	0,5	-1,720850
20,750167	0,5	-1,724850
20,758500	0,5	-1,727250
20,766833	0,5	-1,729800
20,775167	0,5	-1,731450
20,783500	0,5	-1,733200
20,791833	0,5	-1,730150
20,800167	0,5	-1,734350
20,808500	0,5	-1,707200
20,816833	0,5	-1,697700
20,825167	0,5	-1,711850
20,833500	0,5	-1,715200
20,841833	0,5	-1,715250
20,850167	0,5	-1,731000
20,858500	0,5	-1,745800
20,866833	0,5	-1,757000
20,875167	0,5	-1,748950
20,883500	0,5	-1,745950
20,891833	0,5	-1,751000
20,900167	0,5	-1,752700
20,908500	0,5	-1,752700
20,916833	0,5	-1,745100
20,925167	0,5	-1,740150
20,933500	0,5	-1,736000
20,941833	0,5	-1,737050
20,950167	0,5	-1,724000
20,958500	0,5	-1,698250
20,966833	0,5	-1,692600
20,975167	0,5	-1,698950
20,983500	0,5	-1,694000
20,991833	0,5	-1,698550
21,000167	0,5	-1,705150
21,008500	0,5	-1,725500
21,016833	0,5	-1,721900
21,025167	0,5	-1,716650
21,033500	0,5	-1,710800
21,041833	0,5	-1,708850
21,050167	0,5	-1,699350
21,058500	0,5	-1,696700
21,066833	0,5	-1,688400
21,075167	0,5	-1,684650
21,083500	0,5	-1,683200
21,091833	0,5	-1,674700
21,100167	0,5	-1,644950
21,108500	0,5	-1,631050
21,116833	0,5	-1,633650
21,125167	0,5	-1,627800
21,133500	0,5	-1,637250
21,141833	0,5	-1,634800
21,150167	0,5	-1,653950
21,158500	0,5	-1,662400
21,166833	0,5	-1,654850
21,175167	0,5	-1,646750
21,183500	0,5	-1,641700
21,191833	0,5	-1,637650
21,200167	0,5	-1,634000
21,208500	0,5	-1,624750
21,216833	0,5	-1,616400
21,225167	0,5	-1,612650
21,233500	0,5	-1,607550
21,241833	0,5	-1,599550
21,250167	0,5	-1,567400
21,258500	0,5	-1,550750
21,266833	0,5	-1,553600
21,275167	0,5	-1,552050
21,283500	0,5	-1,551300
21,291833	0,5	-1,558000
21,300167	0,5	-1,559550
21,308500	0,5	-1,571100
21,316833	0,5	-1,561650
21,325167	0,5	-1,557200
21,333500	0,5	-1,546250
21,341833	0,5	-1,541250
21,350167	0,5	-1,530000
21,358500	0,5	-1,516500
21,366833	0,5	-1,507000
21,375167	0,5	-1,496700
21,383500	0,5	-1,489200
21,391833	0,5	-1,451850
21,400167	0,5	-1,427600
21,408500	0,5	-1,417300
21,416833	0,5	-1,412950
21,425167	0,5	-1,405050
21,433500	0,5	-1,416000
21,441833	0,5	-1,418200
21,450167	0,5	-1,426400
21,458500	0,5	-1,420150
21,466833	0,5	-1,409850
21,475167	0,5	-1,394350
21,483500	0,5	-1,382700
21,491833	0,5	-1,370000
21,500167	0,5	-1,356850
21,508500	0,5	-1,349750
21,516833	0,5	-1,335400
21,525167	0,5	-1,323500
21,533500	0,5	-1,305900
21,541833	0,5	-1,273000
21,550167	0,5	-1,249900
21,558500	0,5	-1,246000
21,566833	0,5	-1,236750
21,575167	0,5	-1,235350
21,583500	0,5	-1,222850
21,591833	0,5	-1,231200
21,600167	0,5	-1,208550
21,608500	0,5	-1,189300
21,616833	0,5	-1,154400
21,625167	0,5	-1,131450
21,633500	0,5	-1,100300
21,641833	0,5	-1,063700
21,650167	0,5	-1,026600
21,658500	0,5	-0,998800
21,666833	0,5	-0,989400
21,675167	0,5	-0,987000
21,683500	0,5	-0,977350
21,691833	0,5	-0,968550
21,700167	0,5	-0,973650
21,708500	0,5	-0,971850
21,716833	0,5	-0,963700
21,725167	0,5	-0,960700
21,733500	0,5	-0,961850
21,741833	0,5	-0,965450
21,750167	0,5	-0,947050
21,758500	0,5	-0,926900
21,766833	0,5	-0,911400
21,775167	0,5	-0,895800
21,783500	0,5	-0,877950
21,791833	0,5	-0,855800
21,800167	0,5	-0,834650
21,808500	0,5	-0,811400
21,816833	0,5	-0,787700
21,825167	0,5	-0,763700
21,833500	0,5	-0,714650
21,841833	0,5	-0,686800
21,850167	0,5	-0,669200
21,858500	0,5	-0,648950
21,866833	0,5	-0,627200
21,875167	0,5	-0,614850
21,883500	0,5	-0,598350
21,891833	0,5	-0,580700
21,900167	0,5	-0,547950
21,908500	0,5	-0,523050
21,916833	0,5	-0,499350
21,925167	0,5	-0,479350
21,933500	0,5	-0,459250
21,941833	0,5	-0,437950
21,950167	0,5	-0,417050
21,958500	0,5	-0,390700
21,966833	0,5	-0,373500
21,975167	0,5	-0,337050
21,983500	0,5	-0,302200
21,991833	0,5	-0,292150
22,000167	0,5	-0,259250
22,008500	0,5	-0,233200
22,016833	0,5	-0,214300
22,025167	0,5	-0,189150
22,033500	0,5	-0,183750
22,041833	0,5	-0,141950
22,050167	0,5	-0,107300
22,058500	0,5	-0,069350
22,066833	0,5	-0,037550
22,075167	0,5	0,000150
22,083500	0,5	0,029400
22,091833	0,5	0,063500
22,100167	0,5	0,101350
22,108500	0,5	0,132950
22,116833	0,5	0,173050
22,125167	0,5	0,215200
22,133500	0,5	0,254300
22,141833	0,5	0,284100
22,150167	0,5	0,342400
22,158500	0,5	0,380500
22,166833	0,5	0,421950
22,175167	0,5	0,454350
22,183500	0,5	0,492800
22,191833	0,5	0,545950
22,200167	0,5	0,606500
22,208500	0,5	0,656300
22,216833	0,5	0,714550
22,225167	0,5	0,768050
22,233500	0,5	0,820550
22,241833	0,5	0,878350
22,250167	0,5	0,922500
22,258500	0,5	0,974950
22,266833	0,5	1,020700
22,275167	0,5	1,077950
22,283500	0,5	1,123200
22,291833	0,5	1,187250
22,300167	0,5	1,245900
22,308500	0,5	1,301650
22,316833	0,5	1,346650
22,325167	0,5	1,391750
22,333500	0,5	1,440250
22,341833	0,5	1,498750
22,350167	0,5	1,546750
22,358500	0,5	1,602950
22,366833	0,5	1,651700
22,375167	0,5	1,708150
22,383500	0,5	1,765400
22,391833	0,5	1,823950
22,400167	0,5	1,883500
22,408500	0,5	1,934650
22,416833	0,5	1,990800
22,425167	0,5	2,044950
22,433500	0,5	2,116250
22,441833	0,5	2,189600
22,450167	0,5	2,260450
22,458500	0,5	2,319500
22,466833	0,5	2,381250
22,475167	0,5	2,445250
22,483500	0,5	2,528500
22,491833	0,5	2,603800
22,500167	0,5	2,687350
22,508500	0,5	2,762700
22,516833	0,5	2,842600
22,525167	0,5	2,919950
22,533500	0,5	2,998300
22,541833	0,5	3,080000
22,550167	0,5	3,152650
22,558500	0,5	3,224750
22,566833	0,5	3,287300
22,575167	0,5	3,359950
22,583500	0,5	3,457000
22,591833	0,5	3,538850
22,600167	0,5	3,596750
22,608500	0,5	3,655100
22,616833	0,5	3,691450
22,625167	0,5	3,748400
22,633500	0,5	3,793650
22,641833	0,5	3,849600
22,650167	0,5	3,885650
22,658500	0,5	3,929150
22,666833	0,5	3,961800
22,675167	0,5	3,993850
22,683500	0,5	4,015800
22,691833	0,5	4,025600
22,700167	0,5	4,026600
22,708500	0,5	3,976150
22,716833	0,5	3,975850
22,725167	0,5	3,961450
22,733500	0,5	3,952400
22,741833	0,5	3,912500
22,750167	0,5	3,855200
22,758500	0,5	3,790200
22,766833	0,5	3,712200
22,775167	0,5	3,639350
22,783500	0,5	3,552000
22,791833	0,5	3,440700
22,800167	0,5	3,326350
22,808500	0,5	3,193750
22,816833	0,5	3,065750
22,825167	0,5	2,923550
22,833500	0,5	2,775250
22,841833	0,5	2,621350
22,850167	0,5	2,458300
22,858500	0,5	2,258600
22,866833	0,5	2,096800
22,875167	0,5	1,946400
22,883500	0,5	1,771400
22,891833	0,5	1,587550
22,900167	0,5	1,407200
22,908500	0,5	1,225500
22,916833	0,5	1,047250
22,925167	0,5	0,861950
22,933500	0,5	0,698000
22,941833	0,5	0,527150
22,950167	0,5	0,363150
22,958500	0,5	0,201100
22,966833	0,5	0,043850
22,975167	0,5	-0,114750
22,983500	0,5	-0,271050
22,991833	0,5	-0,420400
23,000167	0,5	-0,553950
23,008500	0,5	-0,706050
23,016833	0,5	-0,851850
23,025167	0,5	-1,018850
23,033500	0,5	-1,158950
23,041833	0,5	-1,283350
23,050167	0,5	-1,399600
23,058500	0,5	-1,494550
23,066833	0,5	-1,611500
23,075167	0,5	-1,705150
23,083500	0,5	-1,800900
23,091833	0,5	-1,872250
23,100167	0,5	-1,955350
23,108500	0,5	-2,020500
23,116833	0,5	-2,094350
23,125167	0,5	-2,158750
23,133500	0,5	-2,221000
23,141833	0,5	-2,278600
23,150167	0,5	-2,331500
23,158500	0,5	-2,367500
23,166833	0,5	-2,437450
23,175167	0,5	-2,515400
23,183500	0,5	-2,554850
23,191833	0,5	-2,589250
23,200167	0,5	-2,605800
23,208500	0,5	-2,622700
23,216833	0,5	-2,640200
23,225167	0,5	-2,660600
23,233500	0,5	-2,661500
23,241833	0,5	-2,666900
23,250167	0,5	-2,661550
23,258500	0,5	-2,661050
23,266833	0,5	-2,652500
23,275167	0,5	-2,655000
23,283500	0,5	-2,647100
23,291833	0,5	-2,630350
23,300167	0,5	-2,655000
23,308500	0,5	-2,613250
23,316833	0,5	-2,620650
23,325167	0,5	-2,645500
23,333500	0,5	-2,640550
23,341833	0,5	-2,630250
23,350167	0,5	-2,611200
23,358500	0,5	-2,586100
23,366833	0,5	-2,574400
23,375167	0,5	-2,546800
23,383500	0,5	-2,524900
23,391833	0,5	-2,495400
23,400167	0,5	-2,469050
23,408500	0,5	-2,434600
23,416833	0,5	-2,406200
23,425167	0,5	-2,375150
23,433500	0,5	-2,348650
23,441833	0,5	-2,353000
23,450167	0,5	-2,325250
23,458500	0,5	-2,275300
23,466833	0,5	-2,247050
23,475167	0,5	-2,250800
23,483500	0,5	-2,236750
23,491833	0,5	-2,217900
23,500167	0,5	-2,199000
23,508500	0,5	-2,182050
23,516833	0,5	-2,168100
23,525167	0,5	-2,147800
23,533500	0,5	-2,125100
23,541833	0,5	-2,107400
23,550167	0,5	-2,086000
23,558500	0,5	-2,067750
23,566833	0,5	-2,045600
23,575167	0,5	-2,023200
23,583500	0,5	-2,008200
23,591833	0,5	-2,073550
23,600167	0,5	-2,043500
23,608500	0,5	-1,973400
23,616833	0,5	-1,945450
23,625167	0,5	-1,938050
23,633500	0,5	-1,931950
23,641833	0,5	-1,920900
23,650167	0,5	-1,911800
23,658500	0,5	-1,902200
23,666833	0,5	-1,891450
23,675167	0,5	-1,882300
23,683500	0,5	-1,870050
23,691833	0,5	-1,864200
23,700167	0,5	-1,854550
23,708500	0,5	-1,847600
23,716833	0,5	-1,840950
23,725167	0,5	-1,839350
23,733500	0,5	-1,894450
23,741833	0,5	-1,950650
23,750167	0,5	-1,919200
23,758500	0,5	-1,863850
23,766833	0,5	-1,834750
23,775167	0,5	-1,832500
23,783500	0,5	-1,835150
23,791833	0,5	-1,841650
23,800167	0,5	-1,834850
23,808500	0,5	-1,827200
23,816833	0,5	-1,815550
23,825167	0,5	-1,807550
23,833500	0,5	-1,793200
23,841833	0,5	-1,784200
23,850167	0,5	-1,772600
23,858500	0,5	-1,761050
23,866833	0,5	-1,751750
23,875167	0,5	-1,746300
23,883500	0,5	-1,881450
23,891833	0,5	-1,841950
23,900167	0,5	-1,830050
23,908500	0,5	-1,762000
23,916833	0,5	-1,745450
23,925167	0,5	-1,738250
23,933500	0,5	-1,745950
23,941833	0,5	-1,758950
23,950167	0,5	-1,749750
23,958500	0,5	-1,733000
23,966833	0,5	-1,732350
23,975167	0,5	-1,721750
23,983500	0,5	-1,720350
23,991833	0,5	-1,707650
24,000167	0,5	-1,697800
24,008500	0,5	-1,683750
24,016833	0,5	-1,674700
24,025167	0,5	-1,687400
24,033500	0,5	-1,793450
24,041833	0,5	-1,745250
24,050167	0,5	-1,710100
24,058500	0,5	-1,650400
24,066833	0,5	-1,629350
24,075167	0,5	-1,616200
24,083500	0,5	-1,612300
24,091833	0,5	-1,622750
24,100167	0,5	-1,601700
24,108500	0,5	-1,590550
24,116833	0,5	-1,569800
24,125167	0,5	-1,559600
24,133500	0,5	-1,537950
24,141833	0,5	-1,529900
24,150167	0,5	-1,507650
24,158500	0,5	-1,498250
24,166833	0,5	-1,488300
24,175167	0,5	-1,562600
24,183500	0,5	-1,590250
24,191833	0,5	-1,556050
24,200167	0,5	-1,508400
24,208500	0,5	-1,467550
24,216833	0,5	-1,455300
24,225167	0,5	-1,447950
24,233500	0,5	-1,452900
24,241833	0,5	-1,452150
24,250167	0,5	-1,436900
24,258500	0,5	-1,412450
24,266833	0,5	-1,396150
24,275167	0,5	-1,378150
24,283500	0,5	-1,358950
24,291833	0,5	-1,335750
24,300167	0,5	-1,321900
24,308500	0,5	-1,297350
24,316833	0,5	-1,288350
24,325167	0,5	-1,361700
24,333500	0,5	-1,344100
24,341833	0,5	-1,310500
24,350167	0,5	-1,271100
24,358500	0,5	-1,236000
24,366833	0,5	-1,228500
24,375167	0,5	-1,220650
24,383500	0,5	-1,224900
24,391833	0,5	-1,225000
24,400167	0,5	-1,207850
24,408500	0,5	-1,196450
24,416833	0,5	-1,182850
24,425167	0,5	-1,174850
24,433500	0,5	-1,155900
24,441833	0,5	-1,143000
24,450167	0,5	-1,124700
24,458500	0,5	-1,117700
24,466833	0,5	-1,117600
24,475167	0,5	-1,170150
24,483500	0,5	-1,137950
24,491833	0,5	-1,112650
24,500167	0,5	-1,071350
24,508500	0,5	-1,051850
24,516833	0,5	-1,039650
24,525167	0,5	-1,036450
24,533500	0,5	-1,035500
24,541833	0,5	-1,022350
24,550167	0,5	-1,006100
24,558500	0,5	-0,996750
24,566833	0,5	-0,981050
24,575167	0,5	-0,965050
24,583500	0,5	-0,955050
24,591833	0,5	-0,940700
24,600167	0,5	-0,932400
24,608500	0,5	-0,920400
24,616833	0,5	-0,950000
24,625167	0,5	-0,953950
24,633500	0,5	-0,948700
24,641833	0,5	-0,921700
24,650167	0,5	-0,901850
24,658500	0,5	-0,888750
24,666833	0,5	-0,886100
24,675167	0,5	-0,886750
24,683500	0,5	-0,882100
24,691833	0,5	-0,867500
24,700167	0,5	-0,861100
24,708500	0,5	-0,851150
24,716833	0,5	-0,840850
24,725167	0,5	-0,824400
24,733500	0,5	-0,813700
24,741833	0,5	-0,801000
24,750167	0,5	-0,787450
24,758500	0,5	-0,781550
24,766833	0,5	-0,810100
24,775167	0,5	-0,795050
24,783500	0,5	-0,787250
24,791833	0,5	-0,760350
24,800167	0,5	-0,745000
24,808500	0,5	-0,736300
24,816833	0,5	-0,731200
24,825167	0,5	-0,741150
24,833500	0,5	-0,732450
24,841833	0,5	-0,725600
24,850167	0,5	-0,719850
24,858500	0,5	-0,714300
24,866833	0,5	-0,708850
24,875167	0,5	-0,697600
24,883500	0,5	-0,691250
24,891833	0,5	-0,682500
24,900167	0,5	-0,677250
24,908500	0,5	-0,676550
24,916833	0,5	-0,696700
24,925167	0,5	-0,676400
24,933500	0,5	-0,669400
24,941833	0,5	-0,651300
24,950167	0,5	-0,642550
24,958500	0,5	-0,636750
24,966833	0,5	-0,634400
24,975167	0,5	-0,633300
24,983500	0,5	-0,625800
24,991833	0,5	-0,614850
25,000167	0,5	-0,610500
25,008500	0,5	-0,602500
25,016833	0,5	-0,595800
25,025167	0,5	-0,588700
25,033500	0,5	-0,583950
25,041833	0,5	-0,575600
25,050167	0,5	-0,572450
25,058500	0,5	-0,574050
25,066833	0,5	-0,578250
25,075167	0,5	-0,569400
25,083500	0,5	-0,561900
25,091833	0,5	-0,555400
25,100167	0,5	-0,551400
25,108500	0,5	-0,546450
25,116833	0,5	-0,551050
25,125167	0,5	-0,552800
25,133500	0,5	-0,545800
25,141833	0,5	-0,541200
25,150167	0,5	-0,535600
25,158500	0,5	-0,530450
25,166833	0,5	-0,521850
25,175167	0,5	-0,517450
25,183500	0,5	-0,510200
25,191833	0,5	-0,505700
25,200167	0,5	-0,498800
25,208500	0,5	-0,500500
25,216833	0,5	-0,492050
25,225167	0,5	-0,488200
25,233500	0,5	-0,481000
25,241833	0,5	-0,475950
25,250167	0,5	-0,473800
25,258500	0,5	-0,473800
25,266833	0,5	-0,476200
25,275167	0,5	-0,472250
25,283500	0,5	-0,473900
25,291833	0,5	-0,470350
25,300167	0,5	-0,467550
25,308500	0,5	-0,465350
25,316833	0,5	-0,463200
25,325167	0,5	-0,460250
25,333500	0,5	-0,456450
25,341833	0,5	-0,452600
25,350167	0,5	-0,450600
25,358500	0,5	-0,446000
25,366833	0,5	-0,444900
25,375167	0,5	-0,441050
25,383500	0,5	-0,435900
25,391833	0,5	-0,432200
25,400167	0,5	-0,429750
25,408500	0,5	-0,427700
25,416833	0,5	-0,424850
25,425167	0,5	-0,420700
25,433500	0,5	-0,419950
25,441833	0,5	-0,418350
25,450167	0,5	-0,416500
25,458500	0,5	-0,415350
25,466833	0,5	-0,413900
25,475167	0,5	-0,410150
25,483500	0,5	-0,411500
25,491833	0,5	-0,408450
25,500167	0,5	-0,407500
25,508500	0,5	-0,404900
25,516833	0,5	-0,403000
25,525167	0,5	-0,401150
25,533500	0,5	-0,403000
25,541833	0,5	-0,400850
25,550167	0,5	-0,403700
25,558500	0,5	-0,397400
25,566833	0,5	-0,394300
25,575167	0,5	-0,392000
25,583500	0,5	-0,389500
25,591833	0,5	-0,385900
25,600167	0,5	-0,387600
25,608500	0,5	-0,383600
25,616833	0,5	-0,381600
25,625167	0,5	-0,379150
25,633500	0,5	-0,375200
25,641833	0,5	-0,371850
25,650167	0,5	-0,369100
25,658500	0,5	-0,368400
25,666833	0,5	-0,362300
25,675167	0,5	-0,366750
25,683500	0,5	-0,367550
25,691833	0,5	-0,366500
25,700167	0,5	-0,366850
25,708500	0,5	-0,361850
25,716833	0,5	-0,361500
25,725167	0,5	-0,363950
25,733500	0,5	-0,361750
25,741833	0,5	-0,364250
25,750167	0,5	-0,360550
25,758500	0,5	-0,359350
25,766833	0,5	-0,358100
25,775167	0,5	-0,357450
25,783500	0,5	-0,355700
25,791833	0,5	-0,351200
25,800167	0,5	-0,345100
25,808500	0,5	-0,346800
25,816833	0,5	-0,336150
25,825167	0,5	-0,343950
25,833500	0,5	-0,340900
25,841833	0,5	-0,342300
25,850167	0,5	-0,338650
25,858500	0,5	-0,328850
25,866833	0,5	-0,330600
25,875167	0,5	-0,328500
25,883500	0,5	-0,328150
25,891833	0,5	-0,325700
25,900167	0,5	-0,327100
25,908500	0,5	-0,323150
25,916833	0,5	-0,322050
25,925167	0,5	-0,321750
25,933500	0,5	-0,317600
25,941833	0,5	-0,315850
25,950167	0,5	-0,314250
25,958500	0,5	-0,311800
25,966833	0,5	-0,306050
25,975167	0,5	-0,311100
25,983500	0,5	-0,310300
25,991833	0,5	-0,304650
26,000167	0,5	-0,298050
