File Path	chrom://chromeleon01/ikbm_chromeleon/2022/ICS-5000/ED1/Esteban/20220612_Cell_7_4_eg.seq/966.smp/ED_1.channel/ED_1.chm
Channel	ED_1

Injection Information:
Data Vault	ikbm_chromeleon
Injection	CelS2_00h-EGS_1
Injection Number	131
Position	BD6
Comment	
Processing Method	Stop sequence after Cell Death
Instrument Method	ICS5000_PA200_FullNative_Ox_26min_ED1
Type	Unknown
Status	Finished
Injection Date	15.06.2022
Injection Time	06:05:41
Injection Volume (µl)	5,0
Dilution Factor	1,0000
Weight	1,0000

Chromatogram Data Information:
Time Min. (min)	0,000333
Time Max. (min)	26,000333
Data Points	3121
Detector	EDet1
Generating Data System	Chromeleon 7.2.9.11323
Exporting Data System	Chromeleon 7.2.9.0
Operator	Instrument Controller
Signal Quantity	
Signal Unit	nC
Signal Min.	-2,961700
Signal Max.	49,437451
Channel	ED_1
Driver Name	DC-5000
Channel Type	Evaluation
Min. Step (s)	0,5
Max. Step (s)	0,5
Average Step (s)	0,5

Signal Parameter Information:
Signal Info	

Chromatogram Data:
Time (min)	Step (s)	Value (nC)
0,000333	n.a.	-0,015500
0,008667	0,5	-0,070000
0,017000	0,5	-0,062150
0,025333	0,5	-0,031900
0,033667	0,5	-0,013200
0,042000	0,5	-0,012400
0,050333	0,5	-0,004750
0,058667	0,5	0,001500
0,067000	0,5	0,005750
0,075333	0,5	-0,005000
0,083667	0,5	-0,000750
0,092000	0,5	-0,016300
0,100333	0,5	-0,004200
0,108667	0,5	-0,008550
0,117000	0,5	-0,005850
0,125333	0,5	-0,029500
0,133667	0,5	0,014300
0,142000	0,5	-0,029050
0,150333	0,5	-0,028650
0,158667	0,5	-0,030350
0,167000	0,5	-0,017450
0,175333	0,5	0,011950
0,183667	0,5	0,002650
0,192000	0,5	-0,004200
0,200333	0,5	-0,000100
0,208667	0,5	-0,006550
0,217000	0,5	-0,007200
0,225333	0,5	-0,010250
0,233667	0,5	-0,011900
0,242000	0,5	-0,013800
0,250333	0,5	-0,020800
0,258667	0,5	-0,017600
0,267000	0,5	-0,034950
0,275333	0,5	-0,033100
0,283667	0,5	-0,021650
0,292000	0,5	-0,043350
0,300333	0,5	-0,038850
0,308667	0,5	-0,005700
0,317000	0,5	-0,003500
0,325333	0,5	0,005700
0,333667	0,5	-0,026450
0,342000	0,5	-0,025600
0,350333	0,5	-0,027550
0,358667	0,5	-0,021350
0,367000	0,5	-0,028150
0,375333	0,5	-0,027850
0,383667	0,5	-0,035400
0,392000	0,5	-0,040950
0,400333	0,5	-0,039400
0,408667	0,5	-0,057300
0,417000	0,5	-0,065850
0,425333	0,5	-0,046150
0,433667	0,5	-0,040800
0,442000	0,5	-0,064950
0,450333	0,5	-0,058450
0,458667	0,5	-0,059250
0,467000	0,5	-0,027250
0,475333	0,5	-0,010650
0,483667	0,5	-0,004800
0,492000	0,5	-0,031950
0,500333	0,5	-0,021400
0,508667	0,5	-0,032400
0,517000	0,5	-0,020250
0,525333	0,5	-0,032650
0,533667	0,5	-0,034850
0,542000	0,5	-0,035150
0,550333	0,5	-0,035900
0,558667	0,5	-0,046650
0,567000	0,5	-0,047200
0,575333	0,5	-0,030800
0,583667	0,5	-0,039600
0,592000	0,5	-0,055150
0,600333	0,5	-0,046250
0,608667	0,5	-0,030800
0,617000	0,5	-0,000600
0,625333	0,5	0,019350
0,633667	0,5	0,005550
0,642000	0,5	0,006800
0,650333	0,5	-0,004650
0,658667	0,5	0,001150
0,667000	0,5	-0,005250
0,675333	0,5	0,001050
0,683667	0,5	-0,006750
0,692000	0,5	0,002100
0,700333	0,5	-0,001900
0,708667	0,5	-0,004350
0,717000	0,5	0,003500
0,725333	0,5	0,028350
0,733667	0,5	0,002800
0,742000	0,5	-0,003100
0,750333	0,5	0,002950
0,758667	0,5	0,024100
0,767000	0,5	0,048650
0,775333	0,5	0,046250
0,783667	0,5	0,044550
0,792000	0,5	0,042600
0,800333	0,5	0,050650
0,808667	0,5	0,051200
0,817000	0,5	0,051450
0,825333	0,5	0,043900
0,833667	0,5	0,050050
0,842000	0,5	0,048400
0,850333	0,5	0,054350
0,858667	0,5	0,036250
0,867000	0,5	0,062550
0,875333	0,5	0,064600
0,883667	0,5	0,052500
0,892000	0,5	0,050600
0,900333	0,5	0,064150
0,908667	0,5	0,091900
0,917000	0,5	0,110500
0,925333	0,5	0,104050
0,933667	0,5	0,107350
0,942000	0,5	0,100450
0,950333	0,5	0,105850
0,958667	0,5	0,105000
0,967000	0,5	0,104650
0,975333	0,5	0,102700
0,983667	0,5	0,102950
0,992000	0,5	0,113900
1,000333	0,5	0,111700
1,008667	0,5	0,103500
1,017000	0,5	0,131250
1,025333	0,5	0,115250
1,033667	0,5	0,105550
1,042000	0,5	0,107900
1,050333	0,5	0,115450
1,058667	0,5	0,157200
1,067000	0,5	0,145300
1,075333	0,5	0,142900
1,083667	0,5	0,133050
1,092000	0,5	0,150250
1,100333	0,5	0,144750
1,108667	0,5	0,150100
1,117000	0,5	0,145500
1,125333	0,5	0,141400
1,133667	0,5	0,144050
1,142000	0,5	0,144500
1,150333	0,5	0,165350
1,158667	0,5	0,145550
1,167000	0,5	0,174600
1,175333	0,5	0,146550
1,183667	0,5	0,143550
1,192000	0,5	0,143600
1,200333	0,5	0,159450
1,208667	0,5	0,187700
1,217000	0,5	0,189900
1,225333	0,5	0,172600
1,233667	0,5	0,187500
1,242000	0,5	0,182350
1,250333	0,5	0,187200
1,258667	0,5	0,175250
1,267000	0,5	0,177850
1,275333	0,5	0,175900
1,283667	0,5	0,182450
1,292000	0,5	0,189000
1,300333	0,5	0,183950
1,308667	0,5	0,176150
1,317000	0,5	0,199100
1,325333	0,5	0,169350
1,333667	0,5	0,175000
1,342000	0,5	0,181000
1,350333	0,5	0,198500
1,358667	0,5	0,228150
1,367000	0,5	0,216200
1,375333	0,5	0,221700
1,383667	0,5	0,212150
1,392000	0,5	0,222450
1,400333	0,5	0,213050
1,408667	0,5	0,215400
1,417000	0,5	0,206250
1,425333	0,5	0,207550
1,433667	0,5	0,209150
1,442000	0,5	0,203200
1,450333	0,5	0,198050
1,458667	0,5	0,221750
1,467000	0,5	0,211600
1,475333	0,5	0,196550
1,483667	0,5	0,196350
1,492000	0,5	0,199250
1,500333	0,5	0,220650
1,508667	0,5	0,230100
1,517000	0,5	0,238150
1,525333	0,5	0,226950
1,533667	0,5	0,229100
1,542000	0,5	0,221200
1,550333	0,5	0,219900
1,558667	0,5	0,203800
1,567000	0,5	0,154000
1,575333	0,5	-0,056750
1,583667	0,5	-0,510400
1,592000	0,5	-0,928600
1,600333	0,5	-0,474300
1,608667	0,5	2,048750
1,617000	0,5	8,534350
1,625333	0,5	20,755500
1,633667	0,5	36,333501
1,642000	0,5	47,784251
1,650333	0,5	49,437451
1,658667	0,5	42,749851
1,667000	0,5	33,261750
1,675333	0,5	24,951050
1,683667	0,5	18,983600
1,692000	0,5	15,056500
1,700333	0,5	12,565300
1,708667	0,5	11,062900
1,717000	0,5	10,251400
1,725333	0,5	9,806500
1,733667	0,5	9,322250
1,742000	0,5	8,654750
1,750333	0,5	7,909400
1,758667	0,5	7,265800
1,767000	0,5	6,692950
1,775333	0,5	6,263450
1,783667	0,5	6,055300
1,792000	0,5	6,193950
1,800333	0,5	6,756750
1,808667	0,5	7,620650
1,817000	0,5	8,519000
1,825333	0,5	9,195050
1,833667	0,5	9,467950
1,842000	0,5	9,328750
1,850333	0,5	8,841800
1,858667	0,5	8,221000
1,867000	0,5	7,620100
1,875333	0,5	7,138050
1,883667	0,5	6,798550
1,892000	0,5	6,543700
1,900333	0,5	6,368700
1,908667	0,5	6,142600
1,917000	0,5	5,839500
1,925333	0,5	5,548000
1,933667	0,5	5,310250
1,942000	0,5	5,110200
1,950333	0,5	4,927300
1,958667	0,5	4,723100
1,967000	0,5	4,573050
1,975333	0,5	4,450800
1,983667	0,5	4,392750
1,992000	0,5	4,358950
2,000333	0,5	4,354850
2,008667	0,5	4,319200
2,017000	0,5	4,269250
2,025333	0,5	4,216450
2,033667	0,5	4,165750
2,042000	0,5	4,132700
2,050333	0,5	4,172250
2,058667	0,5	4,210450
2,067000	0,5	4,321550
2,075333	0,5	4,511850
2,083667	0,5	4,764400
2,092000	0,5	4,987150
2,100333	0,5	5,055750
2,108667	0,5	5,055100
2,117000	0,5	5,091750
2,125333	0,5	5,250850
2,133667	0,5	5,466950
2,142000	0,5	5,771250
2,150333	0,5	6,177050
2,158667	0,5	6,643600
2,167000	0,5	6,928950
2,175333	0,5	6,861550
2,183667	0,5	6,523600
2,192000	0,5	6,130500
2,200333	0,5	5,874500
2,208667	0,5	5,727850
2,217000	0,5	5,730050
2,225333	0,5	5,871800
2,233667	0,5	6,113800
2,242000	0,5	6,375550
2,250333	0,5	6,501750
2,258667	0,5	6,462950
2,267000	0,5	6,360650
2,275333	0,5	6,250000
2,283667	0,5	6,189400
2,292000	0,5	6,159800
2,300333	0,5	6,173300
2,308667	0,5	6,206650
2,317000	0,5	6,274550
2,325333	0,5	6,342750
2,333667	0,5	6,416300
2,342000	0,5	6,509250
2,350333	0,5	6,657100
2,358667	0,5	6,772200
2,367000	0,5	6,894850
2,375333	0,5	6,981800
2,383667	0,5	7,084450
2,392000	0,5	7,204400
2,400333	0,5	7,308450
2,408667	0,5	7,373500
2,417000	0,5	7,382050
2,425333	0,5	7,358150
2,433667	0,5	7,319950
2,442000	0,5	7,283850
2,450333	0,5	7,254750
2,458667	0,5	7,244200
2,467000	0,5	7,241450
2,475333	0,5	7,238250
2,483667	0,5	7,237700
2,492000	0,5	7,265500
2,500333	0,5	7,271750
2,508667	0,5	7,262800
2,517000	0,5	7,260700
2,525333	0,5	7,269000
2,533667	0,5	7,289050
2,542000	0,5	7,306850
2,550333	0,5	7,303150
2,558667	0,5	7,312450
2,567000	0,5	7,334550
2,575333	0,5	7,389000
2,583667	0,5	7,442250
2,592000	0,5	7,469850
2,600333	0,5	7,449650
2,608667	0,5	7,376950
2,617000	0,5	7,269500
2,625333	0,5	7,136100
2,633667	0,5	7,026600
2,642000	0,5	6,959900
2,650333	0,5	6,880450
2,658667	0,5	6,809050
2,667000	0,5	6,766250
2,675333	0,5	6,719950
2,683667	0,5	6,696550
2,692000	0,5	6,641050
2,700333	0,5	6,597000
2,708667	0,5	6,531100
2,717000	0,5	6,477550
2,725333	0,5	6,411350
2,733667	0,5	6,356000
2,742000	0,5	6,294900
2,750333	0,5	6,239650
2,758667	0,5	6,194550
2,767000	0,5	6,159550
2,775333	0,5	6,142500
2,783667	0,5	6,157500
2,792000	0,5	6,244200
2,800333	0,5	6,374250
2,808667	0,5	6,685350
2,817000	0,5	7,240150
2,825333	0,5	8,039100
2,833667	0,5	8,940800
2,842000	0,5	9,668550
2,850333	0,5	10,011700
2,858667	0,5	9,925750
2,867000	0,5	9,484000
2,875333	0,5	8,879500
2,883667	0,5	8,246600
2,892000	0,5	7,702950
2,900333	0,5	7,278950
2,908667	0,5	7,028650
2,917000	0,5	6,943150
2,925333	0,5	7,034700
2,933667	0,5	7,298550
2,942000	0,5	7,688800
2,950333	0,5	8,114950
2,958667	0,5	8,652050
2,967000	0,5	9,418750
2,975333	0,5	10,579300
2,983667	0,5	12,151650
2,992000	0,5	13,812350
3,000333	0,5	15,097850
3,008667	0,5	15,518050
3,017000	0,5	14,948500
3,025333	0,5	13,607150
3,033667	0,5	11,932400
3,042000	0,5	10,253700
3,050333	0,5	8,824050
3,058667	0,5	7,680600
3,067000	0,5	6,830550
3,075333	0,5	6,225000
3,083667	0,5	5,876200
3,092000	0,5	5,702200
3,100333	0,5	5,684450
3,108667	0,5	5,738400
3,117000	0,5	5,780650
3,125333	0,5	5,712450
3,133667	0,5	5,476200
3,142000	0,5	5,107450
3,150333	0,5	4,692900
3,158667	0,5	4,302450
3,167000	0,5	3,964900
3,175333	0,5	3,695750
3,183667	0,5	3,483400
3,192000	0,5	3,320600
3,200333	0,5	3,186300
3,208667	0,5	3,081750
3,217000	0,5	2,980300
3,225333	0,5	2,898900
3,233667	0,5	2,839850
3,242000	0,5	2,765350
3,250333	0,5	2,692800
3,258667	0,5	2,644700
3,267000	0,5	2,605150
3,275333	0,5	2,596950
3,283667	0,5	2,587650
3,292000	0,5	2,601650
3,300333	0,5	2,619150
3,308667	0,5	2,658100
3,317000	0,5	2,687750
3,325333	0,5	2,700250
3,333667	0,5	2,677050
3,342000	0,5	2,609700
3,350333	0,5	2,525950
3,358667	0,5	2,413650
3,367000	0,5	2,309500
3,375333	0,5	2,215550
3,383667	0,5	2,146150
3,392000	0,5	2,061400
3,400333	0,5	2,009650
3,408667	0,5	1,971150
3,417000	0,5	1,968050
3,425333	0,5	1,966600
3,433667	0,5	1,968900
3,442000	0,5	1,955550
3,450333	0,5	1,957950
3,458667	0,5	1,949250
3,467000	0,5	1,950600
3,475333	0,5	1,934800
3,483667	0,5	1,926350
3,492000	0,5	1,920100
3,500333	0,5	1,937650
3,508667	0,5	1,981750
3,517000	0,5	2,037900
3,525333	0,5	2,124850
3,533667	0,5	2,190850
3,542000	0,5	2,209350
3,550333	0,5	2,201650
3,558667	0,5	2,149700
3,567000	0,5	2,071050
3,575333	0,5	1,984000
3,583667	0,5	1,868700
3,592000	0,5	1,774600
3,600333	0,5	1,685100
3,608667	0,5	1,627350
3,617000	0,5	1,571150
3,625333	0,5	1,532600
3,633667	0,5	1,487100
3,642000	0,5	1,459200
3,650333	0,5	1,434450
3,658667	0,5	1,413750
3,667000	0,5	1,393500
3,675333	0,5	1,413700
3,683667	0,5	1,381600
3,692000	0,5	1,366300
3,700333	0,5	1,363450
3,708667	0,5	1,361700
3,717000	0,5	1,384400
3,725333	0,5	1,373500
3,733667	0,5	1,372600
3,742000	0,5	1,362400
3,750333	0,5	1,362300
3,758667	0,5	1,351450
3,767000	0,5	1,351100
3,775333	0,5	1,351200
3,783667	0,5	1,356800
3,792000	0,5	1,356150
3,800333	0,5	1,361350
3,808667	0,5	1,357350
3,817000	0,5	1,354650
3,825333	0,5	1,367000
3,833667	0,5	1,341550
3,842000	0,5	1,328300
3,850333	0,5	1,335800
3,858667	0,5	1,337850
3,867000	0,5	1,365050
3,875333	0,5	1,355450
3,883667	0,5	1,343250
3,892000	0,5	1,338300
3,900333	0,5	1,328750
3,908667	0,5	1,321700
3,917000	0,5	1,304000
3,925333	0,5	1,286050
3,933667	0,5	1,266400
3,942000	0,5	1,251500
3,950333	0,5	1,238450
3,958667	0,5	1,223100
3,967000	0,5	1,205550
3,975333	0,5	1,212400
3,983667	0,5	1,183050
3,992000	0,5	1,169300
4,000333	0,5	1,161900
4,008667	0,5	1,170500
4,017000	0,5	1,183550
4,025333	0,5	1,171550
4,033667	0,5	1,158100
4,042000	0,5	1,160800
4,050333	0,5	1,148300
4,058667	0,5	1,149050
4,067000	0,5	1,138600
4,075333	0,5	1,132950
4,083667	0,5	1,129000
4,092000	0,5	1,123200
4,100333	0,5	1,123650
4,108667	0,5	1,102800
4,117000	0,5	1,116850
4,125333	0,5	1,114050
4,133667	0,5	1,098900
4,142000	0,5	1,098750
4,150333	0,5	1,115200
4,158667	0,5	1,130800
4,167000	0,5	1,145800
4,175333	0,5	1,131550
4,183667	0,5	1,133000
4,192000	0,5	1,126400
4,200333	0,5	1,131450
4,208667	0,5	1,119800
4,217000	0,5	1,115400
4,225333	0,5	1,102300
4,233667	0,5	1,096200
4,242000	0,5	1,092600
4,250333	0,5	1,074050
4,258667	0,5	1,064100
4,267000	0,5	1,076700
4,275333	0,5	1,062300
4,283667	0,5	1,051150
4,292000	0,5	1,048550
4,300333	0,5	1,058350
4,308667	0,5	1,076200
4,317000	0,5	1,078800
4,325333	0,5	1,081300
4,333667	0,5	1,066200
4,342000	0,5	1,072000
4,350333	0,5	1,061950
4,358667	0,5	1,062850
4,367000	0,5	1,049500
4,375333	0,5	1,049150
4,383667	0,5	1,044350
4,392000	0,5	1,039050
4,400333	0,5	1,028900
4,408667	0,5	1,035600
4,417000	0,5	1,034700
4,425333	0,5	1,021300
4,433667	0,5	1,013950
4,442000	0,5	1,017000
4,450333	0,5	1,030900
4,458667	0,5	1,040350
4,467000	0,5	1,051900
4,475333	0,5	1,035850
4,483667	0,5	1,038200
4,492000	0,5	1,028050
4,500333	0,5	1,030100
4,508667	0,5	1,022850
4,517000	0,5	1,025000
4,525333	0,5	1,023050
4,533667	0,5	1,027800
4,542000	0,5	1,030050
4,550333	0,5	1,029400
4,558667	0,5	1,042650
4,567000	0,5	1,049550
4,575333	0,5	1,038150
4,583667	0,5	1,045250
4,592000	0,5	1,051000
4,600333	0,5	1,075500
4,608667	0,5	1,087000
4,617000	0,5	1,081600
4,625333	0,5	1,079300
4,633667	0,5	1,079550
4,642000	0,5	1,075500
4,650333	0,5	1,065300
4,658667	0,5	1,059900
4,667000	0,5	1,050900
4,675333	0,5	1,053450
4,683667	0,5	1,055050
4,692000	0,5	1,063550
4,700333	0,5	1,061850
4,708667	0,5	1,106500
4,717000	0,5	1,111150
4,725333	0,5	1,132400
4,733667	0,5	1,157300
4,742000	0,5	1,189850
4,750333	0,5	1,240800
4,758667	0,5	1,265100
4,767000	0,5	1,276450
4,775333	0,5	1,292050
4,783667	0,5	1,296700
4,792000	0,5	1,294450
4,800333	0,5	1,288100
4,808667	0,5	1,278950
4,817000	0,5	1,270500
4,825333	0,5	1,265450
4,833667	0,5	1,261750
4,842000	0,5	1,240900
4,850333	0,5	1,230100
4,858667	0,5	1,246300
4,867000	0,5	1,220950
4,875333	0,5	1,210900
4,883667	0,5	1,202300
4,892000	0,5	1,192500
4,900333	0,5	1,202900
4,908667	0,5	1,172800
4,917000	0,5	1,156050
4,925333	0,5	1,131050
4,933667	0,5	1,123250
4,942000	0,5	1,103700
4,950333	0,5	1,096400
4,958667	0,5	1,083900
4,967000	0,5	1,075150
4,975333	0,5	1,068100
4,983667	0,5	1,062400
4,992000	0,5	1,058050
5,000333	0,5	1,053500
5,008667	0,5	1,071850
5,017000	0,5	1,057350
5,025333	0,5	1,058850
5,033667	0,5	1,063750
5,042000	0,5	1,079550
5,050333	0,5	1,103800
5,058667	0,5	1,107850
5,067000	0,5	1,102100
5,075333	0,5	1,115600
5,083667	0,5	1,110850
5,092000	0,5	1,117850
5,100333	0,5	1,113350
5,108667	0,5	1,116700
5,117000	0,5	1,115400
5,125333	0,5	1,116250
5,133667	0,5	1,124550
5,142000	0,5	1,120250
5,150333	0,5	1,124200
5,158667	0,5	1,127500
5,167000	0,5	1,113250
5,175333	0,5	1,116100
5,183667	0,5	1,125400
5,192000	0,5	1,148400
5,200333	0,5	1,173150
5,208667	0,5	1,171000
5,217000	0,5	1,177650
5,225333	0,5	1,178750
5,233667	0,5	1,186850
5,242000	0,5	1,181100
5,250333	0,5	1,187100
5,258667	0,5	1,174600
5,267000	0,5	1,179250
5,275333	0,5	1,173450
5,283667	0,5	1,164900
5,292000	0,5	1,158350
5,300333	0,5	1,172900
5,308667	0,5	1,160600
5,317000	0,5	1,150750
5,325333	0,5	1,147500
5,333667	0,5	1,152800
5,342000	0,5	1,161850
5,350333	0,5	1,167650
5,358667	0,5	1,166650
5,367000	0,5	1,159950
5,375333	0,5	1,155450
5,383667	0,5	1,149050
5,392000	0,5	1,150950
5,400333	0,5	1,145350
5,408667	0,5	1,144400
5,417000	0,5	1,139150
5,425333	0,5	1,138150
5,433667	0,5	1,122850
5,442000	0,5	1,134250
5,450333	0,5	1,140350
5,458667	0,5	1,132550
5,467000	0,5	1,124400
5,475333	0,5	1,133100
5,483667	0,5	1,150000
5,492000	0,5	1,174100
5,500333	0,5	1,177900
5,508667	0,5	1,178850
5,517000	0,5	1,178350
5,525333	0,5	1,180250
5,533667	0,5	1,182600
5,542000	0,5	1,184200
5,550333	0,5	1,191650
5,558667	0,5	1,191950
5,567000	0,5	1,204050
5,575333	0,5	1,201550
5,583667	0,5	1,204300
5,592000	0,5	1,220850
5,600333	0,5	1,238350
5,608667	0,5	1,233700
5,617000	0,5	1,243550
5,625333	0,5	1,257150
5,633667	0,5	1,292900
5,642000	0,5	1,312400
5,650333	0,5	1,329050
5,658667	0,5	1,341200
5,667000	0,5	1,368450
5,675333	0,5	1,391450
5,683667	0,5	1,429300
5,692000	0,5	1,466650
5,700333	0,5	1,515650
5,708667	0,5	1,585850
5,717000	0,5	1,673550
5,725333	0,5	1,794100
5,733667	0,5	1,930900
5,742000	0,5	2,123350
5,750333	0,5	2,319650
5,758667	0,5	2,535950
5,767000	0,5	2,768550
5,775333	0,5	2,998850
5,783667	0,5	3,217250
5,792000	0,5	3,371500
5,800333	0,5	3,452750
5,808667	0,5	3,484850
5,817000	0,5	3,438050
5,825333	0,5	3,333100
5,833667	0,5	3,172150
5,842000	0,5	2,986200
5,850333	0,5	2,775350
5,858667	0,5	2,570400
5,867000	0,5	2,378700
5,875333	0,5	2,196600
5,883667	0,5	2,031650
5,892000	0,5	1,920350
5,900333	0,5	1,793300
5,908667	0,5	1,704900
5,917000	0,5	1,633900
5,925333	0,5	1,583500
5,933667	0,5	1,564200
5,942000	0,5	1,520650
5,950333	0,5	1,495600
5,958667	0,5	1,471750
5,967000	0,5	1,458350
5,975333	0,5	1,443350
5,983667	0,5	1,438450
5,992000	0,5	1,429500
6,000333	0,5	1,425650
6,008667	0,5	1,422750
6,017000	0,5	1,420450
6,025333	0,5	1,415100
6,033667	0,5	1,423550
6,042000	0,5	1,438050
6,050333	0,5	1,435650
6,058667	0,5	1,436950
6,067000	0,5	1,446500
6,075333	0,5	1,457900
6,083667	0,5	1,477500
6,092000	0,5	1,476200
6,100333	0,5	1,464850
6,108667	0,5	1,460500
6,117000	0,5	1,450100
6,125333	0,5	1,442200
6,133667	0,5	1,428950
6,142000	0,5	1,416900
6,150333	0,5	1,405350
6,158667	0,5	1,405650
6,167000	0,5	1,398050
6,175333	0,5	1,391300
6,183667	0,5	1,388300
6,192000	0,5	1,390600
6,200333	0,5	1,375300
6,208667	0,5	1,375250
6,217000	0,5	1,379650
6,225333	0,5	1,397550
6,233667	0,5	1,412800
6,242000	0,5	1,409650
6,250333	0,5	1,410050
6,258667	0,5	1,415000
6,267000	0,5	1,413050
6,275333	0,5	1,417000
6,283667	0,5	1,423250
6,292000	0,5	1,421600
6,300333	0,5	1,422950
6,308667	0,5	1,428800
6,317000	0,5	1,429450
6,325333	0,5	1,429250
6,333667	0,5	1,447250
6,342000	0,5	1,439700
6,350333	0,5	1,433250
6,358667	0,5	1,432950
6,367000	0,5	1,440700
6,375333	0,5	1,454500
6,383667	0,5	1,461400
6,392000	0,5	1,457400
6,400333	0,5	1,460650
6,408667	0,5	1,457100
6,417000	0,5	1,457850
6,425333	0,5	1,455050
6,433667	0,5	1,454850
6,442000	0,5	1,449500
6,450333	0,5	1,452150
6,458667	0,5	1,453850
6,467000	0,5	1,445300
6,475333	0,5	1,445000
6,483667	0,5	1,460300
6,492000	0,5	1,451500
6,500333	0,5	1,449350
6,508667	0,5	1,451750
6,517000	0,5	1,461550
6,525333	0,5	1,480800
6,533667	0,5	1,476900
6,542000	0,5	1,481400
6,550333	0,5	1,478650
6,558667	0,5	1,485250
6,567000	0,5	1,481350
6,575333	0,5	1,484300
6,583667	0,5	1,480500
6,592000	0,5	1,480700
6,600333	0,5	1,484100
6,608667	0,5	1,485200
6,617000	0,5	1,481600
6,625333	0,5	1,492800
6,633667	0,5	1,495100
6,642000	0,5	1,495200
6,650333	0,5	1,499000
6,658667	0,5	1,515400
6,667000	0,5	1,535250
6,675333	0,5	1,562950
6,683667	0,5	1,577950
6,692000	0,5	1,585650
6,700333	0,5	1,599900
6,708667	0,5	1,594400
6,717000	0,5	1,594000
6,725333	0,5	1,579800
6,733667	0,5	1,569850
6,742000	0,5	1,551100
6,750333	0,5	1,548300
6,758667	0,5	1,544400
6,767000	0,5	1,539000
6,775333	0,5	1,546050
6,783667	0,5	1,547350
6,792000	0,5	1,539800
6,800333	0,5	1,542000
6,808667	0,5	1,541900
6,817000	0,5	1,556200
6,825333	0,5	1,555450
6,833667	0,5	1,543050
6,842000	0,5	1,541200
6,850333	0,5	1,528450
6,858667	0,5	1,519950
6,867000	0,5	1,507100
6,875333	0,5	1,498100
6,883667	0,5	1,487200
6,892000	0,5	1,478800
6,900333	0,5	1,473550
6,908667	0,5	1,470850
6,917000	0,5	1,453950
6,925333	0,5	1,461200
6,933667	0,5	1,446600
6,942000	0,5	1,439550
6,950333	0,5	1,434650
6,958667	0,5	1,435400
6,967000	0,5	1,445000
6,975333	0,5	1,439600
6,983667	0,5	1,433550
6,992000	0,5	1,422550
7,000333	0,5	1,421200
7,008667	0,5	1,416750
7,017000	0,5	1,414500
7,025333	0,5	1,409200
7,033667	0,5	1,404900
7,042000	0,5	1,400500
7,050333	0,5	1,397500
7,058667	0,5	1,385650
7,067000	0,5	1,383900
7,075333	0,5	1,382700
7,083667	0,5	1,372300
7,092000	0,5	1,365050
7,100333	0,5	1,363400
7,108667	0,5	1,365550
7,117000	0,5	1,378150
7,125333	0,5	1,379850
7,133667	0,5	1,381900
7,142000	0,5	1,377550
7,150333	0,5	1,377850
7,158667	0,5	1,371750
7,167000	0,5	1,368350
7,175333	0,5	1,360600
7,183667	0,5	1,354000
7,192000	0,5	1,351100
7,200333	0,5	1,340650
7,208667	0,5	1,334450
7,217000	0,5	1,335600
7,225333	0,5	1,332150
7,233667	0,5	1,320850
7,242000	0,5	1,315150
7,250333	0,5	1,312900
7,258667	0,5	1,321000
7,267000	0,5	1,330700
7,275333	0,5	1,334900
7,283667	0,5	1,328800
7,292000	0,5	1,331000
7,300333	0,5	1,329100
7,308667	0,5	1,330300
7,317000	0,5	1,326850
7,325333	0,5	1,323400
7,333667	0,5	1,316500
7,342000	0,5	1,312800
7,350333	0,5	1,298350
7,358667	0,5	1,287250
7,367000	0,5	1,283400
7,375333	0,5	1,269250
7,383667	0,5	1,252850
7,392000	0,5	1,242500
7,400333	0,5	1,234850
7,408667	0,5	1,240450
7,417000	0,5	1,249750
7,425333	0,5	1,254350
7,433667	0,5	1,270100
7,442000	0,5	1,281950
7,450333	0,5	1,295100
7,458667	0,5	1,285000
7,467000	0,5	1,270350
7,475333	0,5	1,241550
7,483667	0,5	1,221650
7,492000	0,5	1,203050
7,500333	0,5	1,191800
7,508667	0,5	1,181450
7,517000	0,5	1,183100
7,525333	0,5	1,169300
7,533667	0,5	1,156800
7,542000	0,5	1,149650
7,550333	0,5	1,151150
7,558667	0,5	1,153850
7,567000	0,5	1,149350
7,575333	0,5	1,147200
7,583667	0,5	1,143700
7,592000	0,5	1,140950
7,600333	0,5	1,133650
7,608667	0,5	1,130750
7,617000	0,5	1,122100
7,625333	0,5	1,115400
7,633667	0,5	1,106500
7,642000	0,5	1,099500
7,650333	0,5	1,086200
7,658667	0,5	1,079100
7,667000	0,5	1,074950
7,675333	0,5	1,064750
7,683667	0,5	1,056300
7,692000	0,5	1,052500
7,700333	0,5	1,053600
7,708667	0,5	1,061800
7,717000	0,5	1,057300
7,725333	0,5	1,059300
7,733667	0,5	1,060400
7,742000	0,5	1,055200
7,750333	0,5	1,054200
7,758667	0,5	1,045700
7,767000	0,5	1,037650
7,775333	0,5	1,030400
7,783667	0,5	1,026750
7,792000	0,5	1,021200
7,800333	0,5	1,022700
7,808667	0,5	1,031100
7,817000	0,5	1,043400
7,825333	0,5	1,057300
7,833667	0,5	1,072050
7,842000	0,5	1,077450
7,850333	0,5	1,075300
7,858667	0,5	1,061950
7,867000	0,5	1,042050
7,875333	0,5	1,028050
7,883667	0,5	1,025300
7,892000	0,5	1,025550
7,900333	0,5	1,030350
7,908667	0,5	1,041900
7,917000	0,5	1,058950
7,925333	0,5	1,088500
7,933667	0,5	1,127550
7,942000	0,5	1,169200
7,950333	0,5	1,191950
7,958667	0,5	1,198950
7,967000	0,5	1,179250
7,975333	0,5	1,135350
7,983667	0,5	1,091750
7,992000	0,5	1,053150
8,000333	0,5	1,028150
8,008667	0,5	1,012200
8,017000	0,5	0,996000
8,025333	0,5	0,995900
8,033667	0,5	0,993950
8,042000	0,5	0,990950
8,050333	0,5	0,983500
8,058667	0,5	0,977750
8,067000	0,5	0,965600
8,075333	0,5	0,957550
8,083667	0,5	0,948200
8,092000	0,5	0,946000
8,100333	0,5	0,945600
8,108667	0,5	0,953500
8,117000	0,5	0,966400
8,125333	0,5	0,982950
8,133667	0,5	0,997050
8,142000	0,5	1,000850
8,150333	0,5	0,996600
8,158667	0,5	0,980650
8,167000	0,5	0,966300
8,175333	0,5	0,956500
8,183667	0,5	0,953550
8,192000	0,5	0,952100
8,200333	0,5	0,950450
8,208667	0,5	0,945950
8,217000	0,5	0,941250
8,225333	0,5	0,935050
8,233667	0,5	0,924250
8,242000	0,5	0,917350
8,250333	0,5	0,913900
8,258667	0,5	0,914800
8,267000	0,5	0,913400
8,275333	0,5	0,913300
8,283667	0,5	0,916100
8,292000	0,5	0,919600
8,300333	0,5	0,926550
8,308667	0,5	0,927150
8,317000	0,5	0,921300
8,325333	0,5	0,919150
8,333667	0,5	0,915150
8,342000	0,5	0,912800
8,350333	0,5	0,909900
8,358667	0,5	0,913400
8,367000	0,5	0,922200
8,375333	0,5	0,937000
8,383667	0,5	0,941950
8,392000	0,5	0,940150
8,400333	0,5	0,934350
8,408667	0,5	0,919700
8,417000	0,5	0,904800
8,425333	0,5	0,894300
8,433667	0,5	0,886800
8,442000	0,5	0,890850
8,450333	0,5	0,885750
8,458667	0,5	0,884000
8,467000	0,5	0,879600
8,475333	0,5	0,873550
8,483667	0,5	0,867250
8,492000	0,5	0,861100
8,500333	0,5	0,857650
8,508667	0,5	0,855350
8,517000	0,5	0,855250
8,525333	0,5	0,852950
8,533667	0,5	0,855050
8,542000	0,5	0,855050
8,550333	0,5	0,859650
8,558667	0,5	0,861000
8,567000	0,5	0,860800
8,575333	0,5	0,867350
8,583667	0,5	0,881500
8,592000	0,5	0,900850
8,600333	0,5	0,911450
8,608667	0,5	0,913950
8,617000	0,5	0,907700
8,625333	0,5	0,898750
8,633667	0,5	0,893000
8,642000	0,5	0,889700
8,650333	0,5	0,891050
8,658667	0,5	0,883750
8,667000	0,5	0,883200
8,675333	0,5	0,876500
8,683667	0,5	0,870600
8,692000	0,5	0,868200
8,700333	0,5	0,877450
8,708667	0,5	0,884250
8,717000	0,5	0,895100
8,725333	0,5	0,911750
8,733667	0,5	0,939900
8,742000	0,5	0,986450
8,750333	0,5	1,029600
8,758667	0,5	1,069600
8,767000	0,5	1,088400
8,775333	0,5	1,083600
8,783667	0,5	1,056200
8,792000	0,5	1,017400
8,800333	0,5	0,976850
8,808667	0,5	0,942500
8,817000	0,5	0,917900
8,825333	0,5	0,904350
8,833667	0,5	0,897550
8,842000	0,5	0,896600
8,850333	0,5	0,905450
8,858667	0,5	0,905950
8,867000	0,5	0,909500
8,875333	0,5	0,912250
8,883667	0,5	0,911800
8,892000	0,5	0,913000
8,900333	0,5	0,911950
8,908667	0,5	0,910550
8,917000	0,5	0,916000
8,925333	0,5	0,924950
8,933667	0,5	0,943500
8,942000	0,5	0,966650
8,950333	0,5	0,985850
8,958667	0,5	1,004000
8,967000	0,5	1,013400
8,975333	0,5	1,011900
8,983667	0,5	1,007000
8,992000	0,5	1,005100
9,000333	0,5	1,009550
9,008667	0,5	1,012200
9,017000	0,5	1,013850
9,025333	0,5	1,018300
9,033667	0,5	1,024650
9,042000	0,5	1,037450
9,050333	0,5	1,045950
9,058667	0,5	1,042900
9,067000	0,5	1,027800
9,075333	0,5	1,002050
9,083667	0,5	0,980600
9,092000	0,5	0,971600
9,100333	0,5	0,965900
9,108667	0,5	0,972350
9,117000	0,5	0,984250
9,125333	0,5	1,001950
9,133667	0,5	1,013000
9,142000	0,5	1,021600
9,150333	0,5	1,025100
9,158667	0,5	1,020200
9,167000	0,5	1,011800
9,175333	0,5	1,005350
9,183667	0,5	1,000100
9,192000	0,5	0,999900
9,200333	0,5	0,999200
9,208667	0,5	0,999000
9,217000	0,5	0,998550
9,225333	0,5	1,002100
9,233667	0,5	1,004650
9,242000	0,5	1,010400
9,250333	0,5	1,014700
9,258667	0,5	1,024850
9,267000	0,5	1,037100
9,275333	0,5	1,051150
9,283667	0,5	1,064600
9,292000	0,5	1,079100
9,300333	0,5	1,094500
9,308667	0,5	1,107950
9,317000	0,5	1,119500
9,325333	0,5	1,136900
9,333667	0,5	1,149500
9,342000	0,5	1,162950
9,350333	0,5	1,171000
9,358667	0,5	1,169850
9,367000	0,5	1,173500
9,375333	0,5	1,177550
9,383667	0,5	1,183950
9,392000	0,5	1,197250
9,400333	0,5	1,219500
9,408667	0,5	1,243700
9,417000	0,5	1,284750
9,425333	0,5	1,327800
9,433667	0,5	1,378600
9,442000	0,5	1,433200
9,450333	0,5	1,488250
9,458667	0,5	1,530050
9,467000	0,5	1,565400
9,475333	0,5	1,580100
9,483667	0,5	1,584550
9,492000	0,5	1,569350
9,500333	0,5	1,553150
9,508667	0,5	1,521050
9,517000	0,5	1,491700
9,525333	0,5	1,469500
9,533667	0,5	1,448000
9,542000	0,5	1,431500
9,550333	0,5	1,417950
9,558667	0,5	1,417700
9,567000	0,5	1,420200
9,575333	0,5	1,425650
9,583667	0,5	1,429750
9,592000	0,5	1,440200
9,600333	0,5	1,447750
9,608667	0,5	1,453300
9,617000	0,5	1,457500
9,625333	0,5	1,462700
9,633667	0,5	1,467450
9,642000	0,5	1,476250
9,650333	0,5	1,486900
9,658667	0,5	1,497150
9,667000	0,5	1,504700
9,675333	0,5	1,515450
9,683667	0,5	1,518350
9,692000	0,5	1,522050
9,700333	0,5	1,519200
9,708667	0,5	1,518900
9,717000	0,5	1,521600
9,725333	0,5	1,524550
9,733667	0,5	1,528850
9,742000	0,5	1,539400
9,750333	0,5	1,547450
9,758667	0,5	1,560650
9,767000	0,5	1,581700
9,775333	0,5	1,604050
9,783667	0,5	1,627000
9,792000	0,5	1,645950
9,800333	0,5	1,664900
9,808667	0,5	1,674800
9,817000	0,5	1,681800
9,825333	0,5	1,690500
9,833667	0,5	1,699200
9,842000	0,5	1,712000
9,850333	0,5	1,728150
9,858667	0,5	1,752750
9,867000	0,5	1,788850
9,875333	0,5	1,840600
9,883667	0,5	1,913750
9,892000	0,5	2,010050
9,900333	0,5	2,124400
9,908667	0,5	2,260750
9,917000	0,5	2,407500
9,925333	0,5	2,557150
9,933667	0,5	2,692600
9,942000	0,5	2,797400
9,950333	0,5	2,854000
9,958667	0,5	2,858700
9,967000	0,5	2,804450
9,975333	0,5	2,698250
9,983667	0,5	2,556050
9,992000	0,5	2,399900
10,000333	0,5	2,247900
10,008667	0,5	2,112050
10,017000	0,5	2,000150
10,025333	0,5	1,915250
10,033667	0,5	1,851650
10,042000	0,5	1,803050
10,050333	0,5	1,767600
10,058667	0,5	1,738600
10,067000	0,5	1,721000
10,075333	0,5	1,712550
10,083667	0,5	1,705900
10,092000	0,5	1,708900
10,100333	0,5	1,715800
10,108667	0,5	1,721850
10,117000	0,5	1,729450
10,125333	0,5	1,735100
10,133667	0,5	1,734000
10,142000	0,5	1,728050
10,150333	0,5	1,719850
10,158667	0,5	1,710700
10,167000	0,5	1,699500
10,175333	0,5	1,689150
10,183667	0,5	1,684400
10,192000	0,5	1,677300
10,200333	0,5	1,670850
10,208667	0,5	1,663900
10,217000	0,5	1,659950
10,225333	0,5	1,658250
10,233667	0,5	1,653550
10,242000	0,5	1,656000
10,250333	0,5	1,655000
10,258667	0,5	1,654250
10,267000	0,5	1,655300
10,275333	0,5	1,655650
10,283667	0,5	1,654600
10,292000	0,5	1,653800
10,300333	0,5	1,650300
10,308667	0,5	1,653250
10,317000	0,5	1,646150
10,325333	0,5	1,652200
10,333667	0,5	1,656950
10,342000	0,5	1,663150
10,350333	0,5	1,666900
10,358667	0,5	1,667450
10,367000	0,5	1,667900
10,375333	0,5	1,677150
10,383667	0,5	1,680850
10,392000	0,5	1,690550
10,400333	0,5	1,698000
10,408667	0,5	1,698750
10,417000	0,5	1,697400
10,425333	0,5	1,689600
10,433667	0,5	1,677650
10,442000	0,5	1,661850
10,450333	0,5	1,649500
10,458667	0,5	1,632550
10,467000	0,5	1,613150
10,475333	0,5	1,606500
10,483667	0,5	1,596600
10,492000	0,5	1,581000
10,500333	0,5	1,573800
10,508667	0,5	1,560750
10,517000	0,5	1,557900
10,525333	0,5	1,552900
10,533667	0,5	1,548850
10,542000	0,5	1,544650
10,550333	0,5	1,540650
10,558667	0,5	1,534100
10,567000	0,5	1,527550
10,575333	0,5	1,523200
10,583667	0,5	1,517250
10,592000	0,5	1,513900
10,600333	0,5	1,514900
10,608667	0,5	1,517100
10,617000	0,5	1,516850
10,625333	0,5	1,529200
10,633667	0,5	1,531850
10,642000	0,5	1,531100
10,650333	0,5	1,529500
10,658667	0,5	1,517850
10,667000	0,5	1,504700
10,675333	0,5	1,491400
10,683667	0,5	1,472450
10,692000	0,5	1,454900
10,700333	0,5	1,439550
10,708667	0,5	1,422700
10,717000	0,5	1,405150
10,725333	0,5	1,396350
10,733667	0,5	1,379800
10,742000	0,5	1,370000
10,750333	0,5	1,362250
10,758667	0,5	1,357000
10,767000	0,5	1,353000
10,775333	0,5	1,356100
10,783667	0,5	1,347250
10,792000	0,5	1,340300
10,800333	0,5	1,335300
10,808667	0,5	1,333500
10,817000	0,5	1,337100
10,825333	0,5	1,343450
10,833667	0,5	1,354050
10,842000	0,5	1,364800
10,850333	0,5	1,371500
10,858667	0,5	1,372650
10,867000	0,5	1,364400
10,875333	0,5	1,352400
10,883667	0,5	1,336050
10,892000	0,5	1,316700
10,900333	0,5	1,298150
10,908667	0,5	1,277500
10,917000	0,5	1,265500
10,925333	0,5	1,252450
10,933667	0,5	1,241550
10,942000	0,5	1,228350
10,950333	0,5	1,223100
10,958667	0,5	1,212300
10,967000	0,5	1,213250
10,975333	0,5	1,212750
10,983667	0,5	1,211000
10,992000	0,5	1,214050
11,000333	0,5	1,219950
11,008667	0,5	1,229950
11,017000	0,5	1,240650
11,025333	0,5	1,254700
11,033667	0,5	1,269850
11,042000	0,5	1,279800
11,050333	0,5	1,279500
11,058667	0,5	1,271700
11,067000	0,5	1,260500
11,075333	0,5	1,240550
11,083667	0,5	1,218850
11,092000	0,5	1,199950
11,100333	0,5	1,182150
11,108667	0,5	1,171850
11,117000	0,5	1,163350
11,125333	0,5	1,159250
11,133667	0,5	1,152300
11,142000	0,5	1,153550
11,150333	0,5	1,152100
11,158667	0,5	1,153900
11,167000	0,5	1,160100
11,175333	0,5	1,165500
11,183667	0,5	1,178300
11,192000	0,5	1,188800
11,200333	0,5	1,197200
11,208667	0,5	1,203350
11,217000	0,5	1,206200
11,225333	0,5	1,192500
11,233667	0,5	1,174850
11,242000	0,5	1,140600
11,250333	0,5	1,113000
11,258667	0,5	1,088800
11,267000	0,5	1,077350
11,275333	0,5	1,062050
11,283667	0,5	1,056800
11,292000	0,5	1,058850
11,300333	0,5	1,065750
11,308667	0,5	1,076800
11,317000	0,5	1,087050
11,325333	0,5	1,104200
11,333667	0,5	1,120650
11,342000	0,5	1,140800
11,350333	0,5	1,155550
11,358667	0,5	1,174350
11,367000	0,5	1,189700
11,375333	0,5	1,194600
11,383667	0,5	1,188950
11,392000	0,5	1,178250
11,400333	0,5	1,161350
11,408667	0,5	1,150800
11,417000	0,5	1,135400
11,425333	0,5	1,125700
11,433667	0,5	1,112150
11,442000	0,5	1,101700
11,450333	0,5	1,093450
11,458667	0,5	1,089100
11,467000	0,5	1,082500
11,475333	0,5	1,083250
11,483667	0,5	1,081650
11,492000	0,5	1,086800
11,500333	0,5	1,080450
11,508667	0,5	1,090550
11,517000	0,5	1,087200
11,525333	0,5	1,082650
11,533667	0,5	1,074850
11,542000	0,5	1,062150
11,550333	0,5	1,057250
11,558667	0,5	1,052000
11,567000	0,5	1,041700
11,575333	0,5	1,038750
11,583667	0,5	1,032900
11,592000	0,5	1,027600
11,600333	0,5	1,031250
11,608667	0,5	1,032000
11,617000	0,5	1,035050
11,625333	0,5	1,039050
11,633667	0,5	1,044000
11,642000	0,5	1,050200
11,650333	0,5	1,050650
11,658667	0,5	1,061050
11,667000	0,5	1,066150
11,675333	0,5	1,068250
11,683667	0,5	1,070050
11,692000	0,5	1,068900
11,700333	0,5	1,069600
11,708667	0,5	1,071000
11,717000	0,5	1,074450
11,725333	0,5	1,074100
11,733667	0,5	1,078050
11,742000	0,5	1,083050
11,750333	0,5	1,086500
11,758667	0,5	1,090950
11,767000	0,5	1,095350
11,775333	0,5	1,099150
11,783667	0,5	1,105300
11,792000	0,5	1,108400
11,800333	0,5	1,106450
11,808667	0,5	1,117200
11,817000	0,5	1,123150
11,825333	0,5	1,127350
11,833667	0,5	1,130750
11,842000	0,5	1,138300
11,850333	0,5	1,150850
11,858667	0,5	1,174300
11,867000	0,5	1,194000
11,875333	0,5	1,219100
11,883667	0,5	1,250450
11,892000	0,5	1,282600
11,900333	0,5	1,311400
11,908667	0,5	1,335300
11,917000	0,5	1,352950
11,925333	0,5	1,359150
11,933667	0,5	1,357600
11,942000	0,5	1,333750
11,950333	0,5	1,316700
11,958667	0,5	1,295600
11,967000	0,5	1,268100
11,975333	0,5	1,238600
11,983667	0,5	1,216200
11,992000	0,5	1,202350
12,000333	0,5	1,196650
12,008667	0,5	1,192200
12,017000	0,5	1,189100
12,025333	0,5	1,190350
12,033667	0,5	1,191400
12,042000	0,5	1,197200
12,050333	0,5	1,200600
12,058667	0,5	1,209800
12,067000	0,5	1,216800
12,075333	0,5	1,227100
12,083667	0,5	1,231350
12,092000	0,5	1,228900
12,100333	0,5	1,234750
12,108667	0,5	1,234900
12,117000	0,5	1,226550
12,125333	0,5	1,215900
12,133667	0,5	1,202700
12,142000	0,5	1,199250
12,150333	0,5	1,193150
12,158667	0,5	1,195600
12,167000	0,5	1,191900
12,175333	0,5	1,199200
12,183667	0,5	1,196850
12,192000	0,5	1,203200
12,200333	0,5	1,202200
12,208667	0,5	1,202600
12,217000	0,5	1,205700
12,225333	0,5	1,207050
12,233667	0,5	1,197350
12,242000	0,5	1,199400
12,250333	0,5	1,200300
12,258667	0,5	1,193200
12,267000	0,5	1,187800
12,275333	0,5	1,176500
12,283667	0,5	1,171000
12,292000	0,5	1,169000
12,300333	0,5	1,169100
12,308667	0,5	1,167950
12,317000	0,5	1,170500
12,325333	0,5	1,167700
12,333667	0,5	1,168000
12,342000	0,5	1,167350
12,350333	0,5	1,164800
12,358667	0,5	1,161150
12,367000	0,5	1,158050
12,375333	0,5	1,160700
12,383667	0,5	1,152700
12,392000	0,5	1,154900
12,400333	0,5	1,158200
12,408667	0,5	1,157000
12,417000	0,5	1,155100
12,425333	0,5	1,144500
12,433667	0,5	1,142600
12,442000	0,5	1,150900
12,450333	0,5	1,147200
12,458667	0,5	1,146800
12,467000	0,5	1,144850
12,475333	0,5	1,142600
12,483667	0,5	1,141700
12,492000	0,5	1,144400
12,500333	0,5	1,140850
12,508667	0,5	1,141650
12,517000	0,5	1,142550
12,525333	0,5	1,150350
12,533667	0,5	1,139900
12,542000	0,5	1,150900
12,550333	0,5	1,148300
12,558667	0,5	1,152850
12,567000	0,5	1,151550
12,575333	0,5	1,143700
12,583667	0,5	1,152600
12,592000	0,5	1,155500
12,600333	0,5	1,158000
12,608667	0,5	1,157650
12,617000	0,5	1,157200
12,625333	0,5	1,156700
12,633667	0,5	1,162750
12,642000	0,5	1,159150
12,650333	0,5	1,157750
12,658667	0,5	1,154300
12,667000	0,5	1,155700
12,675333	0,5	1,148150
12,683667	0,5	1,138600
12,692000	0,5	1,138450
12,700333	0,5	1,131300
12,708667	0,5	1,121800
12,717000	0,5	1,112000
12,725333	0,5	1,095750
12,733667	0,5	1,095200
12,742000	0,5	1,090750
12,750333	0,5	1,087450
12,758667	0,5	1,078500
12,767000	0,5	1,082500
12,775333	0,5	1,079950
12,783667	0,5	1,077850
12,792000	0,5	1,076850
12,800333	0,5	1,073350
12,808667	0,5	1,073950
12,817000	0,5	1,068950
12,825333	0,5	1,063550
12,833667	0,5	1,062000
12,842000	0,5	1,063850
12,850333	0,5	1,059700
12,858667	0,5	1,055400
12,867000	0,5	1,048450
12,875333	0,5	1,043050
12,883667	0,5	1,047050
12,892000	0,5	1,052500
12,900333	0,5	1,050400
12,908667	0,5	1,055250
12,917000	0,5	1,058300
12,925333	0,5	1,064700
12,933667	0,5	1,067000
12,942000	0,5	1,072500
12,950333	0,5	1,068750
12,958667	0,5	1,070650
12,967000	0,5	1,066500
12,975333	0,5	1,059150
12,983667	0,5	1,060850
12,992000	0,5	1,068450
13,000333	0,5	1,074050
13,008667	0,5	1,071550
13,017000	0,5	1,072400
13,025333	0,5	1,067750
13,033667	0,5	1,074800
13,042000	0,5	1,072000
13,050333	0,5	1,077650
13,058667	0,5	1,078450
13,067000	0,5	1,089950
13,075333	0,5	1,098950
13,083667	0,5	1,104000
13,092000	0,5	1,099350
13,100333	0,5	1,096600
13,108667	0,5	1,097350
13,117000	0,5	1,091550
13,125333	0,5	1,086250
13,133667	0,5	1,099450
13,142000	0,5	1,107750
13,150333	0,5	1,105850
13,158667	0,5	1,092250
13,167000	0,5	1,081300
13,175333	0,5	1,077550
13,183667	0,5	1,072850
13,192000	0,5	1,080900
13,200333	0,5	1,082850
13,208667	0,5	1,092300
13,217000	0,5	1,088400
13,225333	0,5	1,079050
13,233667	0,5	1,066250
13,242000	0,5	1,061550
13,250333	0,5	1,056850
13,258667	0,5	1,065300
13,267000	0,5	1,060550
13,275333	0,5	1,060200
13,283667	0,5	1,061850
13,292000	0,5	1,058150
13,300333	0,5	1,053350
13,308667	0,5	1,048700
13,317000	0,5	1,056750
13,325333	0,5	1,063600
13,333667	0,5	1,067350
13,342000	0,5	1,065700
13,350333	0,5	1,063850
13,358667	0,5	1,059050
13,367000	0,5	1,056650
13,375333	0,5	1,051150
13,383667	0,5	1,046250
13,392000	0,5	1,035200
13,400333	0,5	1,023250
13,408667	0,5	1,015250
13,417000	0,5	1,002950
13,425333	0,5	1,002550
13,433667	0,5	0,998400
13,442000	0,5	0,987450
13,450333	0,5	0,982600
13,458667	0,5	0,966200
13,467000	0,5	0,962900
13,475333	0,5	0,964350
13,483667	0,5	0,958150
13,492000	0,5	0,953450
13,500333	0,5	0,952050
13,508667	0,5	0,947850
13,517000	0,5	0,946150
13,525333	0,5	0,944500
13,533667	0,5	0,939450
13,542000	0,5	0,937250
13,550333	0,5	0,935350
13,558667	0,5	0,942100
13,567000	0,5	0,928950
13,575333	0,5	0,941650
13,583667	0,5	0,939950
13,592000	0,5	0,940000
13,600333	0,5	0,933100
13,608667	0,5	0,932550
13,617000	0,5	0,933550
13,625333	0,5	0,941650
13,633667	0,5	0,941350
13,642000	0,5	0,941850
13,650333	0,5	0,938650
13,658667	0,5	0,937700
13,667000	0,5	0,933900
13,675333	0,5	0,929800
13,683667	0,5	0,929700
13,692000	0,5	0,923900
13,700333	0,5	0,924700
13,708667	0,5	0,918450
13,717000	0,5	0,907900
13,725333	0,5	0,915300
13,733667	0,5	0,910000
13,742000	0,5	0,906600
13,750333	0,5	0,906450
13,758667	0,5	0,887550
13,767000	0,5	0,893750
13,775333	0,5	0,896200
13,783667	0,5	0,902950
13,792000	0,5	0,903000
13,800333	0,5	0,909850
13,808667	0,5	0,913350
13,817000	0,5	0,920500
13,825333	0,5	0,922300
13,833667	0,5	0,925800
13,842000	0,5	0,934650
13,850333	0,5	0,925800
13,858667	0,5	0,905950
13,867000	0,5	0,893550
13,875333	0,5	0,880800
13,883667	0,5	0,858500
13,892000	0,5	0,836200
13,900333	0,5	0,804700
13,908667	0,5	0,768050
13,917000	0,5	0,727200
13,925333	0,5	0,664650
13,933667	0,5	0,527650
13,942000	0,5	0,286850
13,950333	0,5	0,023750
13,958667	0,5	-0,171150
13,967000	0,5	-0,304850
13,975333	0,5	-0,379000
13,983667	0,5	-0,423300
13,992000	0,5	-0,442400
14,000333	0,5	-0,471300
14,008667	0,5	-0,497300
14,017000	0,5	-0,509650
14,025333	0,5	-0,527000
14,033667	0,5	-0,547600
14,042000	0,5	-0,567250
14,050333	0,5	-0,585200
14,058667	0,5	-0,593500
14,067000	0,5	-0,591000
14,075333	0,5	-0,594600
14,083667	0,5	-0,591550
14,092000	0,5	-0,589350
14,100333	0,5	-0,585200
14,108667	0,5	-0,582950
14,117000	0,5	-0,575700
14,125333	0,5	-0,572700
14,133667	0,5	-0,569200
14,142000	0,5	-0,561700
14,150333	0,5	-0,560850
14,158667	0,5	-0,557450
14,167000	0,5	-0,536800
14,175333	0,5	-0,526900
14,183667	0,5	-0,516800
14,192000	0,5	-0,519650
14,200333	0,5	-0,505700
14,208667	0,5	-0,494200
14,217000	0,5	-0,484150
14,225333	0,5	-0,473350
14,233667	0,5	-0,470700
14,242000	0,5	-0,462000
14,250333	0,5	-0,460650
14,258667	0,5	-0,452350
14,267000	0,5	-0,451150
14,275333	0,5	-0,443750
14,283667	0,5	-0,434900
14,292000	0,5	-0,419600
14,300333	0,5	-0,429400
14,308667	0,5	-0,414350
14,317000	0,5	-0,407100
14,325333	0,5	-0,406900
14,333667	0,5	-0,409750
14,342000	0,5	-0,414850
14,350333	0,5	-0,410300
14,358667	0,5	-0,399700
14,367000	0,5	-0,392100
14,375333	0,5	-0,375900
14,383667	0,5	-0,371450
14,392000	0,5	-0,359850
14,400333	0,5	-0,346100
14,408667	0,5	-0,329800
14,417000	0,5	-0,315200
14,425333	0,5	-0,305750
14,433667	0,5	-0,285500
14,442000	0,5	-0,271650
14,450333	0,5	-0,270700
14,458667	0,5	-0,246250
14,467000	0,5	-0,226700
14,475333	0,5	-0,214750
14,483667	0,5	-0,198100
14,492000	0,5	-0,189250
14,500333	0,5	-0,159150
14,508667	0,5	-0,131100
14,517000	0,5	-0,103700
14,525333	0,5	-0,082550
14,533667	0,5	-0,059550
14,542000	0,5	-0,037350
14,550333	0,5	-0,016250
14,558667	0,5	-0,000050
14,567000	0,5	0,014350
14,575333	0,5	0,033100
14,583667	0,5	0,051150
14,592000	0,5	0,072800
14,600333	0,5	0,086250
14,608667	0,5	0,125350
14,617000	0,5	0,148900
14,625333	0,5	0,170550
14,633667	0,5	0,189900
14,642000	0,5	0,211500
14,650333	0,5	0,246750
14,658667	0,5	0,289250
14,667000	0,5	0,318200
14,675333	0,5	0,350700
14,683667	0,5	0,380750
14,692000	0,5	0,406250
14,700333	0,5	0,427850
14,708667	0,5	0,443550
14,717000	0,5	0,460550
14,725333	0,5	0,475350
14,733667	0,5	0,495500
14,742000	0,5	0,510000
14,750333	0,5	0,529850
14,758667	0,5	0,554250
14,767000	0,5	0,564700
14,775333	0,5	0,565100
14,783667	0,5	0,559200
14,792000	0,5	0,539550
14,800333	0,5	0,533400
14,808667	0,5	0,512150
14,817000	0,5	0,503650
14,825333	0,5	0,488000
14,833667	0,5	0,481550
14,842000	0,5	0,470400
14,850333	0,5	0,467400
14,858667	0,5	0,464200
14,867000	0,5	0,459400
14,875333	0,5	0,462300
14,883667	0,5	0,459950
14,892000	0,5	0,442300
14,900333	0,5	0,444400
14,908667	0,5	0,437100
14,917000	0,5	0,424600
14,925333	0,5	0,410150
14,933667	0,5	0,390000
14,942000	0,5	0,385750
14,950333	0,5	0,382200
14,958667	0,5	0,378150
14,967000	0,5	0,377550
14,975333	0,5	0,376450
14,983667	0,5	0,372450
14,992000	0,5	0,372550
15,000333	0,5	0,362700
15,008667	0,5	0,363450
15,017000	0,5	0,359550
15,025333	0,5	0,356750
15,033667	0,5	0,342400
15,042000	0,5	0,338100
15,050333	0,5	0,340700
15,058667	0,5	0,338500
15,067000	0,5	0,331700
15,075333	0,5	0,319500
15,083667	0,5	0,306100
15,092000	0,5	0,301550
15,100333	0,5	0,303750
15,108667	0,5	0,296300
15,117000	0,5	0,293450
15,125333	0,5	0,288750
15,133667	0,5	0,287300
15,142000	0,5	0,282950
15,150333	0,5	0,281500
15,158667	0,5	0,273400
15,167000	0,5	0,267550
15,175333	0,5	0,265300
15,183667	0,5	0,251550
15,192000	0,5	0,251950
15,200333	0,5	0,256600
15,208667	0,5	0,251750
15,217000	0,5	0,245550
15,225333	0,5	0,229100
15,233667	0,5	0,224450
15,242000	0,5	0,223600
15,250333	0,5	0,222700
15,258667	0,5	0,216700
15,267000	0,5	0,213900
15,275333	0,5	0,211200
15,283667	0,5	0,207550
15,292000	0,5	0,209850
15,300333	0,5	0,202150
15,308667	0,5	0,197500
15,317000	0,5	0,191700
15,325333	0,5	0,195350
15,333667	0,5	0,174950
15,342000	0,5	0,188750
15,350333	0,5	0,187900
15,358667	0,5	0,186000
15,367000	0,5	0,174700
15,375333	0,5	0,156450
15,383667	0,5	0,156700
15,392000	0,5	0,157950
15,400333	0,5	0,151300
15,408667	0,5	0,148400
15,417000	0,5	0,141800
15,425333	0,5	0,143300
15,433667	0,5	0,136150
15,442000	0,5	0,133150
15,450333	0,5	0,130650
15,458667	0,5	0,125150
15,467000	0,5	0,124300
15,475333	0,5	0,117750
15,483667	0,5	0,097300
15,492000	0,5	0,105900
15,500333	0,5	0,101850
15,508667	0,5	0,095600
15,517000	0,5	0,088400
15,525333	0,5	0,065650
15,533667	0,5	0,073250
15,542000	0,5	0,069050
15,550333	0,5	0,073450
15,558667	0,5	0,068850
15,567000	0,5	0,070100
15,575333	0,5	0,066700
15,583667	0,5	0,064950
15,592000	0,5	0,060350
15,600333	0,5	0,051700
15,608667	0,5	0,046950
15,617000	0,5	0,044300
15,625333	0,5	0,033800
15,633667	0,5	0,030450
15,642000	0,5	0,036650
15,650333	0,5	0,032200
15,658667	0,5	0,025150
15,667000	0,5	0,009250
15,675333	0,5	-0,000700
15,683667	0,5	-0,005050
15,692000	0,5	-0,000950
15,700333	0,5	-0,003800
15,708667	0,5	-0,000600
15,717000	0,5	-0,010200
15,725333	0,5	-0,008600
15,733667	0,5	-0,013000
15,742000	0,5	-0,014250
15,750333	0,5	-0,016000
15,758667	0,5	-0,021750
15,767000	0,5	-0,026200
15,775333	0,5	-0,036300
15,783667	0,5	-0,033450
15,792000	0,5	-0,029000
15,800333	0,5	-0,040650
15,808667	0,5	-0,050500
15,817000	0,5	-0,064650
15,825333	0,5	-0,070950
15,833667	0,5	-0,074500
15,842000	0,5	-0,076650
15,850333	0,5	-0,072250
15,858667	0,5	-0,075500
15,867000	0,5	-0,074850
15,875333	0,5	-0,078900
15,883667	0,5	-0,079050
15,892000	0,5	-0,088250
15,900333	0,5	-0,091750
15,908667	0,5	-0,093500
15,917000	0,5	-0,097150
15,925333	0,5	-0,112900
15,933667	0,5	-0,104200
15,942000	0,5	-0,104950
15,950333	0,5	-0,110650
15,958667	0,5	-0,125650
15,967000	0,5	-0,139900
15,975333	0,5	-0,140600
15,983667	0,5	-0,142800
15,992000	0,5	-0,141350
16,000333	0,5	-0,146600
16,008667	0,5	-0,150400
16,017000	0,5	-0,155250
16,025333	0,5	-0,153750
16,033667	0,5	-0,161150
16,042000	0,5	-0,161250
16,050333	0,5	-0,162850
16,058667	0,5	-0,156100
16,067000	0,5	-0,174400
16,075333	0,5	-0,174450
16,083667	0,5	-0,174000
16,092000	0,5	-0,171750
16,100333	0,5	-0,185600
16,108667	0,5	-0,204000
16,117000	0,5	-0,210550
16,125333	0,5	-0,209250
16,133667	0,5	-0,211500
16,142000	0,5	-0,216950
16,150333	0,5	-0,218550
16,158667	0,5	-0,220850
16,167000	0,5	-0,219150
16,175333	0,5	-0,227200
16,183667	0,5	-0,225600
16,192000	0,5	-0,238000
16,200333	0,5	-0,239050
16,208667	0,5	-0,235850
16,217000	0,5	-0,253700
16,225333	0,5	-0,252100
16,233667	0,5	-0,248750
16,242000	0,5	-0,258350
16,250333	0,5	-0,264500
16,258667	0,5	-0,287000
16,267000	0,5	-0,286200
16,275333	0,5	-0,290500
16,283667	0,5	-0,294950
16,292000	0,5	-0,301400
16,300333	0,5	-0,300600
16,308667	0,5	-0,304850
16,317000	0,5	-0,304450
16,325333	0,5	-0,307450
16,333667	0,5	-0,315750
16,342000	0,5	-0,317800
16,350333	0,5	-0,322950
16,358667	0,5	-0,316700
16,367000	0,5	-0,335700
16,375333	0,5	-0,322250
16,383667	0,5	-0,326550
16,392000	0,5	-0,335600
16,400333	0,5	-0,347600
16,408667	0,5	-0,367950
16,417000	0,5	-0,363400
16,425333	0,5	-0,365100
16,433667	0,5	-0,372350
16,442000	0,5	-0,378450
16,450333	0,5	-0,380300
16,458667	0,5	-0,383500
16,467000	0,5	-0,385050
16,475333	0,5	-0,389800
16,483667	0,5	-0,394550
16,492000	0,5	-0,396850
16,500333	0,5	-0,392450
16,508667	0,5	-0,397950
16,517000	0,5	-0,409200
16,525333	0,5	-0,402950
16,533667	0,5	-0,406700
16,542000	0,5	-0,415250
16,550333	0,5	-0,424200
16,558667	0,5	-0,443850
16,567000	0,5	-0,439300
16,575333	0,5	-0,448450
16,583667	0,5	-0,442450
16,592000	0,5	-0,449750
16,600333	0,5	-0,448400
16,608667	0,5	-0,452100
16,617000	0,5	-0,449650
16,625333	0,5	-0,455450
16,633667	0,5	-0,461000
16,642000	0,5	-0,456050
16,650333	0,5	-0,456150
16,658667	0,5	-0,469700
16,667000	0,5	-0,467750
16,675333	0,5	-0,463000
16,683667	0,5	-0,474050
16,692000	0,5	-0,486500
16,700333	0,5	-0,502550
16,708667	0,5	-0,510200
16,717000	0,5	-0,511450
16,725333	0,5	-0,507850
16,733667	0,5	-0,513250
16,742000	0,5	-0,514000
16,750333	0,5	-0,518300
16,758667	0,5	-0,517500
16,767000	0,5	-0,524650
16,775333	0,5	-0,526800
16,783667	0,5	-0,529550
16,792000	0,5	-0,521300
16,800333	0,5	-0,528150
16,808667	0,5	-0,537350
16,817000	0,5	-0,535050
16,825333	0,5	-0,533450
16,833667	0,5	-0,543000
16,842000	0,5	-0,556000
16,850333	0,5	-0,568950
16,858667	0,5	-0,574000
16,867000	0,5	-0,573900
16,875333	0,5	-0,576300
16,883667	0,5	-0,574750
16,892000	0,5	-0,578950
16,900333	0,5	-0,576550
16,908667	0,5	-0,579650
16,917000	0,5	-0,580850
16,925333	0,5	-0,586850
16,933667	0,5	-0,588100
16,942000	0,5	-0,585500
16,950333	0,5	-0,594300
16,958667	0,5	-0,603850
16,967000	0,5	-0,593600
16,975333	0,5	-0,599700
16,983667	0,5	-0,602200
16,992000	0,5	-0,617500
17,000333	0,5	-0,626400
17,008667	0,5	-0,624150
17,017000	0,5	-0,632500
17,025333	0,5	-0,630350
17,033667	0,5	-0,633950
17,042000	0,5	-0,635150
17,050333	0,5	-0,636800
17,058667	0,5	-0,636150
17,067000	0,5	-0,642450
17,075333	0,5	-0,643650
17,083667	0,5	-0,643550
17,092000	0,5	-0,635150
17,100333	0,5	-0,657050
17,108667	0,5	-0,651450
17,117000	0,5	-0,652700
17,125333	0,5	-0,653800
17,133667	0,5	-0,666900
17,142000	0,5	-0,685800
17,150333	0,5	-0,685800
17,158667	0,5	-0,683350
17,167000	0,5	-0,687600
17,175333	0,5	-0,686950
17,183667	0,5	-0,687400
17,192000	0,5	-0,690850
17,200333	0,5	-0,686100
17,208667	0,5	-0,690450
17,217000	0,5	-0,682600
17,225333	0,5	-0,693500
17,233667	0,5	-0,684950
17,242000	0,5	-0,681850
17,250333	0,5	-0,704550
17,258667	0,5	-0,690000
17,267000	0,5	-0,691050
17,275333	0,5	-0,696200
17,283667	0,5	-0,702850
17,292000	0,5	-0,722600
17,300333	0,5	-0,719450
17,308667	0,5	-0,723200
17,317000	0,5	-0,719650
17,325333	0,5	-0,726100
17,333667	0,5	-0,724800
17,342000	0,5	-0,728450
17,350333	0,5	-0,726350
17,358667	0,5	-0,731000
17,367000	0,5	-0,735650
17,375333	0,5	-0,736650
17,383667	0,5	-0,734850
17,392000	0,5	-0,735000
17,400333	0,5	-0,745600
17,408667	0,5	-0,730650
17,417000	0,5	-0,739250
17,425333	0,5	-0,745700
17,433667	0,5	-0,759700
17,442000	0,5	-0,772550
17,450333	0,5	-0,769200
17,458667	0,5	-0,763900
17,467000	0,5	-0,766250
17,475333	0,5	-0,762750
17,483667	0,5	-0,766900
17,492000	0,5	-0,765850
17,500333	0,5	-0,765200
17,508667	0,5	-0,764700
17,517000	0,5	-0,764350
17,525333	0,5	-0,765100
17,533667	0,5	-0,761300
17,542000	0,5	-0,766200
17,550333	0,5	-0,766750
17,558667	0,5	-0,759450
17,567000	0,5	-0,761600
17,575333	0,5	-0,769700
17,583667	0,5	-0,779600
17,592000	0,5	-0,789600
17,600333	0,5	-0,777050
17,608667	0,5	-0,781850
17,617000	0,5	-0,776250
17,625333	0,5	-0,782100
17,633667	0,5	-0,775200
17,642000	0,5	-0,775550
17,650333	0,5	-0,767000
17,658667	0,5	-0,769500
17,667000	0,5	-0,767100
17,675333	0,5	-0,750350
17,683667	0,5	-0,752200
17,692000	0,5	-0,764150
17,700333	0,5	-0,753850
17,708667	0,5	-0,751200
17,717000	0,5	-0,751800
17,725333	0,5	-0,763850
17,733667	0,5	-0,775700
17,742000	0,5	-0,774050
17,750333	0,5	-0,772750
17,758667	0,5	-0,760400
17,767000	0,5	-0,761500
17,775333	0,5	-0,751150
17,783667	0,5	-0,755600
17,792000	0,5	-0,746250
17,800333	0,5	-0,744700
17,808667	0,5	-0,741550
17,817000	0,5	-0,737100
17,825333	0,5	-0,724150
17,833667	0,5	-0,728250
17,842000	0,5	-0,728300
17,850333	0,5	-0,716100
17,858667	0,5	-0,707600
17,867000	0,5	-0,706050
17,875333	0,5	-0,716300
17,883667	0,5	-0,711700
17,892000	0,5	-0,710100
17,900333	0,5	-0,696500
17,908667	0,5	-0,700500
17,917000	0,5	-0,696050
17,925333	0,5	-0,701050
17,933667	0,5	-0,699300
17,942000	0,5	-0,704950
17,950333	0,5	-0,701400
17,958667	0,5	-0,706250
17,967000	0,5	-0,702800
17,975333	0,5	-0,697300
17,983667	0,5	-0,713650
17,992000	0,5	-0,710250
18,000333	0,5	-0,702250
18,008667	0,5	-0,708100
18,017000	0,5	-0,709300
18,025333	0,5	-0,731200
18,033667	0,5	-0,729550
18,042000	0,5	-0,723950
18,050333	0,5	-0,725850
18,058667	0,5	-0,722950
18,067000	0,5	-0,723600
18,075333	0,5	-0,720500
18,083667	0,5	-0,723450
18,092000	0,5	-0,717250
18,100333	0,5	-0,725500
18,108667	0,5	-0,724150
18,117000	0,5	-0,717750
18,125333	0,5	-0,713500
18,133667	0,5	-0,733850
18,142000	0,5	-0,718750
18,150333	0,5	-0,718900
18,158667	0,5	-0,728100
18,167000	0,5	-0,737550
18,175333	0,5	-0,756350
18,183667	0,5	-0,752850
18,192000	0,5	-0,747650
18,200333	0,5	-0,754250
18,208667	0,5	-0,756950
18,217000	0,5	-0,764100
18,225333	0,5	-0,767750
18,233667	0,5	-0,764750
18,242000	0,5	-0,771400
18,250333	0,5	-0,768350
18,258667	0,5	-0,775150
18,267000	0,5	-0,770900
18,275333	0,5	-0,781400
18,283667	0,5	-0,787050
18,292000	0,5	-0,781050
18,300333	0,5	-0,784000
18,308667	0,5	-0,796450
18,317000	0,5	-0,807050
18,325333	0,5	-0,822450
18,333667	0,5	-0,823700
18,342000	0,5	-0,828200
18,350333	0,5	-0,833000
18,358667	0,5	-0,836850
18,367000	0,5	-0,835800
18,375333	0,5	-0,843200
18,383667	0,5	-0,849200
18,392000	0,5	-0,853700
18,400333	0,5	-0,863800
18,408667	0,5	-0,864250
18,417000	0,5	-0,867600
18,425333	0,5	-0,874900
18,433667	0,5	-0,875300
18,442000	0,5	-0,871700
18,450333	0,5	-0,885750
18,458667	0,5	-0,895600
18,467000	0,5	-0,916300
18,475333	0,5	-0,925150
18,483667	0,5	-0,930550
18,492000	0,5	-0,930600
18,500333	0,5	-0,938100
18,508667	0,5	-0,943200
18,517000	0,5	-0,947950
18,525333	0,5	-0,945900
18,533667	0,5	-0,959500
18,542000	0,5	-0,966850
18,550333	0,5	-0,969350
18,558667	0,5	-0,971950
18,567000	0,5	-0,976700
18,575333	0,5	-0,996000
18,583667	0,5	-0,989050
18,592000	0,5	-0,996050
18,600333	0,5	-1,001700
18,608667	0,5	-1,019900
18,617000	0,5	-1,037300
18,625333	0,5	-1,048650
18,633667	0,5	-1,044600
18,642000	0,5	-1,054000
18,650333	0,5	-1,050700
18,658667	0,5	-1,065550
18,667000	0,5	-1,064750
18,675333	0,5	-1,071050
18,683667	0,5	-1,075500
18,692000	0,5	-1,081450
18,700333	0,5	-1,081100
18,708667	0,5	-1,077250
18,717000	0,5	-1,093650
18,725333	0,5	-1,100000
18,733667	0,5	-1,096750
18,742000	0,5	-1,103650
18,750333	0,5	-1,113600
18,758667	0,5	-1,135600
18,767000	0,5	-1,149100
18,775333	0,5	-1,152150
18,783667	0,5	-1,159450
18,792000	0,5	-1,159150
18,800333	0,5	-1,166500
18,808667	0,5	-1,164650
18,817000	0,5	-1,174400
18,825333	0,5	-1,172900
18,833667	0,5	-1,177400
18,842000	0,5	-1,178450
18,850333	0,5	-1,173950
18,858667	0,5	-1,168800
18,867000	0,5	-1,195750
18,875333	0,5	-1,186050
18,883667	0,5	-1,186550
18,892000	0,5	-1,197000
18,900333	0,5	-1,204750
18,908667	0,5	-1,227300
18,917000	0,5	-1,225450
18,925333	0,5	-1,230350
18,933667	0,5	-1,227200
18,942000	0,5	-1,235750
18,950333	0,5	-1,231150
18,958667	0,5	-1,238450
18,967000	0,5	-1,237400
18,975333	0,5	-1,246700
18,983667	0,5	-1,246900
18,992000	0,5	-1,249250
19,000333	0,5	-1,241300
19,008667	0,5	-1,247400
19,017000	0,5	-1,267450
19,025333	0,5	-1,263950
19,033667	0,5	-1,265200
19,042000	0,5	-1,279050
19,050333	0,5	-1,287550
19,058667	0,5	-1,315250
19,067000	0,5	-1,318200
19,075333	0,5	-1,321250
19,083667	0,5	-1,329900
19,092000	0,5	-1,334150
19,100333	0,5	-1,347350
19,108667	0,5	-1,348900
19,117000	0,5	-1,359750
19,125333	0,5	-1,359400
19,133667	0,5	-1,374400
19,142000	0,5	-1,378900
19,150333	0,5	-1,379100
19,158667	0,5	-1,389550
19,167000	0,5	-1,402450
19,175333	0,5	-1,401000
19,183667	0,5	-1,410400
19,192000	0,5	-1,426550
19,200333	0,5	-1,452550
19,208667	0,5	-1,462200
19,217000	0,5	-1,460400
19,225333	0,5	-1,467950
19,233667	0,5	-1,474850
19,242000	0,5	-1,479450
19,250333	0,5	-1,487000
19,258667	0,5	-1,490550
19,267000	0,5	-1,493700
19,275333	0,5	-1,501550
19,283667	0,5	-1,501450
19,292000	0,5	-1,500550
19,300333	0,5	-1,498600
19,308667	0,5	-1,522350
19,317000	0,5	-1,516450
19,325333	0,5	-1,521450
19,333667	0,5	-1,522950
19,342000	0,5	-1,543350
19,350333	0,5	-1,558350
19,358667	0,5	-1,561450
19,367000	0,5	-1,559450
19,375333	0,5	-1,562800
19,383667	0,5	-1,565150
19,392000	0,5	-1,571500
19,400333	0,5	-1,576200
19,408667	0,5	-1,575300
19,417000	0,5	-1,584150
19,425333	0,5	-1,591250
19,433667	0,5	-1,603150
19,442000	0,5	-1,590900
19,450333	0,5	-1,598800
19,458667	0,5	-1,614650
19,467000	0,5	-1,611350
19,475333	0,5	-1,612850
19,483667	0,5	-1,625050
19,492000	0,5	-1,640000
19,500333	0,5	-1,657750
19,508667	0,5	-1,659650
19,517000	0,5	-1,663850
19,525333	0,5	-1,659100
19,533667	0,5	-1,665550
19,542000	0,5	-1,663200
19,550333	0,5	-1,671300
19,558667	0,5	-1,673750
19,567000	0,5	-1,673650
19,575333	0,5	-1,679550
19,583667	0,5	-1,678100
19,592000	0,5	-1,678450
19,600333	0,5	-1,688300
19,608667	0,5	-1,697900
19,617000	0,5	-1,690500
19,625333	0,5	-1,701200
19,633667	0,5	-1,708150
19,642000	0,5	-1,730550
19,650333	0,5	-1,739300
19,658667	0,5	-1,742900
19,667000	0,5	-1,741350
19,675333	0,5	-1,751850
19,683667	0,5	-1,747450
19,692000	0,5	-1,753150
19,700333	0,5	-1,750850
19,708667	0,5	-1,756200
19,717000	0,5	-1,764600
19,725333	0,5	-1,767400
19,733667	0,5	-1,758950
19,742000	0,5	-1,761700
19,750333	0,5	-1,778550
19,758667	0,5	-1,771050
19,767000	0,5	-1,771400
19,775333	0,5	-1,778550
19,783667	0,5	-1,795300
19,792000	0,5	-1,812300
19,800333	0,5	-1,818250
19,808667	0,5	-1,814550
19,817000	0,5	-1,822550
19,825333	0,5	-1,822250
19,833667	0,5	-1,827300
19,842000	0,5	-1,826350
19,850333	0,5	-1,827350
19,858667	0,5	-1,832600
19,867000	0,5	-1,836150
19,875333	0,5	-1,839250
19,883667	0,5	-1,826600
19,892000	0,5	-1,837300
19,900333	0,5	-1,845400
19,908667	0,5	-1,842500
19,917000	0,5	-1,845900
19,925333	0,5	-1,856150
19,933667	0,5	-1,871400
19,942000	0,5	-1,881150
19,950333	0,5	-1,876550
19,958667	0,5	-1,884100
19,967000	0,5	-1,883700
19,975333	0,5	-1,893500
19,983667	0,5	-1,888900
19,992000	0,5	-1,894550
20,000333	0,5	-1,889600
20,008667	0,5	-1,897450
20,017000	0,5	-1,901100
20,025333	0,5	-1,898400
20,033667	0,5	-1,892000
20,042000	0,5	-1,915650
20,050333	0,5	-1,908800
20,058667	0,5	-1,905900
20,067000	0,5	-1,912500
20,075333	0,5	-1,920000
20,083667	0,5	-1,944250
20,092000	0,5	-1,938700
20,100333	0,5	-1,950550
20,108667	0,5	-1,952050
20,117000	0,5	-1,962450
20,125333	0,5	-1,959500
20,133667	0,5	-1,969600
20,142000	0,5	-1,965350
20,150333	0,5	-1,975950
20,158667	0,5	-1,979250
20,167000	0,5	-1,983400
20,175333	0,5	-1,982500
20,183667	0,5	-1,980850
20,192000	0,5	-2,000150
20,200333	0,5	-1,987650
20,208667	0,5	-1,991600
20,217000	0,5	-1,992550
20,225333	0,5	-2,007950
20,233667	0,5	-2,022650
20,242000	0,5	-2,020000
20,250333	0,5	-2,010300
20,258667	0,5	-2,018600
20,267000	0,5	-2,011350
20,275333	0,5	-2,014100
20,283667	0,5	-2,008350
20,292000	0,5	-2,010200
20,300333	0,5	-2,006500
20,308667	0,5	-2,007900
20,317000	0,5	-1,997600
20,325333	0,5	-1,984450
20,333667	0,5	-1,985300
20,342000	0,5	-1,991000
20,350333	0,5	-1,977500
20,358667	0,5	-1,979850
20,367000	0,5	-1,985200
20,375333	0,5	-1,995750
20,383667	0,5	-2,008700
20,392000	0,5	-2,002950
20,400333	0,5	-2,002700
20,408667	0,5	-1,997050
20,417000	0,5	-1,999950
20,425333	0,5	-1,992800
20,433667	0,5	-1,996700
20,442000	0,5	-1,991150
20,450333	0,5	-1,988450
20,458667	0,5	-1,989750
20,467000	0,5	-1,969250
20,475333	0,5	-1,958900
20,483667	0,5	-1,966250
20,492000	0,5	-1,964450
20,500333	0,5	-1,966800
20,508667	0,5	-1,970100
20,517000	0,5	-1,980450
20,525333	0,5	-1,992400
20,533667	0,5	-1,992150
20,542000	0,5	-1,993300
20,550333	0,5	-1,980250
20,558667	0,5	-1,977950
20,567000	0,5	-1,967750
20,575333	0,5	-1,968050
20,583667	0,5	-1,959700
20,592000	0,5	-1,955650
20,600333	0,5	-1,951800
20,608667	0,5	-1,942500
20,617000	0,5	-1,918650
20,625333	0,5	-1,914750
20,633667	0,5	-1,923500
20,642000	0,5	-1,926050
20,650333	0,5	-1,930350
20,658667	0,5	-1,941600
20,667000	0,5	-1,965650
20,675333	0,5	-1,979400
20,683667	0,5	-1,983150
20,692000	0,5	-1,983200
20,700333	0,5	-1,990850
20,708667	0,5	-1,989150
20,717000	0,5	-1,993800
20,725333	0,5	-1,994000
20,733667	0,5	-1,996900
20,742000	0,5	-1,994800
20,750333	0,5	-2,003150
20,758667	0,5	-1,988900
20,767000	0,5	-1,975250
20,775333	0,5	-1,981500
20,783667	0,5	-1,987050
20,792000	0,5	-1,986500
20,800333	0,5	-1,999900
20,808667	0,5	-2,002450
20,817000	0,5	-2,025150
20,825333	0,5	-2,024750
20,833667	0,5	-2,022600
20,842000	0,5	-2,025900
20,850333	0,5	-2,023300
20,858667	0,5	-2,021850
20,867000	0,5	-2,020450
20,875333	0,5	-2,018050
20,883667	0,5	-2,009850
20,892000	0,5	-2,011900
20,900333	0,5	-2,001350
20,908667	0,5	-1,975400
20,917000	0,5	-1,957200
20,925333	0,5	-1,965850
20,933667	0,5	-1,961200
20,942000	0,5	-1,964750
20,950333	0,5	-1,969250
20,958667	0,5	-1,980800
20,967000	0,5	-1,992150
20,975333	0,5	-1,981550
20,983667	0,5	-1,973800
20,992000	0,5	-1,971750
21,000333	0,5	-1,966350
21,008667	0,5	-1,960300
21,017000	0,5	-1,955950
21,025333	0,5	-1,946900
21,033667	0,5	-1,940900
21,042000	0,5	-1,931700
21,050333	0,5	-1,922800
21,058667	0,5	-1,895350
21,067000	0,5	-1,888850
21,075333	0,5	-1,898000
21,083667	0,5	-1,896550
21,092000	0,5	-1,895750
21,100333	0,5	-1,906450
21,108667	0,5	-1,919100
21,117000	0,5	-1,920800
21,125333	0,5	-1,916400
21,133667	0,5	-1,915100
21,142000	0,5	-1,910700
21,150333	0,5	-1,909350
21,158667	0,5	-1,905850
21,167000	0,5	-1,896250
21,175333	0,5	-1,893550
21,183667	0,5	-1,887800
21,192000	0,5	-1,885800
21,200333	0,5	-1,857250
21,208667	0,5	-1,838700
21,217000	0,5	-1,838900
21,225333	0,5	-1,839700
21,233667	0,5	-1,834700
21,242000	0,5	-1,839900
21,250333	0,5	-1,845300
21,258667	0,5	-1,855550
21,267000	0,5	-1,844500
21,275333	0,5	-1,836650
21,283667	0,5	-1,827850
21,292000	0,5	-1,821150
21,300333	0,5	-1,811500
21,308667	0,5	-1,804200
21,317000	0,5	-1,793600
21,325333	0,5	-1,778700
21,333667	0,5	-1,776150
21,342000	0,5	-1,760900
21,350333	0,5	-1,725300
21,358667	0,5	-1,707200
21,367000	0,5	-1,708150
21,375333	0,5	-1,704050
21,383667	0,5	-1,709250
21,392000	0,5	-1,712150
21,400333	0,5	-1,721800
21,408667	0,5	-1,719850
21,417000	0,5	-1,710500
21,425333	0,5	-1,701500
21,433667	0,5	-1,694100
21,442000	0,5	-1,682150
21,450333	0,5	-1,672600
21,458667	0,5	-1,664050
21,467000	0,5	-1,651350
21,475333	0,5	-1,643600
21,483667	0,5	-1,631500
21,492000	0,5	-1,608050
21,500333	0,5	-1,584900
21,508667	0,5	-1,575200
21,517000	0,5	-1,569300
21,525333	0,5	-1,564050
21,533667	0,5	-1,560850
21,542000	0,5	-1,570350
21,550333	0,5	-1,564200
21,558667	0,5	-1,554000
21,567000	0,5	-1,535800
21,575333	0,5	-1,514300
21,583667	0,5	-1,491000
21,592000	0,5	-1,462250
21,600333	0,5	-1,436850
21,608667	0,5	-1,405800
21,617000	0,5	-1,373350
21,625333	0,5	-1,344750
21,633667	0,5	-1,313650
21,642000	0,5	-1,271500
21,650333	0,5	-1,263050
21,658667	0,5	-1,274000
21,667000	0,5	-1,284900
21,675333	0,5	-1,289600
21,683667	0,5	-1,298400
21,692000	0,5	-1,298000
21,700333	0,5	-1,295200
21,708667	0,5	-1,276100
21,717000	0,5	-1,267500
21,725333	0,5	-1,245100
21,733667	0,5	-1,230800
21,742000	0,5	-1,212850
21,750333	0,5	-1,194200
21,758667	0,5	-1,172800
21,767000	0,5	-1,153650
21,775333	0,5	-1,132900
21,783667	0,5	-1,094800
21,792000	0,5	-1,054450
21,800333	0,5	-1,039100
21,808667	0,5	-1,016050
21,817000	0,5	-0,985500
21,825333	0,5	-0,966200
21,833667	0,5	-0,941000
21,842000	0,5	-0,935100
21,850333	0,5	-0,896350
21,858667	0,5	-0,867800
21,867000	0,5	-0,834200
21,875333	0,5	-0,804750
21,883667	0,5	-0,774050
21,892000	0,5	-0,748100
21,900333	0,5	-0,727250
21,908667	0,5	-0,705450
21,917000	0,5	-0,691500
21,925333	0,5	-0,663200
21,933667	0,5	-0,628450
21,942000	0,5	-0,604100
21,950333	0,5	-0,592650
21,958667	0,5	-0,558600
21,967000	0,5	-0,539400
21,975333	0,5	-0,519350
21,983667	0,5	-0,507300
21,992000	0,5	-0,482700
22,000333	0,5	-0,449600
22,008667	0,5	-0,414350
22,017000	0,5	-0,387700
22,025333	0,5	-0,352600
22,033667	0,5	-0,313900
22,042000	0,5	-0,282900
22,050333	0,5	-0,247250
22,058667	0,5	-0,217650
22,067000	0,5	-0,183600
22,075333	0,5	-0,151600
22,083667	0,5	-0,101050
22,092000	0,5	-0,083350
22,100333	0,5	-0,033700
22,108667	0,5	0,007800
22,117000	0,5	0,055450
22,125333	0,5	0,091500
22,133667	0,5	0,131800
22,142000	0,5	0,176400
22,150333	0,5	0,232450
22,158667	0,5	0,287350
22,167000	0,5	0,349250
22,175333	0,5	0,405550
22,183667	0,5	0,465700
22,192000	0,5	0,529450
22,200333	0,5	0,593050
22,208667	0,5	0,654050
22,217000	0,5	0,712000
22,225333	0,5	0,763550
22,233667	0,5	0,813500
22,242000	0,5	0,871250
22,250333	0,5	0,937500
22,258667	0,5	0,991800
22,267000	0,5	1,036100
22,275333	0,5	1,079150
22,283667	0,5	1,116150
22,292000	0,5	1,178500
22,300333	0,5	1,233050
22,308667	0,5	1,295550
22,317000	0,5	1,347200
22,325333	0,5	1,392500
22,333667	0,5	1,434250
22,342000	0,5	1,483550
22,350333	0,5	1,532050
22,358667	0,5	1,578550
22,367000	0,5	1,630600
22,375333	0,5	1,664350
22,383667	0,5	1,720850
22,392000	0,5	1,792700
22,400333	0,5	1,867100
22,408667	0,5	1,921900
22,417000	0,5	1,984700
22,425333	0,5	2,032750
22,433667	0,5	2,097450
22,442000	0,5	2,174750
22,450333	0,5	2,253600
22,458667	0,5	2,327200
22,467000	0,5	2,406250
22,475333	0,5	2,476750
22,483667	0,5	2,557800
22,492000	0,5	2,633400
22,500333	0,5	2,701900
22,508667	0,5	2,775450
22,517000	0,5	2,817250
22,525333	0,5	2,888550
22,533667	0,5	2,963900
22,542000	0,5	3,049050
22,550333	0,5	3,112550
22,558667	0,5	3,170500
22,567000	0,5	3,214050
22,575333	0,5	3,254300
22,583667	0,5	3,296750
22,592000	0,5	3,349600
22,600333	0,5	3,384800
22,608667	0,5	3,421600
22,617000	0,5	3,444700
22,625333	0,5	3,471500
22,633667	0,5	3,488100
22,642000	0,5	3,497650
22,650333	0,5	3,498250
22,658667	0,5	3,471800
22,667000	0,5	3,427100
22,675333	0,5	3,397850
22,683667	0,5	3,388700
22,692000	0,5	3,345350
22,700333	0,5	3,284000
22,708667	0,5	3,207650
22,717000	0,5	3,115500
22,725333	0,5	3,034500
22,733667	0,5	2,962600
22,742000	0,5	2,880300
22,750333	0,5	2,803900
22,758667	0,5	2,720150
22,767000	0,5	2,636100
22,775333	0,5	2,534300
22,783667	0,5	2,421650
22,792000	0,5	2,286950
22,800333	0,5	2,135800
22,808667	0,5	1,938450
22,817000	0,5	1,755450
22,825333	0,5	1,583800
22,833667	0,5	1,424850
22,842000	0,5	1,236700
22,850333	0,5	1,045850
22,858667	0,5	0,861800
22,867000	0,5	0,689650
22,875333	0,5	0,502050
22,883667	0,5	0,335200
22,892000	0,5	0,159950
22,900333	0,5	0,001900
22,908667	0,5	-0,162400
22,917000	0,5	-0,308750
22,925333	0,5	-0,469800
22,933667	0,5	-0,623550
22,942000	0,5	-0,767800
22,950333	0,5	-0,911850
22,958667	0,5	-1,055200
22,967000	0,5	-1,188100
22,975333	0,5	-1,336150
22,983667	0,5	-1,495500
22,992000	0,5	-1,614550
23,000333	0,5	-1,726150
23,008667	0,5	-1,828900
23,017000	0,5	-1,928600
23,025333	0,5	-2,026500
23,033667	0,5	-2,119000
23,042000	0,5	-2,189300
23,050333	0,5	-2,269950
23,058667	0,5	-2,333450
23,067000	0,5	-2,405900
23,075333	0,5	-2,469450
23,083667	0,5	-2,531600
23,092000	0,5	-2,591100
23,100333	0,5	-2,619050
23,108667	0,5	-2,682750
23,117000	0,5	-2,726900
23,125333	0,5	-2,792800
23,133667	0,5	-2,853250
23,142000	0,5	-2,890150
23,150333	0,5	-2,910400
23,158667	0,5	-2,927900
23,167000	0,5	-2,937100
23,175333	0,5	-2,956000
23,183667	0,5	-2,957850
23,192000	0,5	-2,961700
23,200333	0,5	-2,953950
23,208667	0,5	-2,958150
23,217000	0,5	-2,946900
23,225333	0,5	-2,947950
23,233667	0,5	-2,936950
23,242000	0,5	-2,935400
23,250333	0,5	-2,943100
23,258667	0,5	-2,923750
23,267000	0,5	-2,904150
23,275333	0,5	-2,922400
23,283667	0,5	-2,934550
23,292000	0,5	-2,925600
23,300333	0,5	-2,905850
23,308667	0,5	-2,885400
23,317000	0,5	-2,868600
23,325333	0,5	-2,844650
23,333667	0,5	-2,821250
23,342000	0,5	-2,792550
23,350333	0,5	-2,765350
23,358667	0,5	-2,730950
23,367000	0,5	-2,704900
23,375333	0,5	-2,671700
23,383667	0,5	-2,645700
23,392000	0,5	-2,617550
23,400333	0,5	-2,639900
23,408667	0,5	-2,600950
23,417000	0,5	-2,536200
23,425333	0,5	-2,533150
23,433667	0,5	-2,531950
23,442000	0,5	-2,517450
23,450333	0,5	-2,498900
23,458667	0,5	-2,480200
23,467000	0,5	-2,461850
23,475333	0,5	-2,445500
23,483667	0,5	-2,431850
23,492000	0,5	-2,407900
23,500333	0,5	-2,391600
23,508667	0,5	-2,369000
23,517000	0,5	-2,352250
23,525333	0,5	-2,336450
23,533667	0,5	-2,316850
23,542000	0,5	-2,339200
23,550333	0,5	-2,378050
23,558667	0,5	-2,325200
23,567000	0,5	-2,266900
23,575333	0,5	-2,248550
23,583667	0,5	-2,244000
23,592000	0,5	-2,238000
23,600333	0,5	-2,232600
23,608667	0,5	-2,224850
23,617000	0,5	-2,217450
23,625333	0,5	-2,207550
23,633667	0,5	-2,197850
23,642000	0,5	-2,190400
23,650333	0,5	-2,183200
23,658667	0,5	-2,175950
23,667000	0,5	-2,169400
23,675333	0,5	-2,166100
23,683667	0,5	-2,166800
23,692000	0,5	-2,288800
23,700333	0,5	-2,253650
23,708667	0,5	-2,245900
23,717000	0,5	-2,181650
23,725333	0,5	-2,175300
23,733667	0,5	-2,171850
23,742000	0,5	-2,175050
23,750333	0,5	-2,180750
23,758667	0,5	-2,170950
23,767000	0,5	-2,158400
23,775333	0,5	-2,150650
23,783667	0,5	-2,137350
23,792000	0,5	-2,132100
23,800333	0,5	-2,122850
23,808667	0,5	-2,111750
23,817000	0,5	-2,101600
23,825333	0,5	-2,096000
23,833667	0,5	-2,119100
23,842000	0,5	-2,225850
23,850333	0,5	-2,196950
23,858667	0,5	-2,158750
23,867000	0,5	-2,111250
23,875333	0,5	-2,094850
23,883667	0,5	-2,096100
23,892000	0,5	-2,096250
23,900333	0,5	-2,110350
23,908667	0,5	-2,094700
23,917000	0,5	-2,091450
23,925333	0,5	-2,084300
23,933667	0,5	-2,076300
23,942000	0,5	-2,060800
23,950333	0,5	-2,053350
23,958667	0,5	-2,040650
23,967000	0,5	-2,030050
23,975333	0,5	-2,022550
23,983667	0,5	-2,107050
23,992000	0,5	-2,131200
24,000333	0,5	-2,094700
24,008667	0,5	-2,039050
24,017000	0,5	-1,999250
24,025333	0,5	-1,982750
24,033667	0,5	-1,974850
24,042000	0,5	-1,977800
24,050333	0,5	-1,970350
24,058667	0,5	-1,949100
24,067000	0,5	-1,928650
24,075333	0,5	-1,921200
24,083667	0,5	-1,901450
24,092000	0,5	-1,891900
24,100333	0,5	-1,870650
24,108667	0,5	-1,861200
24,117000	0,5	-1,847600
24,125333	0,5	-1,840850
24,133667	0,5	-1,944500
24,142000	0,5	-1,915000
24,150333	0,5	-1,888450
24,158667	0,5	-1,846250
24,167000	0,5	-1,813500
24,175333	0,5	-1,806650
24,183667	0,5	-1,795850
24,192000	0,5	-1,800150
24,200333	0,5	-1,796950
24,208667	0,5	-1,769450
24,217000	0,5	-1,755550
24,225333	0,5	-1,733500
24,233667	0,5	-1,718450
24,242000	0,5	-1,696750
24,250333	0,5	-1,678350
24,258667	0,5	-1,653600
24,267000	0,5	-1,641400
24,275333	0,5	-1,641000
24,283667	0,5	-1,707300
24,292000	0,5	-1,671800
24,300333	0,5	-1,642700
24,308667	0,5	-1,595750
24,317000	0,5	-1,574250
24,325333	0,5	-1,560300
24,333667	0,5	-1,562750
24,342000	0,5	-1,564700
24,350333	0,5	-1,552750
24,358667	0,5	-1,538650
24,367000	0,5	-1,524250
24,375333	0,5	-1,510800
24,383667	0,5	-1,494500
24,392000	0,5	-1,481550
24,400333	0,5	-1,464350
24,408667	0,5	-1,450950
24,417000	0,5	-1,436650
24,425333	0,5	-1,467200
24,433667	0,5	-1,476650
24,442000	0,5	-1,463950
24,450333	0,5	-1,425100
24,458667	0,5	-1,394200
24,467000	0,5	-1,371500
24,475333	0,5	-1,363650
24,483667	0,5	-1,364400
24,492000	0,5	-1,356900
24,500333	0,5	-1,337600
24,508667	0,5	-1,323450
24,517000	0,5	-1,306800
24,525333	0,5	-1,293350
24,533667	0,5	-1,279450
24,542000	0,5	-1,263600
24,550333	0,5	-1,250300
24,558667	0,5	-1,235450
24,567000	0,5	-1,228900
24,575333	0,5	-1,264200
24,583667	0,5	-1,252750
24,592000	0,5	-1,241250
24,600333	0,5	-1,216500
24,608667	0,5	-1,195800
24,617000	0,5	-1,186050
24,625333	0,5	-1,178650
24,633667	0,5	-1,183450
24,642000	0,5	-1,173200
24,650333	0,5	-1,165000
24,658667	0,5	-1,151100
24,667000	0,5	-1,139650
24,675333	0,5	-1,127950
24,683667	0,5	-1,114200
24,692000	0,5	-1,099950
24,700333	0,5	-1,086300
24,708667	0,5	-1,076850
24,717000	0,5	-1,072450
24,725333	0,5	-1,095900
24,733667	0,5	-1,071200
24,742000	0,5	-1,063150
24,750333	0,5	-1,037100
24,758667	0,5	-1,026400
24,767000	0,5	-1,019050
24,775333	0,5	-1,014900
24,783667	0,5	-1,017650
24,792000	0,5	-1,007200
24,800333	0,5	-0,991750
24,808667	0,5	-0,986100
24,817000	0,5	-0,977850
24,825333	0,5	-0,975000
24,833667	0,5	-0,965800
24,842000	0,5	-0,960200
24,850333	0,5	-0,950950
24,858667	0,5	-0,946450
24,867000	0,5	-0,956950
24,875333	0,5	-0,953600
24,883667	0,5	-0,943900
24,892000	0,5	-0,931350
24,900333	0,5	-0,916800
24,908667	0,5	-0,905650
24,917000	0,5	-0,900850
24,925333	0,5	-0,896000
24,933667	0,5	-0,894100
24,942000	0,5	-0,880000
24,950333	0,5	-0,874350
24,958667	0,5	-0,867600
24,967000	0,5	-0,862650
24,975333	0,5	-0,852100
24,983667	0,5	-0,846650
24,992000	0,5	-0,837250
25,000333	0,5	-0,832750
25,008667	0,5	-0,828350
25,017000	0,5	-0,836450
25,025333	0,5	-0,827100
25,033667	0,5	-0,823900
25,042000	0,5	-0,814100
25,050333	0,5	-0,808200
25,058667	0,5	-0,804800
25,067000	0,5	-0,801500
25,075333	0,5	-0,804650
25,083667	0,5	-0,802150
25,092000	0,5	-0,797150
25,100333	0,5	-0,789550
25,108667	0,5	-0,786350
25,117000	0,5	-0,777150
25,125333	0,5	-0,772550
25,133667	0,5	-0,762350
25,142000	0,5	-0,758700
25,150333	0,5	-0,753050
25,158667	0,5	-0,748350
25,167000	0,5	-0,747100
25,175333	0,5	-0,741950
25,183667	0,5	-0,738650
25,192000	0,5	-0,730500
25,200333	0,5	-0,725650
25,208667	0,5	-0,722800
25,217000	0,5	-0,722550
25,225333	0,5	-0,721600
25,233667	0,5	-0,718900
25,242000	0,5	-0,717050
25,250333	0,5	-0,716100
25,258667	0,5	-0,716200
25,267000	0,5	-0,713100
25,275333	0,5	-0,710500
25,283667	0,5	-0,708800
25,292000	0,5	-0,704750
25,300333	0,5	-0,702100
25,308667	0,5	-0,701350
25,317000	0,5	-0,698600
25,325333	0,5	-0,693200
25,333667	0,5	-0,691250
25,342000	0,5	-0,686850
25,350333	0,5	-0,682850
25,358667	0,5	-0,680300
25,367000	0,5	-0,678350
25,375333	0,5	-0,674000
25,383667	0,5	-0,673850
25,392000	0,5	-0,672850
25,400333	0,5	-0,667050
25,408667	0,5	-0,664900
25,417000	0,5	-0,663700
25,425333	0,5	-0,663000
25,433667	0,5	-0,660900
25,442000	0,5	-0,657650
25,450333	0,5	-0,657250
25,458667	0,5	-0,655850
25,467000	0,5	-0,655700
25,475333	0,5	-0,649600
25,483667	0,5	-0,651900
25,492000	0,5	-0,652300
25,500333	0,5	-0,655450
25,508667	0,5	-0,651750
25,517000	0,5	-0,648600
25,525333	0,5	-0,645400
25,533667	0,5	-0,646300
25,542000	0,5	-0,642600
25,550333	0,5	-0,640950
25,558667	0,5	-0,637750
25,567000	0,5	-0,635700
25,575333	0,5	-0,633550
25,583667	0,5	-0,631500
25,592000	0,5	-0,628550
25,600333	0,5	-0,625550
25,608667	0,5	-0,620300
25,617000	0,5	-0,620150
25,625333	0,5	-0,611000
25,633667	0,5	-0,621150
25,642000	0,5	-0,621300
25,650333	0,5	-0,618550
25,658667	0,5	-0,617650
25,667000	0,5	-0,610800
25,675333	0,5	-0,611850
25,683667	0,5	-0,606150
25,692000	0,5	-0,606700
25,700333	0,5	-0,603800
25,708667	0,5	-0,603650
25,717000	0,5	-0,599400
25,725333	0,5	-0,599000
25,733667	0,5	-0,595700
25,742000	0,5	-0,592350
25,750333	0,5	-0,586950
25,758667	0,5	-0,584250
25,767000	0,5	-0,581000
25,775333	0,5	-0,573700
25,783667	0,5	-0,581450
25,792000	0,5	-0,581650
25,800333	0,5	-0,578350
25,808667	0,5	-0,571200
25,817000	0,5	-0,560650
25,825333	0,5	-0,567000
25,833667	0,5	-0,567750
25,842000	0,5	-0,566900
25,850333	0,5	-0,564950
25,858667	0,5	-0,565050
25,867000	0,5	-0,568400
25,875333	0,5	-0,566200
25,883667	0,5	-0,566200
25,892000	0,5	-0,563850
25,900333	0,5	-0,562500
25,908667	0,5	-0,559850
25,917000	0,5	-0,557050
25,925333	0,5	-0,553500
25,933667	0,5	-0,559300
25,942000	0,5	-0,556750
25,950333	0,5	-0,553950
25,958667	0,5	-0,548750
25,967000	0,5	-0,537000
25,975333	0,5	-0,540600
25,983667	0,5	-0,539050
25,992000	0,5	-0,538800
26,000333	0,5	-0,534500
