File Path	chrom://chromeleon01/ikbm_chromeleon/2022/ICS-5000/ED1/Esteban/20220612_Cell_7_4_eg.seq/371.smp/ED_1.channel/ED_1.chm
Channel	ED_1

Injection Information:
Data Vault	ikbm_chromeleon
Injection	CelS2_02h-EGS_2
Injection Number	101
Position	BA2
Comment	
Processing Method	Stop sequence after Cell Death
Instrument Method	ICS5000_PA200_FullNative_Ox_26min_ED1
Type	Unknown
Status	Finished
Injection Date	14.06.2022
Injection Time	15:45:46
Injection Volume (µl)	5,0
Dilution Factor	1,0000
Weight	1,0000

Chromatogram Data Information:
Time Min. (min)	0,000167
Time Max. (min)	26,000167
Data Points	3121
Detector	EDet1
Generating Data System	Chromeleon 7.2.9.11323
Exporting Data System	Chromeleon 7.2.9.0
Operator	Instrument Controller
Signal Quantity	
Signal Unit	nC
Signal Min.	-2,804100
Signal Max.	55,258351
Channel	ED_1
Driver Name	DC-5000
Channel Type	Evaluation
Min. Step (s)	0,5
Max. Step (s)	0,5
Average Step (s)	0,5

Signal Parameter Information:
Signal Info	

Chromatogram Data:
Time (min)	Step (s)	Value (nC)
0,000167	n.a.	-0,015250
0,008500	0,5	-0,069950
0,016833	0,5	-0,060550
0,025167	0,5	-0,055400
0,033500	0,5	-0,030000
0,041833	0,5	0,015000
0,050167	0,5	-0,000500
0,058500	0,5	0,001650
0,066833	0,5	0,002350
0,075167	0,5	0,008400
0,083500	0,5	0,003450
0,091833	0,5	0,003850
0,100167	0,5	-0,008450
0,108500	0,5	-0,004650
0,116833	0,5	-0,015950
0,125167	0,5	-0,008450
0,133500	0,5	-0,032350
0,141833	0,5	-0,024350
0,150167	0,5	-0,009500
0,158500	0,5	-0,040700
0,166833	0,5	-0,037000
0,175167	0,5	-0,028250
0,183500	0,5	-0,014700
0,191833	0,5	0,016800
0,200167	0,5	0,000100
0,208500	0,5	0,003650
0,216833	0,5	-0,001900
0,225167	0,5	-0,003350
0,233500	0,5	-0,011550
0,241833	0,5	-0,015900
0,250167	0,5	-0,018950
0,258500	0,5	-0,025200
0,266833	0,5	-0,019150
0,275167	0,5	-0,035150
0,283500	0,5	-0,037100
0,291833	0,5	-0,019900
0,300167	0,5	-0,007650
0,308500	0,5	-0,037950
0,316833	0,5	-0,039550
0,325167	0,5	-0,056200
0,333500	0,5	-0,033800
0,341833	0,5	-0,020900
0,350167	0,5	-0,017050
0,358500	0,5	-0,033600
0,366833	0,5	-0,025450
0,375167	0,5	-0,033950
0,383500	0,5	-0,030650
0,391833	0,5	-0,036300
0,400167	0,5	-0,044950
0,408500	0,5	-0,043000
0,416833	0,5	-0,049750
0,425167	0,5	-0,050850
0,433500	0,5	-0,054500
0,441833	0,5	-0,029400
0,450167	0,5	-0,055950
0,458500	0,5	-0,070300
0,466833	0,5	-0,066800
0,475167	0,5	-0,051400
0,483500	0,5	-0,034750
0,491833	0,5	-0,019600
0,500167	0,5	-0,037800
0,508500	0,5	-0,027000
0,516833	0,5	-0,038600
0,525167	0,5	-0,029800
0,533500	0,5	-0,036250
0,541833	0,5	-0,040500
0,550167	0,5	-0,044600
0,558500	0,5	-0,044400
0,566833	0,5	-0,036550
0,575167	0,5	-0,052300
0,583500	0,5	-0,043950
0,591833	0,5	-0,029950
0,600167	0,5	-0,051850
0,608500	0,5	-0,058050
0,616833	0,5	-0,046250
0,625167	0,5	-0,023000
0,633500	0,5	0,007250
0,641833	0,5	-0,010750
0,650167	0,5	0,001400
0,658500	0,5	-0,007000
0,666833	0,5	0,004200
0,675167	0,5	-0,009550
0,683500	0,5	0,002550
0,691833	0,5	-0,006250
0,700167	0,5	0,002300
0,708500	0,5	0,001900
0,716833	0,5	-0,006150
0,725167	0,5	-0,023100
0,733500	0,5	0,011000
0,741833	0,5	0,009650
0,750167	0,5	-0,000400
0,758500	0,5	-0,000650
0,766833	0,5	0,011400
0,775167	0,5	0,043750
0,783500	0,5	0,052300
0,791833	0,5	0,046250
0,800167	0,5	0,045900
0,808500	0,5	0,056300
0,816833	0,5	0,058300
0,825167	0,5	0,063800
0,833500	0,5	0,053850
0,841833	0,5	0,057050
0,850167	0,5	0,056850
0,858500	0,5	0,068950
0,866833	0,5	0,069800
0,875167	0,5	0,059850
0,883500	0,5	0,085850
0,891833	0,5	0,075300
0,900167	0,5	0,063950
0,908500	0,5	0,063750
0,916833	0,5	0,076850
0,925167	0,5	0,114300
0,933500	0,5	0,115000
0,941833	0,5	0,112200
0,950167	0,5	0,117000
0,958500	0,5	0,117550
0,966833	0,5	0,116500
0,975167	0,5	0,117900
0,983500	0,5	0,124700
0,991833	0,5	0,118500
1,000167	0,5	0,129150
1,008500	0,5	0,122250
1,016833	0,5	0,117550
1,025167	0,5	0,104450
1,033500	0,5	0,140300
1,041833	0,5	0,108650
1,050167	0,5	0,117200
1,058500	0,5	0,118250
1,066833	0,5	0,147400
1,075167	0,5	0,177100
1,083500	0,5	0,167500
1,091833	0,5	0,160000
1,100167	0,5	0,169800
1,108500	0,5	0,171550
1,116833	0,5	0,175050
1,125167	0,5	0,174000
1,133500	0,5	0,166300
1,141833	0,5	0,168750
1,150167	0,5	0,168500
1,158500	0,5	0,168700
1,166833	0,5	0,150650
1,175167	0,5	0,158450
1,183500	0,5	0,178100
1,191833	0,5	0,159150
1,200167	0,5	0,158900
1,208500	0,5	0,168450
1,216833	0,5	0,185650
1,225167	0,5	0,225050
1,233500	0,5	0,215600
1,241833	0,5	0,221350
1,250167	0,5	0,208700
1,258500	0,5	0,223550
1,266833	0,5	0,214450
1,275167	0,5	0,219250
1,283500	0,5	0,208450
1,291833	0,5	0,212350
1,300167	0,5	0,219850
1,308500	0,5	0,201150
1,316833	0,5	0,198150
1,325167	0,5	0,218800
1,333500	0,5	0,212600
1,341833	0,5	0,196350
1,350167	0,5	0,205750
1,358500	0,5	0,212150
1,366833	0,5	0,246500
1,375167	0,5	0,259900
1,383500	0,5	0,262200
1,391833	0,5	0,253850
1,400167	0,5	0,260900
1,408500	0,5	0,248600
1,416833	0,5	0,257300
1,425167	0,5	0,247900
1,433500	0,5	0,254550
1,441833	0,5	0,250750
1,450167	0,5	0,250400
1,458500	0,5	0,243650
1,466833	0,5	0,246100
1,475167	0,5	0,265800
1,483500	0,5	0,254600
1,491833	0,5	0,239600
1,500167	0,5	0,247550
1,508500	0,5	0,260900
1,516833	0,5	0,288700
1,525167	0,5	0,292600
1,533500	0,5	0,280150
1,541833	0,5	0,289250
1,550167	0,5	0,285050
1,558500	0,5	0,285300
1,566833	0,5	0,217350
1,575167	0,5	0,009050
1,583500	0,5	-0,471550
1,591833	0,5	-0,924650
1,600167	0,5	-0,726350
1,608500	0,5	0,965900
1,616833	0,5	5,299600
1,625167	0,5	13,216500
1,633500	0,5	22,943500
1,641833	0,5	29,998200
1,650167	0,5	31,032950
1,658500	0,5	27,030300
1,666833	0,5	21,306800
1,675167	0,5	16,243500
1,683500	0,5	12,645850
1,691833	0,5	10,318200
1,700167	0,5	8,922650
1,708500	0,5	8,171450
1,716833	0,5	7,960400
1,725167	0,5	7,960050
1,733500	0,5	7,819200
1,741833	0,5	7,335050
1,750167	0,5	6,688250
1,758500	0,5	6,054600
1,766833	0,5	5,596000
1,775167	0,5	5,255750
1,783500	0,5	5,101850
1,791833	0,5	5,259100
1,800167	0,5	5,823950
1,808500	0,5	6,685150
1,816833	0,5	7,561300
1,825167	0,5	8,160900
1,833500	0,5	8,385900
1,841833	0,5	8,213050
1,850167	0,5	7,730900
1,858500	0,5	7,136650
1,866833	0,5	6,567050
1,875167	0,5	6,103150
1,883500	0,5	5,756850
1,891833	0,5	5,526000
1,900167	0,5	5,330350
1,908500	0,5	5,116700
1,916833	0,5	4,896950
1,925167	0,5	4,659150
1,933500	0,5	4,451950
1,941833	0,5	4,287350
1,950167	0,5	4,134800
1,958500	0,5	4,020250
1,966833	0,5	3,910600
1,975167	0,5	3,863150
1,983500	0,5	3,888850
1,991833	0,5	3,947800
2,000167	0,5	3,953900
2,008500	0,5	3,890250
2,016833	0,5	3,772650
2,025167	0,5	3,665900
2,033500	0,5	3,622900
2,041833	0,5	3,662750
2,050167	0,5	3,851350
2,058500	0,5	4,279900
2,066833	0,5	5,261050
2,075167	0,5	6,947850
2,083500	0,5	9,132600
2,091833	0,5	10,752550
2,100167	0,5	10,908900
2,108500	0,5	9,765100
2,116833	0,5	8,256150
2,125167	0,5	7,091000
2,133500	0,5	6,443100
2,141833	0,5	6,178550
2,150167	0,5	6,247350
2,158500	0,5	6,508700
2,166833	0,5	6,723800
2,175167	0,5	6,651750
2,183500	0,5	6,332400
2,191833	0,5	5,961050
2,200167	0,5	5,693200
2,208500	0,5	5,623500
2,216833	0,5	5,802250
2,225167	0,5	6,232800
2,233500	0,5	6,950950
2,241833	0,5	7,714950
2,250167	0,5	8,168750
2,258500	0,5	8,141300
2,266833	0,5	7,719300
2,275167	0,5	7,219400
2,283500	0,5	6,777750
2,291833	0,5	6,459600
2,300167	0,5	6,237400
2,308500	0,5	6,117550
2,316833	0,5	6,036750
2,325167	0,5	6,014550
2,333500	0,5	6,028000
2,341833	0,5	6,087600
2,350167	0,5	6,197350
2,358500	0,5	6,356700
2,366833	0,5	6,467550
2,375167	0,5	6,538200
2,383500	0,5	6,606800
2,391833	0,5	6,683100
2,400167	0,5	6,791550
2,408500	0,5	6,869150
2,416833	0,5	6,902050
2,425167	0,5	6,893250
2,433500	0,5	6,862050
2,441833	0,5	6,801650
2,450167	0,5	6,747850
2,458500	0,5	6,686700
2,466833	0,5	6,657650
2,475167	0,5	6,630450
2,483500	0,5	6,620850
2,491833	0,5	6,610200
2,500167	0,5	6,608050
2,508500	0,5	6,624700
2,516833	0,5	6,610950
2,525167	0,5	6,591150
2,533500	0,5	6,588300
2,541833	0,5	6,582200
2,550167	0,5	6,599350
2,558500	0,5	6,604600
2,566833	0,5	6,626400
2,575167	0,5	6,677300
2,583500	0,5	6,737150
2,591833	0,5	6,775600
2,600167	0,5	6,757600
2,608500	0,5	6,691300
2,616833	0,5	6,575900
2,625167	0,5	6,458250
2,633500	0,5	6,340500
2,641833	0,5	6,253300
2,650167	0,5	6,182700
2,658500	0,5	6,141100
2,666833	0,5	6,061850
2,675167	0,5	6,004350
2,683500	0,5	5,952750
2,691833	0,5	5,920600
2,700167	0,5	5,888750
2,708500	0,5	5,832800
2,716833	0,5	5,782000
2,725167	0,5	5,733500
2,733500	0,5	5,677900
2,741833	0,5	5,617500
2,750167	0,5	5,564600
2,758500	0,5	5,511150
2,766833	0,5	5,480550
2,775167	0,5	5,464550
2,783500	0,5	5,492200
2,791833	0,5	5,539150
2,800167	0,5	5,710550
2,808500	0,5	6,020400
2,816833	0,5	6,559050
2,825167	0,5	7,374150
2,833500	0,5	8,382950
2,841833	0,5	9,345000
2,850167	0,5	10,041900
2,858500	0,5	10,356050
2,866833	0,5	10,433100
2,875167	0,5	10,436800
2,883500	0,5	10,639900
2,891833	0,5	11,329700
2,900167	0,5	12,986200
2,908500	0,5	16,283000
2,916833	0,5	21,949950
2,925167	0,5	30,222850
2,933500	0,5	40,113601
2,941833	0,5	49,251451
2,950167	0,5	54,886201
2,958500	0,5	55,258351
2,966833	0,5	50,820901
2,975167	0,5	43,701851
2,983500	0,5	36,324551
2,991833	0,5	30,283550
3,000167	0,5	25,865850
3,008500	0,5	22,660600
3,016833	0,5	20,062600
3,025167	0,5	17,736000
3,033500	0,5	15,575300
3,041833	0,5	13,644950
3,050167	0,5	11,958800
3,058500	0,5	10,513850
3,066833	0,5	9,289600
3,075167	0,5	8,277000
3,083500	0,5	7,498000
3,091833	0,5	6,946050
3,100167	0,5	6,650000
3,108500	0,5	6,497250
3,116833	0,5	6,449650
3,125167	0,5	6,369350
3,133500	0,5	6,190500
3,141833	0,5	5,874000
3,150167	0,5	5,436200
3,158500	0,5	4,947250
3,166833	0,5	4,505700
3,175167	0,5	4,113750
3,183500	0,5	3,800200
3,191833	0,5	3,542000
3,200167	0,5	3,346850
3,208500	0,5	3,181850
3,216833	0,5	3,048100
3,225167	0,5	2,933800
3,233500	0,5	2,835700
3,241833	0,5	2,747050
3,250167	0,5	2,673750
3,258500	0,5	2,576650
3,266833	0,5	2,504650
3,275167	0,5	2,443700
3,283500	0,5	2,408050
3,291833	0,5	2,402100
3,300167	0,5	2,391100
3,308500	0,5	2,412400
3,316833	0,5	2,437800
3,325167	0,5	2,471950
3,333500	0,5	2,474500
3,341833	0,5	2,456500
3,350167	0,5	2,387400
3,358500	0,5	2,301550
3,366833	0,5	2,189050
3,375167	0,5	2,068000
3,383500	0,5	1,954400
3,391833	0,5	1,890050
3,400167	0,5	1,810450
3,408500	0,5	1,745800
3,416833	0,5	1,704600
3,425167	0,5	1,685350
3,433500	0,5	1,689800
3,441833	0,5	1,695000
3,450167	0,5	1,689700
3,458500	0,5	1,682150
3,466833	0,5	1,671950
3,475167	0,5	1,658400
3,483500	0,5	1,641800
3,491833	0,5	1,623250
3,500167	0,5	1,613500
3,508500	0,5	1,612800
3,516833	0,5	1,651350
3,525167	0,5	1,702450
3,533500	0,5	1,802600
3,541833	0,5	1,933300
3,550167	0,5	2,022350
3,558500	0,5	2,072650
3,566833	0,5	2,086350
3,575167	0,5	2,032850
3,583500	0,5	1,954800
3,591833	0,5	1,811750
3,600167	0,5	1,676200
3,608500	0,5	1,552200
3,616833	0,5	1,453900
3,625167	0,5	1,371550
3,633500	0,5	1,317400
3,641833	0,5	1,265250
3,650167	0,5	1,217900
3,658500	0,5	1,187300
3,666833	0,5	1,155100
3,675167	0,5	1,133900
3,683500	0,5	1,106700
3,691833	0,5	1,103950
3,700167	0,5	1,064700
3,708500	0,5	1,047600
3,716833	0,5	1,039750
3,725167	0,5	1,048750
3,733500	0,5	1,060150
3,741833	0,5	1,043150
3,750167	0,5	1,030800
3,758500	0,5	1,032950
3,766833	0,5	1,021550
3,775167	0,5	1,019850
3,783500	0,5	1,010200
3,791833	0,5	1,004050
3,800167	0,5	1,004900
3,808500	0,5	1,002350
3,816833	0,5	1,006500
3,825167	0,5	0,985600
3,833500	0,5	0,989450
3,841833	0,5	0,994300
3,850167	0,5	0,975150
3,858500	0,5	0,964000
3,866833	0,5	0,968900
3,875167	0,5	0,978650
3,883500	0,5	0,996350
3,891833	0,5	0,972800
3,900167	0,5	0,978600
3,908500	0,5	0,970600
3,916833	0,5	0,980400
3,925167	0,5	0,970150
3,933500	0,5	0,970950
3,941833	0,5	0,953050
3,950167	0,5	0,942800
3,958500	0,5	0,932600
3,966833	0,5	0,913400
3,975167	0,5	0,885800
3,983500	0,5	0,887850
3,991833	0,5	0,859500
4,000167	0,5	0,838400
4,008500	0,5	0,824450
4,016833	0,5	0,824900
4,025167	0,5	0,842700
4,033500	0,5	0,834300
4,041833	0,5	0,829500
4,050167	0,5	0,816950
4,058500	0,5	0,821050
4,066833	0,5	0,809350
4,075167	0,5	0,805850
4,083500	0,5	0,796350
4,091833	0,5	0,795700
4,100167	0,5	0,787500
4,108500	0,5	0,793450
4,116833	0,5	0,790750
4,125167	0,5	0,791450
4,133500	0,5	0,804000
4,141833	0,5	0,794250
4,150167	0,5	0,796450
4,158500	0,5	0,809600
4,166833	0,5	0,838600
4,175167	0,5	0,886700
4,183500	0,5	0,916600
4,191833	0,5	0,945500
4,200167	0,5	0,997750
4,208500	0,5	1,053150
4,216833	0,5	1,121200
4,225167	0,5	1,182250
4,233500	0,5	1,247500
4,241833	0,5	1,288250
4,250167	0,5	1,314150
4,258500	0,5	1,307900
4,266833	0,5	1,282100
4,275167	0,5	1,224200
4,283500	0,5	1,169550
4,291833	0,5	1,076750
4,300167	0,5	1,010150
4,308500	0,5	0,947650
4,316833	0,5	0,914250
4,325167	0,5	0,894150
4,333500	0,5	0,865150
4,341833	0,5	0,839600
4,350167	0,5	0,822800
4,358500	0,5	0,809450
4,366833	0,5	0,796150
4,375167	0,5	0,787650
4,383500	0,5	0,770500
4,391833	0,5	0,764550
4,400167	0,5	0,760250
4,408500	0,5	0,756000
4,416833	0,5	0,742750
4,425167	0,5	0,762300
4,433500	0,5	0,742900
4,441833	0,5	0,725900
4,450167	0,5	0,724200
4,458500	0,5	0,728300
4,466833	0,5	0,748550
4,475167	0,5	0,758000
4,483500	0,5	0,753050
4,491833	0,5	0,754250
4,500167	0,5	0,750350
4,508500	0,5	0,750900
4,516833	0,5	0,748750
4,525167	0,5	0,750100
4,533500	0,5	0,752250
4,541833	0,5	0,752400
4,550167	0,5	0,757700
4,558500	0,5	0,747950
4,566833	0,5	0,749050
4,575167	0,5	0,780050
4,583500	0,5	0,770800
4,591833	0,5	0,767600
4,600167	0,5	0,779850
4,608500	0,5	0,787750
4,616833	0,5	0,819850
4,625167	0,5	0,814200
4,633500	0,5	0,821000
4,641833	0,5	0,813750
4,650167	0,5	0,824050
4,658500	0,5	0,810900
4,666833	0,5	0,810650
4,675167	0,5	0,794450
4,683500	0,5	0,793050
4,691833	0,5	0,789800
4,700167	0,5	0,785500
4,708500	0,5	0,783400
4,716833	0,5	0,786800
4,725167	0,5	0,811800
4,733500	0,5	0,803800
4,741833	0,5	0,818800
4,750167	0,5	0,844800
4,758500	0,5	0,885650
4,766833	0,5	0,941950
4,775167	0,5	0,979100
4,783500	0,5	1,020750
4,791833	0,5	1,082800
4,800167	0,5	1,141650
4,808500	0,5	1,222750
4,816833	0,5	1,302750
4,825167	0,5	1,407300
4,833500	0,5	1,525350
4,841833	0,5	1,679850
4,850167	0,5	1,874900
4,858500	0,5	2,093450
4,866833	0,5	2,376250
4,875167	0,5	2,705250
4,883500	0,5	3,053350
4,891833	0,5	3,448750
4,900167	0,5	3,861050
4,908500	0,5	4,266050
4,916833	0,5	4,626250
4,925167	0,5	4,871350
4,933500	0,5	5,038800
4,941833	0,5	5,079000
4,950167	0,5	5,009750
4,958500	0,5	4,807850
4,966833	0,5	4,527050
4,975167	0,5	4,161900
4,983500	0,5	3,768850
4,991833	0,5	3,355850
5,000167	0,5	2,963100
5,008500	0,5	2,582500
5,016833	0,5	2,277350
5,025167	0,5	1,988900
5,033500	0,5	1,750600
5,041833	0,5	1,567100
5,050167	0,5	1,429450
5,058500	0,5	1,341050
5,066833	0,5	1,264350
5,075167	0,5	1,200600
5,083500	0,5	1,153100
5,091833	0,5	1,127350
5,100167	0,5	1,099000
5,108500	0,5	1,085800
5,116833	0,5	1,069000
5,125167	0,5	1,061200
5,133500	0,5	1,060850
5,141833	0,5	1,064450
5,150167	0,5	1,057700
5,158500	0,5	1,065850
5,166833	0,5	1,091500
5,175167	0,5	1,100750
5,183500	0,5	1,117350
5,191833	0,5	1,151750
5,200167	0,5	1,198400
5,208500	0,5	1,268150
5,216833	0,5	1,319350
5,225167	0,5	1,364600
5,233500	0,5	1,420500
5,241833	0,5	1,476000
5,250167	0,5	1,535800
5,258500	0,5	1,583700
5,266833	0,5	1,625600
5,275167	0,5	1,642200
5,283500	0,5	1,657100
5,291833	0,5	1,642050
5,300167	0,5	1,612550
5,308500	0,5	1,568750
5,316833	0,5	1,521800
5,325167	0,5	1,437450
5,333500	0,5	1,373000
5,341833	0,5	1,302300
5,350167	0,5	1,259900
5,358500	0,5	1,216500
5,366833	0,5	1,174500
5,375167	0,5	1,131450
5,383500	0,5	1,101450
5,391833	0,5	1,068850
5,400167	0,5	1,055200
5,408500	0,5	1,033550
5,416833	0,5	1,021300
5,425167	0,5	1,014400
5,433500	0,5	1,006150
5,441833	0,5	1,005850
5,450167	0,5	0,995800
5,458500	0,5	1,012750
5,466833	0,5	0,997750
5,475167	0,5	0,984300
5,483500	0,5	0,977850
5,491833	0,5	0,982650
5,500167	0,5	1,004250
5,508500	0,5	1,014850
5,516833	0,5	1,005500
5,525167	0,5	1,009500
5,533500	0,5	1,002400
5,541833	0,5	1,004250
5,550167	0,5	0,995050
5,558500	0,5	0,997700
5,566833	0,5	0,994400
5,575167	0,5	0,997200
5,583500	0,5	0,998500
5,591833	0,5	0,989700
5,600167	0,5	0,990000
5,608500	0,5	1,015000
5,616833	0,5	1,004950
5,625167	0,5	1,001800
5,633500	0,5	1,012650
5,641833	0,5	1,026000
5,650167	0,5	1,059850
5,658500	0,5	1,065250
5,666833	0,5	1,079200
5,675167	0,5	1,089450
5,683500	0,5	1,112700
5,691833	0,5	1,122550
5,700167	0,5	1,149900
5,708500	0,5	1,164700
5,716833	0,5	1,191950
5,725167	0,5	1,217650
5,733500	0,5	1,258450
5,741833	0,5	1,307000
5,750167	0,5	1,363850
5,758500	0,5	1,453950
5,766833	0,5	1,532950
5,775167	0,5	1,657450
5,783500	0,5	1,827050
5,791833	0,5	2,039750
5,800167	0,5	2,298600
5,808500	0,5	2,558800
5,816833	0,5	2,843100
5,825167	0,5	3,131700
5,833500	0,5	3,391950
5,841833	0,5	3,609750
5,850167	0,5	3,750600
5,858500	0,5	3,818400
5,866833	0,5	3,792200
5,875167	0,5	3,696400
5,883500	0,5	3,526900
5,891833	0,5	3,300800
5,900167	0,5	3,056400
5,908500	0,5	2,811950
5,916833	0,5	2,542950
5,925167	0,5	2,314150
5,933500	0,5	2,113800
5,941833	0,5	1,959550
5,950167	0,5	1,829300
5,958500	0,5	1,700150
5,966833	0,5	1,604500
5,975167	0,5	1,536100
5,983500	0,5	1,484600
5,991833	0,5	1,440050
6,000167	0,5	1,409650
6,008500	0,5	1,375800
6,016833	0,5	1,360800
6,025167	0,5	1,345300
6,033500	0,5	1,333500
6,041833	0,5	1,310600
6,050167	0,5	1,316250
6,058500	0,5	1,306250
6,066833	0,5	1,299800
6,075167	0,5	1,297700
6,083500	0,5	1,308800
6,091833	0,5	1,325750
6,100167	0,5	1,344100
6,108500	0,5	1,339950
6,116833	0,5	1,351150
6,125167	0,5	1,350050
6,133500	0,5	1,348600
6,141833	0,5	1,347500
6,150167	0,5	1,340100
6,158500	0,5	1,331950
6,166833	0,5	1,317800
6,175167	0,5	1,309600
6,183500	0,5	1,282950
6,191833	0,5	1,268350
6,200167	0,5	1,267950
6,208500	0,5	1,249950
6,216833	0,5	1,235500
6,225167	0,5	1,234450
6,233500	0,5	1,240450
6,241833	0,5	1,260850
6,250167	0,5	1,259050
6,258500	0,5	1,265600
6,266833	0,5	1,263450
6,275167	0,5	1,272400
6,283500	0,5	1,275950
6,291833	0,5	1,283300
6,300167	0,5	1,289600
6,308500	0,5	1,294550
6,316833	0,5	1,306950
6,325167	0,5	1,304500
6,333500	0,5	1,302050
6,341833	0,5	1,309000
6,350167	0,5	1,317600
6,358500	0,5	1,310300
6,366833	0,5	1,312450
6,375167	0,5	1,318050
6,383500	0,5	1,332400
6,391833	0,5	1,343650
6,400167	0,5	1,356000
6,408500	0,5	1,350250
6,416833	0,5	1,356300
6,425167	0,5	1,354900
6,433500	0,5	1,357050
6,441833	0,5	1,348100
6,450167	0,5	1,344750
6,458500	0,5	1,340000
6,466833	0,5	1,337750
6,475167	0,5	1,335850
6,483500	0,5	1,326100
6,491833	0,5	1,336150
6,500167	0,5	1,332150
6,508500	0,5	1,322350
6,516833	0,5	1,321150
6,525167	0,5	1,325050
6,533500	0,5	1,344950
6,541833	0,5	1,355150
6,550167	0,5	1,354450
6,558500	0,5	1,362200
6,566833	0,5	1,360000
6,575167	0,5	1,366050
6,583500	0,5	1,366900
6,591833	0,5	1,375700
6,600167	0,5	1,379900
6,608500	0,5	1,385900
6,616833	0,5	1,391200
6,625167	0,5	1,391950
6,633500	0,5	1,387100
6,641833	0,5	1,412150
6,650167	0,5	1,400500
6,658500	0,5	1,402700
6,666833	0,5	1,402900
6,675167	0,5	1,406400
6,683500	0,5	1,429600
6,691833	0,5	1,420050
6,700167	0,5	1,427600
6,708500	0,5	1,430100
6,716833	0,5	1,441850
6,725167	0,5	1,450500
6,733500	0,5	1,467500
6,741833	0,5	1,485050
6,750167	0,5	1,505550
6,758500	0,5	1,519700
6,766833	0,5	1,537800
6,775167	0,5	1,533050
6,783500	0,5	1,529600
6,791833	0,5	1,535150
6,800167	0,5	1,513650
6,808500	0,5	1,497400
6,816833	0,5	1,486600
6,825167	0,5	1,487700
6,833500	0,5	1,504000
6,841833	0,5	1,499050
6,850167	0,5	1,504850
6,858500	0,5	1,512800
6,866833	0,5	1,522850
6,875167	0,5	1,531550
6,883500	0,5	1,536650
6,891833	0,5	1,543200
6,900167	0,5	1,538700
6,908500	0,5	1,537850
6,916833	0,5	1,522250
6,925167	0,5	1,499700
6,933500	0,5	1,475000
6,941833	0,5	1,465600
6,950167	0,5	1,431750
6,958500	0,5	1,414250
6,966833	0,5	1,402000
6,975167	0,5	1,401000
6,983500	0,5	1,408200
6,991833	0,5	1,397550
7,000167	0,5	1,386000
7,008500	0,5	1,388400
7,016833	0,5	1,382700
7,025167	0,5	1,383500
7,033500	0,5	1,376600
7,041833	0,5	1,369500
7,050167	0,5	1,363650
7,058500	0,5	1,353550
7,066833	0,5	1,343250
7,075167	0,5	1,329200
7,083500	0,5	1,332000
7,091833	0,5	1,326300
7,100167	0,5	1,311400
7,108500	0,5	1,305000
7,116833	0,5	1,305650
7,125167	0,5	1,313350
7,133500	0,5	1,317400
7,141833	0,5	1,308950
7,150167	0,5	1,315450
7,158500	0,5	1,308450
7,166833	0,5	1,314300
7,175167	0,5	1,314000
7,183500	0,5	1,325950
7,191833	0,5	1,332500
7,200167	0,5	1,338350
7,208500	0,5	1,339250
7,216833	0,5	1,325500
7,225167	0,5	1,315300
7,233500	0,5	1,313550
7,241833	0,5	1,303800
7,250167	0,5	1,293950
7,258500	0,5	1,286600
7,266833	0,5	1,284650
7,275167	0,5	1,288150
7,283500	0,5	1,278150
7,291833	0,5	1,269200
7,300167	0,5	1,258750
7,308500	0,5	1,255900
7,316833	0,5	1,247600
7,325167	0,5	1,245700
7,333500	0,5	1,238150
7,341833	0,5	1,232600
7,350167	0,5	1,229200
7,358500	0,5	1,223450
7,366833	0,5	1,214550
7,375167	0,5	1,217050
7,383500	0,5	1,222200
7,391833	0,5	1,218100
7,400167	0,5	1,209950
7,408500	0,5	1,203900
7,416833	0,5	1,202900
7,425167	0,5	1,201150
7,433500	0,5	1,196950
7,441833	0,5	1,190350
7,450167	0,5	1,194000
7,458500	0,5	1,200100
7,466833	0,5	1,225100
7,475167	0,5	1,270800
7,483500	0,5	1,349000
7,491833	0,5	1,459400
7,500167	0,5	1,603500
7,508500	0,5	1,758500
7,516833	0,5	1,902150
7,525167	0,5	1,996850
7,533500	0,5	2,002850
7,541833	0,5	1,908400
7,550167	0,5	1,753800
7,558500	0,5	1,583600
7,566833	0,5	1,441200
7,575167	0,5	1,326200
7,583500	0,5	1,241950
7,591833	0,5	1,194900
7,600167	0,5	1,168700
7,608500	0,5	1,159500
7,616833	0,5	1,159550
7,625167	0,5	1,169200
7,633500	0,5	1,180950
7,641833	0,5	1,195650
7,650167	0,5	1,198350
7,658500	0,5	1,191050
7,666833	0,5	1,169100
7,675167	0,5	1,161700
7,683500	0,5	1,145850
7,691833	0,5	1,137550
7,700167	0,5	1,131450
7,708500	0,5	1,134100
7,716833	0,5	1,141300
7,725167	0,5	1,135650
7,733500	0,5	1,127800
7,741833	0,5	1,132250
7,750167	0,5	1,142550
7,758500	0,5	1,168200
7,766833	0,5	1,200300
7,775167	0,5	1,239450
7,783500	0,5	1,274900
7,791833	0,5	1,287950
7,800167	0,5	1,275000
7,808500	0,5	1,227050
7,816833	0,5	1,173850
7,825167	0,5	1,136600
7,833500	0,5	1,108050
7,841833	0,5	1,102350
7,850167	0,5	1,127350
7,858500	0,5	1,188750
7,866833	0,5	1,291500
7,875167	0,5	1,397500
7,883500	0,5	1,399000
7,891833	0,5	1,650850
7,900167	0,5	1,789250
7,908500	0,5	1,950200
7,916833	0,5	2,152850
7,925167	0,5	2,398450
7,933500	0,5	2,707750
7,941833	0,5	3,130750
7,950167	0,5	3,781150
7,958500	0,5	4,903700
7,966833	0,5	6,902300
7,975167	0,5	10,222900
7,983500	0,5	14,967450
7,991833	0,5	20,521700
8,000167	0,5	25,416550
8,008500	0,5	28,010850
8,016833	0,5	27,394500
8,025167	0,5	23,900950
8,033500	0,5	18,839000
8,041833	0,5	13,687900
8,050167	0,5	9,420750
8,058500	0,5	6,383350
8,066833	0,5	4,440650
8,075167	0,5	3,292000
8,083500	0,5	2,638250
8,091833	0,5	2,268700
8,100167	0,5	2,047050
8,108500	0,5	1,895400
8,116833	0,5	1,775600
8,125167	0,5	1,676550
8,133500	0,5	1,583300
8,141833	0,5	1,508950
8,150167	0,5	1,451600
8,158500	0,5	1,411600
8,166833	0,5	1,389350
8,175167	0,5	1,370900
8,183500	0,5	1,358900
8,191833	0,5	1,331700
8,200167	0,5	1,294450
8,208500	0,5	1,257250
8,216833	0,5	1,230250
8,225167	0,5	1,207100
8,233500	0,5	1,192000
8,241833	0,5	1,181800
8,250167	0,5	1,159050
8,258500	0,5	1,133650
8,266833	0,5	1,110050
8,275167	0,5	1,076700
8,283500	0,5	1,050000
8,291833	0,5	1,029700
8,300167	0,5	1,019450
8,308500	0,5	1,019150
8,316833	0,5	1,016600
8,325167	0,5	1,011650
8,333500	0,5	1,006500
8,341833	0,5	1,003150
8,350167	0,5	1,000000
8,358500	0,5	1,002000
8,366833	0,5	1,005550
8,375167	0,5	1,006750
8,383500	0,5	1,007550
8,391833	0,5	1,008300
8,400167	0,5	1,006600
8,408500	0,5	1,017400
8,416833	0,5	1,031000
8,425167	0,5	1,038200
8,433500	0,5	1,040700
8,441833	0,5	1,035500
8,450167	0,5	1,031200
8,458500	0,5	1,027950
8,466833	0,5	1,031450
8,475167	0,5	1,042600
8,483500	0,5	1,060450
8,491833	0,5	1,082650
8,500167	0,5	1,095450
8,508500	0,5	1,102000
8,516833	0,5	1,095700
8,525167	0,5	1,073350
8,533500	0,5	1,042200
8,541833	0,5	1,005000
8,550167	0,5	0,977600
8,558500	0,5	0,972600
8,566833	0,5	0,989700
8,575167	0,5	1,025900
8,583500	0,5	1,074050
8,591833	0,5	1,129100
8,600167	0,5	1,187100
8,608500	0,5	1,241850
8,616833	0,5	1,284500
8,625167	0,5	1,309750
8,633500	0,5	1,320000
8,641833	0,5	1,305500
8,650167	0,5	1,272250
8,658500	0,5	1,224450
8,666833	0,5	1,177050
8,675167	0,5	1,138500
8,683500	0,5	1,112150
8,691833	0,5	1,100550
8,700167	0,5	1,098500
8,708500	0,5	1,131650
8,716833	0,5	1,200500
8,725167	0,5	1,320500
8,733500	0,5	1,501550
8,741833	0,5	1,721550
8,750167	0,5	1,964200
8,758500	0,5	2,217550
8,766833	0,5	2,509600
8,775167	0,5	2,911550
8,783500	0,5	3,599750
8,791833	0,5	4,933450
8,800167	0,5	7,460450
8,808500	0,5	11,667100
8,816833	0,5	17,336800
8,825167	0,5	23,094450
8,833500	0,5	26,848100
8,841833	0,5	27,074550
8,850167	0,5	23,845150
8,858500	0,5	18,624550
8,866833	0,5	13,189550
8,875167	0,5	8,762200
8,883500	0,5	5,712200
8,891833	0,5	3,839350
8,900167	0,5	2,771250
8,908500	0,5	2,167000
8,916833	0,5	1,827950
8,925167	0,5	1,625600
8,933500	0,5	1,503750
8,941833	0,5	1,418400
8,950167	0,5	1,359600
8,958500	0,5	1,313950
8,966833	0,5	1,276550
8,975167	0,5	1,249400
8,983500	0,5	1,229500
8,991833	0,5	1,211850
9,000167	0,5	1,206500
9,008500	0,5	1,206600
9,016833	0,5	1,207250
9,025167	0,5	1,210200
9,033500	0,5	1,213050
9,041833	0,5	1,218150
9,050167	0,5	1,221900
9,058500	0,5	1,221000
9,066833	0,5	1,218950
9,075167	0,5	1,225000
9,083500	0,5	1,239700
9,091833	0,5	1,262600
9,100167	0,5	1,287450
9,108500	0,5	1,312200
9,116833	0,5	1,322700
9,125167	0,5	1,321750
9,133500	0,5	1,311050
9,141833	0,5	1,293450
9,150167	0,5	1,274700
9,158500	0,5	1,257550
9,166833	0,5	1,231050
9,175167	0,5	1,201350
9,183500	0,5	1,172900
9,191833	0,5	1,150250
9,200167	0,5	1,128650
9,208500	0,5	1,104800
9,216833	0,5	1,090950
9,225167	0,5	1,072200
9,233500	0,5	1,059950
9,241833	0,5	1,044950
9,250167	0,5	1,033850
9,258500	0,5	1,025550
9,266833	0,5	1,019300
9,275167	0,5	1,013350
9,283500	0,5	1,015500
9,291833	0,5	1,014050
9,300167	0,5	1,024900
9,308500	0,5	1,035750
9,316833	0,5	1,048600
9,325167	0,5	1,063100
9,333500	0,5	1,081250
9,341833	0,5	1,099450
9,350167	0,5	1,111150
9,358500	0,5	1,114400
9,366833	0,5	1,115450
9,375167	0,5	1,112100
9,383500	0,5	1,110050
9,391833	0,5	1,109850
9,400167	0,5	1,112000
9,408500	0,5	1,112400
9,416833	0,5	1,113300
9,425167	0,5	1,108950
9,433500	0,5	1,106400
9,441833	0,5	1,107850
9,450167	0,5	1,113450
9,458500	0,5	1,122650
9,466833	0,5	1,137850
9,475167	0,5	1,159750
9,483500	0,5	1,191350
9,491833	0,5	1,236700
9,500167	0,5	1,284800
9,508500	0,5	1,330400
9,516833	0,5	1,378250
9,525167	0,5	1,411400
9,533500	0,5	1,437500
9,541833	0,5	1,449200
9,550167	0,5	1,449400
9,558500	0,5	1,443450
9,566833	0,5	1,434800
9,575167	0,5	1,420000
9,583500	0,5	1,402000
9,591833	0,5	1,380550
9,600167	0,5	1,367950
9,608500	0,5	1,356450
9,616833	0,5	1,349750
9,625167	0,5	1,350800
9,633500	0,5	1,361100
9,641833	0,5	1,378400
9,650167	0,5	1,396750
9,658500	0,5	1,413300
9,666833	0,5	1,422250
9,675167	0,5	1,424550
9,683500	0,5	1,425900
9,691833	0,5	1,422100
9,700167	0,5	1,421750
9,708500	0,5	1,422400
9,716833	0,5	1,428200
9,725167	0,5	1,436600
9,733500	0,5	1,442250
9,741833	0,5	1,446750
9,750167	0,5	1,453000
9,758500	0,5	1,454050
9,766833	0,5	1,453300
9,775167	0,5	1,454550
9,783500	0,5	1,463250
9,791833	0,5	1,471600
9,800167	0,5	1,484850
9,808500	0,5	1,501700
9,816833	0,5	1,519650
9,825167	0,5	1,538800
9,833500	0,5	1,556500
9,841833	0,5	1,569250
9,850167	0,5	1,575700
9,858500	0,5	1,580450
9,866833	0,5	1,582850
9,875167	0,5	1,585450
9,883500	0,5	1,582700
9,891833	0,5	1,589300
9,900167	0,5	1,595250
9,908500	0,5	1,604800
9,916833	0,5	1,619800
9,925167	0,5	1,640700
9,933500	0,5	1,670900
9,941833	0,5	1,710950
9,950167	0,5	1,762350
9,958500	0,5	1,831800
9,966833	0,5	1,910000
9,975167	0,5	2,012700
9,983500	0,5	2,122400
9,991833	0,5	2,242700
10,000167	0,5	2,366000
10,008500	0,5	2,487550
10,016833	0,5	2,607950
10,025167	0,5	2,702000
10,033500	0,5	2,772200
10,041833	0,5	2,800200
10,050167	0,5	2,780650
10,058500	0,5	2,707850
10,066833	0,5	2,595700
10,075167	0,5	2,456800
10,083500	0,5	2,310550
10,091833	0,5	2,168900
10,100167	0,5	2,050650
10,108500	0,5	1,954650
10,116833	0,5	1,884850
10,125167	0,5	1,838550
10,133500	0,5	1,813000
10,141833	0,5	1,795850
10,150167	0,5	1,784750
10,158500	0,5	1,774500
10,166833	0,5	1,767600
10,175167	0,5	1,751700
10,183500	0,5	1,738550
10,191833	0,5	1,731650
10,200167	0,5	1,719850
10,208500	0,5	1,708150
10,216833	0,5	1,707050
10,225167	0,5	1,704200
10,233500	0,5	1,704250
10,241833	0,5	1,706450
10,250167	0,5	1,710650
10,258500	0,5	1,716550
10,266833	0,5	1,727300
10,275167	0,5	1,743850
10,283500	0,5	1,758650
10,291833	0,5	1,772350
10,300167	0,5	1,783750
10,308500	0,5	1,787250
10,316833	0,5	1,781700
10,325167	0,5	1,773400
10,333500	0,5	1,767100
10,341833	0,5	1,761350
10,350167	0,5	1,754600
10,358500	0,5	1,748350
10,366833	0,5	1,749300
10,375167	0,5	1,749750
10,383500	0,5	1,755400
10,391833	0,5	1,765550
10,400167	0,5	1,775200
10,408500	0,5	1,784850
10,416833	0,5	1,794700
10,425167	0,5	1,800950
10,433500	0,5	1,797250
10,441833	0,5	1,799950
10,450167	0,5	1,791900
10,458500	0,5	1,783150
10,466833	0,5	1,777050
10,475167	0,5	1,765000
10,483500	0,5	1,762750
10,491833	0,5	1,760050
10,500167	0,5	1,755100
10,508500	0,5	1,754400
10,516833	0,5	1,751250
10,525167	0,5	1,750200
10,533500	0,5	1,751150
10,541833	0,5	1,749450
10,550167	0,5	1,750350
10,558500	0,5	1,744300
10,566833	0,5	1,742100
10,575167	0,5	1,731800
10,583500	0,5	1,723800
10,591833	0,5	1,716300
10,600167	0,5	1,709400
10,608500	0,5	1,708050
10,616833	0,5	1,714000
10,625167	0,5	1,714100
10,633500	0,5	1,721100
10,641833	0,5	1,727850
10,650167	0,5	1,727500
10,658500	0,5	1,721800
10,666833	0,5	1,706750
10,675167	0,5	1,695850
10,683500	0,5	1,678250
10,691833	0,5	1,660100
10,700167	0,5	1,641000
10,708500	0,5	1,624950
10,716833	0,5	1,611850
10,725167	0,5	1,598700
10,733500	0,5	1,585650
10,741833	0,5	1,575650
10,750167	0,5	1,572100
10,758500	0,5	1,566550
10,766833	0,5	1,568500
10,775167	0,5	1,565500
10,783500	0,5	1,567700
10,791833	0,5	1,564900
10,800167	0,5	1,559950
10,808500	0,5	1,557000
10,816833	0,5	1,555800
10,825167	0,5	1,568800
10,833500	0,5	1,582700
10,841833	0,5	1,596500
10,850167	0,5	1,606700
10,858500	0,5	1,608550
10,866833	0,5	1,598650
10,875167	0,5	1,586450
10,883500	0,5	1,566250
10,891833	0,5	1,542700
10,900167	0,5	1,516550
10,908500	0,5	1,493450
10,916833	0,5	1,470750
10,925167	0,5	1,448050
10,933500	0,5	1,434750
10,941833	0,5	1,421550
10,950167	0,5	1,411250
10,958500	0,5	1,405150
10,966833	0,5	1,397000
10,975167	0,5	1,400850
10,983500	0,5	1,396800
10,991833	0,5	1,399500
11,000167	0,5	1,401350
11,008500	0,5	1,404700
11,016833	0,5	1,415900
11,025167	0,5	1,425750
11,033500	0,5	1,433400
11,041833	0,5	1,432350
11,050167	0,5	1,426450
11,058500	0,5	1,414100
11,066833	0,5	1,394800
11,075167	0,5	1,384250
11,083500	0,5	1,371150
11,091833	0,5	1,357050
11,100167	0,5	1,345850
11,108500	0,5	1,338350
11,116833	0,5	1,332300
11,125167	0,5	1,334700
11,133500	0,5	1,335050
11,141833	0,5	1,338100
11,150167	0,5	1,341150
11,158500	0,5	1,349450
11,166833	0,5	1,357100
11,175167	0,5	1,374050
11,183500	0,5	1,394450
11,191833	0,5	1,419150
11,200167	0,5	1,447950
11,208500	0,5	1,479200
11,216833	0,5	1,506700
11,225167	0,5	1,534550
11,233500	0,5	1,552300
11,241833	0,5	1,553400
11,250167	0,5	1,542950
11,258500	0,5	1,513150
11,266833	0,5	1,476850
11,275167	0,5	1,435500
11,283500	0,5	1,386450
11,291833	0,5	1,348150
11,300167	0,5	1,318100
11,308500	0,5	1,299550
11,316833	0,5	1,294550
11,325167	0,5	1,304450
11,333500	0,5	1,314900
11,341833	0,5	1,330600
11,350167	0,5	1,343300
11,358500	0,5	1,351150
11,366833	0,5	1,353150
11,375167	0,5	1,356700
11,383500	0,5	1,351150
11,391833	0,5	1,339950
11,400167	0,5	1,329500
11,408500	0,5	1,319450
11,416833	0,5	1,315350
11,425167	0,5	1,309400
11,433500	0,5	1,304000
11,441833	0,5	1,298650
11,450167	0,5	1,291500
11,458500	0,5	1,291400
11,466833	0,5	1,285350
11,475167	0,5	1,283850
11,483500	0,5	1,282150
11,491833	0,5	1,279700
11,500167	0,5	1,281500
11,508500	0,5	1,275500
11,516833	0,5	1,274800
11,525167	0,5	1,271900
11,533500	0,5	1,267700
11,541833	0,5	1,263250
11,550167	0,5	1,252500
11,558500	0,5	1,251100
11,566833	0,5	1,250250
11,575167	0,5	1,247250
11,583500	0,5	1,247850
11,591833	0,5	1,249950
11,600167	0,5	1,247900
11,608500	0,5	1,251350
11,616833	0,5	1,256800
11,625167	0,5	1,258900
11,633500	0,5	1,263750
11,641833	0,5	1,271150
11,650167	0,5	1,275800
11,658500	0,5	1,276250
11,666833	0,5	1,289700
11,675167	0,5	1,300450
11,683500	0,5	1,313600
11,691833	0,5	1,327200
11,700167	0,5	1,338600
11,708500	0,5	1,357350
11,716833	0,5	1,376000
11,725167	0,5	1,389550
11,733500	0,5	1,397250
11,741833	0,5	1,402950
11,750167	0,5	1,399200
11,758500	0,5	1,393750
11,766833	0,5	1,387450
11,775167	0,5	1,379950
11,783500	0,5	1,371400
11,791833	0,5	1,368100
11,800167	0,5	1,365550
11,808500	0,5	1,361700
11,816833	0,5	1,368550
11,825167	0,5	1,374500
11,833500	0,5	1,380800
11,841833	0,5	1,386950
11,850167	0,5	1,393450
11,858500	0,5	1,413650
11,866833	0,5	1,433950
11,875167	0,5	1,455750
11,883500	0,5	1,487350
11,891833	0,5	1,519150
11,900167	0,5	1,562850
11,908500	0,5	1,602100
11,916833	0,5	1,652200
11,925167	0,5	1,688800
11,933500	0,5	1,721450
11,941833	0,5	1,743200
11,950167	0,5	1,750600
11,958500	0,5	1,742450
11,966833	0,5	1,737150
11,975167	0,5	1,728300
11,983500	0,5	1,722050
11,991833	0,5	1,717050
12,000167	0,5	1,716750
12,008500	0,5	1,723850
12,016833	0,5	1,719250
12,025167	0,5	1,705400
12,033500	0,5	1,678750
12,041833	0,5	1,651350
12,050167	0,5	1,621000
12,058500	0,5	1,594200
12,066833	0,5	1,568550
12,075167	0,5	1,546650
12,083500	0,5	1,536150
12,091833	0,5	1,530350
12,100167	0,5	1,517650
12,108500	0,5	1,511900
12,116833	0,5	1,509650
12,125167	0,5	1,502600
12,133500	0,5	1,492450
12,141833	0,5	1,486100
12,150167	0,5	1,478100
12,158500	0,5	1,477650
12,166833	0,5	1,475700
12,175167	0,5	1,476100
12,183500	0,5	1,475900
12,191833	0,5	1,476900
12,200167	0,5	1,477000
12,208500	0,5	1,479600
12,216833	0,5	1,484750
12,225167	0,5	1,490650
12,233500	0,5	1,505250
12,241833	0,5	1,515150
12,250167	0,5	1,522600
12,258500	0,5	1,532850
12,266833	0,5	1,538850
12,275167	0,5	1,538550
12,283500	0,5	1,530100
12,291833	0,5	1,516400
12,300167	0,5	1,504450
12,308500	0,5	1,491350
12,316833	0,5	1,479500
12,325167	0,5	1,468950
12,333500	0,5	1,460950
12,341833	0,5	1,457000
12,350167	0,5	1,451200
12,358500	0,5	1,449700
12,366833	0,5	1,449900
12,375167	0,5	1,449950
12,383500	0,5	1,451000
12,391833	0,5	1,446100
12,400167	0,5	1,445800
12,408500	0,5	1,448350
12,416833	0,5	1,450100
12,425167	0,5	1,445250
12,433500	0,5	1,434750
12,441833	0,5	1,432450
12,450167	0,5	1,431300
12,458500	0,5	1,436700
12,466833	0,5	1,434850
12,475167	0,5	1,441250
12,483500	0,5	1,447250
12,491833	0,5	1,455450
12,500167	0,5	1,462400
12,508500	0,5	1,471300
12,516833	0,5	1,479150
12,525167	0,5	1,485650
12,533500	0,5	1,490700
12,541833	0,5	1,486150
12,550167	0,5	1,484450
12,558500	0,5	1,481200
12,566833	0,5	1,473050
12,575167	0,5	1,462000
12,583500	0,5	1,452550
12,591833	0,5	1,448350
12,600167	0,5	1,455350
12,608500	0,5	1,450150
12,616833	0,5	1,453900
12,625167	0,5	1,461750
12,633500	0,5	1,466150
12,641833	0,5	1,465000
12,650167	0,5	1,472600
12,658500	0,5	1,474300
12,666833	0,5	1,477400
12,675167	0,5	1,479950
12,683500	0,5	1,481400
12,691833	0,5	1,466900
12,700167	0,5	1,467300
12,708500	0,5	1,467100
12,716833	0,5	1,460800
12,725167	0,5	1,453150
12,733500	0,5	1,443050
12,741833	0,5	1,449300
12,750167	0,5	1,452650
12,758500	0,5	1,460450
12,766833	0,5	1,468550
12,775167	0,5	1,475700
12,783500	0,5	1,478550
12,791833	0,5	1,479350
12,800167	0,5	1,468800
12,808500	0,5	1,455250
12,816833	0,5	1,437650
12,825167	0,5	1,425250
12,833500	0,5	1,412800
12,841833	0,5	1,396550
12,850167	0,5	1,396950
12,858500	0,5	1,390100
12,866833	0,5	1,383800
12,875167	0,5	1,374600
12,883500	0,5	1,367350
12,891833	0,5	1,368000
12,900167	0,5	1,372750
12,908500	0,5	1,374100
12,916833	0,5	1,376450
12,925167	0,5	1,379650
12,933500	0,5	1,378950
12,941833	0,5	1,384900
12,950167	0,5	1,385300
12,958500	0,5	1,379650
12,966833	0,5	1,375550
12,975167	0,5	1,375350
12,983500	0,5	1,378400
12,991833	0,5	1,377150
13,000167	0,5	1,387550
13,008500	0,5	1,384200
13,016833	0,5	1,382350
13,025167	0,5	1,374800
13,033500	0,5	1,366750
13,041833	0,5	1,368950
13,050167	0,5	1,369900
13,058500	0,5	1,368950
13,066833	0,5	1,370600
13,075167	0,5	1,369150
13,083500	0,5	1,368300
13,091833	0,5	1,366900
13,100167	0,5	1,354050
13,108500	0,5	1,352150
13,116833	0,5	1,342050
13,125167	0,5	1,351750
13,133500	0,5	1,344550
13,141833	0,5	1,348250
13,150167	0,5	1,346250
13,158500	0,5	1,338650
13,166833	0,5	1,321550
13,175167	0,5	1,309800
13,183500	0,5	1,307150
13,191833	0,5	1,310550
13,200167	0,5	1,309200
13,208500	0,5	1,307300
13,216833	0,5	1,303350
13,225167	0,5	1,297600
13,233500	0,5	1,292350
13,241833	0,5	1,287300
13,250167	0,5	1,287300
13,258500	0,5	1,284650
13,266833	0,5	1,292550
13,275167	0,5	1,282550
13,283500	0,5	1,275650
13,291833	0,5	1,274800
13,300167	0,5	1,275450
13,308500	0,5	1,273250
13,316833	0,5	1,269700
13,325167	0,5	1,265900
13,333500	0,5	1,271950
13,341833	0,5	1,273200
13,350167	0,5	1,280150
13,358500	0,5	1,276800
13,366833	0,5	1,277050
13,375167	0,5	1,274550
13,383500	0,5	1,270600
13,391833	0,5	1,265850
13,400167	0,5	1,260850
13,408500	0,5	1,256700
13,416833	0,5	1,255850
13,425167	0,5	1,246700
13,433500	0,5	1,246850
13,441833	0,5	1,246900
13,450167	0,5	1,240550
13,458500	0,5	1,236300
13,466833	0,5	1,227100
13,475167	0,5	1,225000
13,483500	0,5	1,218400
13,491833	0,5	1,222750
13,500167	0,5	1,217400
13,508500	0,5	1,220200
13,516833	0,5	1,219000
13,525167	0,5	1,218150
13,533500	0,5	1,217550
13,541833	0,5	1,218600
13,550167	0,5	1,214100
13,558500	0,5	1,213100
13,566833	0,5	1,215100
13,575167	0,5	1,206350
13,583500	0,5	1,210200
13,591833	0,5	1,214200
13,600167	0,5	1,208700
13,608500	0,5	1,206200
13,616833	0,5	1,192600
13,625167	0,5	1,193500
13,633500	0,5	1,201550
13,641833	0,5	1,195050
13,650167	0,5	1,196800
13,658500	0,5	1,193350
13,666833	0,5	1,197900
13,675167	0,5	1,189650
13,683500	0,5	1,192800
13,691833	0,5	1,189300
13,700167	0,5	1,185200
13,708500	0,5	1,184600
13,716833	0,5	1,184850
13,725167	0,5	1,167350
13,733500	0,5	1,178450
13,741833	0,5	1,172700
13,750167	0,5	1,169350
13,758500	0,5	1,166100
13,766833	0,5	1,159700
13,775167	0,5	1,171200
13,783500	0,5	1,173250
13,791833	0,5	1,177800
13,800167	0,5	1,180750
13,808500	0,5	1,186300
13,816833	0,5	1,180800
13,825167	0,5	1,193350
13,833500	0,5	1,195650
13,841833	0,5	1,196900
13,850167	0,5	1,182950
13,858500	0,5	1,172650
13,866833	0,5	1,149250
13,875167	0,5	1,125100
13,883500	0,5	1,108400
13,891833	0,5	1,094250
13,900167	0,5	1,066950
13,908500	0,5	1,037100
13,916833	0,5	1,000850
13,925167	0,5	0,968800
13,933500	0,5	0,890250
13,941833	0,5	0,687000
13,950167	0,5	0,410850
13,958500	0,5	0,161150
13,966833	0,5	-0,015750
13,975167	0,5	-0,125750
13,983500	0,5	-0,182000
13,991833	0,5	-0,220700
14,000167	0,5	-0,243550
14,008500	0,5	-0,264950
14,016833	0,5	-0,284300
14,025167	0,5	-0,300250
14,033500	0,5	-0,309250
14,041833	0,5	-0,327850
14,050167	0,5	-0,340400
14,058500	0,5	-0,356650
14,066833	0,5	-0,364400
14,075167	0,5	-0,363250
14,083500	0,5	-0,361350
14,091833	0,5	-0,364850
14,100167	0,5	-0,360000
14,108500	0,5	-0,356700
14,116833	0,5	-0,351850
14,125167	0,5	-0,346050
14,133500	0,5	-0,342550
14,141833	0,5	-0,330750
14,150167	0,5	-0,323750
14,158500	0,5	-0,311650
14,166833	0,5	-0,311200
14,175167	0,5	-0,295000
14,183500	0,5	-0,277350
14,191833	0,5	-0,262550
14,200167	0,5	-0,258350
14,208500	0,5	-0,253600
14,216833	0,5	-0,242150
14,225167	0,5	-0,225300
14,233500	0,5	-0,219900
14,241833	0,5	-0,212000
14,250167	0,5	-0,206050
14,258500	0,5	-0,199600
14,266833	0,5	-0,192900
14,275167	0,5	-0,186000
14,283500	0,5	-0,177350
14,291833	0,5	-0,173750
14,300167	0,5	-0,152800
14,308500	0,5	-0,152200
14,316833	0,5	-0,147800
14,325167	0,5	-0,135350
14,333500	0,5	-0,127250
14,341833	0,5	-0,127950
14,350167	0,5	-0,128400
14,358500	0,5	-0,127350
14,366833	0,5	-0,114650
14,375167	0,5	-0,105000
14,383500	0,5	-0,088150
14,391833	0,5	-0,077750
14,400167	0,5	-0,061400
14,408500	0,5	-0,050750
14,416833	0,5	-0,032650
14,425167	0,5	-0,015100
14,433500	0,5	-0,001900
14,441833	0,5	0,019250
14,450167	0,5	0,034450
14,458500	0,5	0,041300
14,466833	0,5	0,063300
14,475167	0,5	0,091150
14,483500	0,5	0,108200
14,491833	0,5	0,129900
14,500167	0,5	0,138200
14,508500	0,5	0,163650
14,516833	0,5	0,183650
14,525167	0,5	0,210250
14,533500	0,5	0,226950
14,541833	0,5	0,253550
14,550167	0,5	0,272000
14,558500	0,5	0,294400
14,566833	0,5	0,307800
14,575167	0,5	0,329050
14,583500	0,5	0,347950
14,591833	0,5	0,371750
14,600167	0,5	0,401200
14,608500	0,5	0,413700
14,616833	0,5	0,449700
14,625167	0,5	0,477000
14,633500	0,5	0,499200
14,641833	0,5	0,518700
14,650167	0,5	0,519950
14,658500	0,5	0,562250
14,666833	0,5	0,588550
14,675167	0,5	0,609200
14,683500	0,5	0,634900
14,691833	0,5	0,653850
14,700167	0,5	0,676250
14,708500	0,5	0,694250
14,716833	0,5	0,716250
14,725167	0,5	0,727800
14,733500	0,5	0,740800
14,741833	0,5	0,756750
14,750167	0,5	0,767100
14,758500	0,5	0,760750
14,766833	0,5	0,777900
14,775167	0,5	0,780500
14,783500	0,5	0,768150
14,791833	0,5	0,761150
14,800167	0,5	0,743350
14,808500	0,5	0,747050
14,816833	0,5	0,737400
14,825167	0,5	0,735800
14,833500	0,5	0,728300
14,841833	0,5	0,730200
14,850167	0,5	0,724000
14,858500	0,5	0,729200
14,866833	0,5	0,723900
14,875167	0,5	0,720250
14,883500	0,5	0,714300
14,891833	0,5	0,712200
14,900167	0,5	0,695050
14,908500	0,5	0,684950
14,916833	0,5	0,687400
14,925167	0,5	0,682300
14,933500	0,5	0,666000
14,941833	0,5	0,653950
14,950167	0,5	0,648450
14,958500	0,5	0,650250
14,966833	0,5	0,649500
14,975167	0,5	0,646700
14,983500	0,5	0,645200
14,991833	0,5	0,640450
15,000167	0,5	0,639000
15,008500	0,5	0,633200
15,016833	0,5	0,633250
15,025167	0,5	0,624600
15,033500	0,5	0,628450
15,041833	0,5	0,630650
15,050167	0,5	0,622300
15,058500	0,5	0,620800
15,066833	0,5	0,623650
15,075167	0,5	0,615050
15,083500	0,5	0,603950
15,091833	0,5	0,584650
15,100167	0,5	0,579050
15,108500	0,5	0,579450
15,116833	0,5	0,575500
15,125167	0,5	0,566300
15,133500	0,5	0,564600
15,141833	0,5	0,563450
15,150167	0,5	0,557200
15,158500	0,5	0,556050
15,166833	0,5	0,551650
15,175167	0,5	0,549500
15,183500	0,5	0,545150
15,191833	0,5	0,546500
15,200167	0,5	0,536150
15,208500	0,5	0,545000
15,216833	0,5	0,541450
15,225167	0,5	0,536900
15,233500	0,5	0,521800
15,241833	0,5	0,506400
15,250167	0,5	0,503350
15,258500	0,5	0,503950
15,266833	0,5	0,493300
15,275167	0,5	0,493700
15,283500	0,5	0,490050
15,291833	0,5	0,488200
15,300167	0,5	0,486050
15,308500	0,5	0,481250
15,316833	0,5	0,478200
15,325167	0,5	0,475900
15,333500	0,5	0,481150
15,341833	0,5	0,468750
15,350167	0,5	0,467550
15,358500	0,5	0,466950
15,366833	0,5	0,465450
15,375167	0,5	0,454950
15,383500	0,5	0,441050
15,391833	0,5	0,424650
15,400167	0,5	0,432250
15,408500	0,5	0,427750
15,416833	0,5	0,427000
15,425167	0,5	0,423700
15,433500	0,5	0,420750
15,441833	0,5	0,414350
15,450167	0,5	0,412450
15,458500	0,5	0,408050
15,466833	0,5	0,402750
15,475167	0,5	0,408000
15,483500	0,5	0,404400
15,491833	0,5	0,383950
15,500167	0,5	0,391200
15,508500	0,5	0,390850
15,516833	0,5	0,383850
15,525167	0,5	0,379700
15,533500	0,5	0,358150
15,541833	0,5	0,363900
15,550167	0,5	0,358350
15,558500	0,5	0,361350
15,566833	0,5	0,352250
15,575167	0,5	0,348550
15,583500	0,5	0,343800
15,591833	0,5	0,343300
15,600167	0,5	0,338850
15,608500	0,5	0,332650
15,616833	0,5	0,333200
15,625167	0,5	0,330500
15,633500	0,5	0,328150
15,641833	0,5	0,309950
15,650167	0,5	0,322800
15,658500	0,5	0,320700
15,666833	0,5	0,314000
15,675167	0,5	0,301450
15,683500	0,5	0,288350
15,691833	0,5	0,290700
15,700167	0,5	0,295300
15,708500	0,5	0,288350
15,716833	0,5	0,290200
15,725167	0,5	0,279450
15,733500	0,5	0,281250
15,741833	0,5	0,275150
15,750167	0,5	0,277750
15,758500	0,5	0,268650
15,766833	0,5	0,267100
15,775167	0,5	0,269050
15,783500	0,5	0,260300
15,791833	0,5	0,250400
15,800167	0,5	0,255800
15,808500	0,5	0,250000
15,816833	0,5	0,239850
15,825167	0,5	0,227800
15,833500	0,5	0,213550
15,841833	0,5	0,227600
15,850167	0,5	0,218450
15,858500	0,5	0,215550
15,866833	0,5	0,206550
15,875167	0,5	0,206100
15,883500	0,5	0,200650
15,891833	0,5	0,201750
15,900167	0,5	0,192950
15,908500	0,5	0,190800
15,916833	0,5	0,192650
15,925167	0,5	0,196550
15,933500	0,5	0,180100
15,941833	0,5	0,183250
15,950167	0,5	0,185200
15,958500	0,5	0,181900
15,966833	0,5	0,165950
15,975167	0,5	0,153350
15,983500	0,5	0,147050
15,991833	0,5	0,149500
16,000167	0,5	0,144200
16,008500	0,5	0,142100
16,016833	0,5	0,138000
16,025167	0,5	0,134800
16,033500	0,5	0,133700
16,041833	0,5	0,130200
16,050167	0,5	0,131450
16,058500	0,5	0,124750
16,066833	0,5	0,132000
16,075167	0,5	0,124050
16,083500	0,5	0,116850
16,091833	0,5	0,121600
16,100167	0,5	0,123800
16,108500	0,5	0,116700
16,116833	0,5	0,103150
16,125167	0,5	0,089800
16,133500	0,5	0,087850
16,141833	0,5	0,086400
16,150167	0,5	0,089650
16,158500	0,5	0,085950
16,166833	0,5	0,086600
16,175167	0,5	0,083400
16,183500	0,5	0,080500
16,191833	0,5	0,078800
16,200167	0,5	0,072400
16,208500	0,5	0,073600
16,216833	0,5	0,068750
16,225167	0,5	0,062350
16,233500	0,5	0,056150
16,241833	0,5	0,061850
16,250167	0,5	0,056050
16,258500	0,5	0,049900
16,266833	0,5	0,031000
16,275167	0,5	0,018850
16,283500	0,5	0,022450
16,291833	0,5	0,025850
16,300167	0,5	0,020000
16,308500	0,5	0,017350
16,316833	0,5	0,014850
16,325167	0,5	0,011850
16,333500	0,5	0,011150
16,341833	0,5	0,003100
16,350167	0,5	0,001950
16,358500	0,5	-0,005650
16,366833	0,5	0,001700
16,375167	0,5	-0,021550
16,383500	0,5	-0,016300
16,391833	0,5	-0,013900
16,400167	0,5	-0,017900
16,408500	0,5	-0,026550
16,416833	0,5	-0,046600
16,425167	0,5	-0,047850
16,433500	0,5	-0,046000
16,441833	0,5	-0,054200
16,450167	0,5	-0,052300
16,458500	0,5	-0,056900
16,466833	0,5	-0,061750
16,475167	0,5	-0,065100
16,483500	0,5	-0,066500
16,491833	0,5	-0,065350
16,500167	0,5	-0,071500
16,508500	0,5	-0,064600
16,516833	0,5	-0,071150
16,525167	0,5	-0,090400
16,533500	0,5	-0,083050
16,541833	0,5	-0,083400
16,550167	0,5	-0,095300
16,558500	0,5	-0,099900
16,566833	0,5	-0,121050
16,575167	0,5	-0,110850
16,583500	0,5	-0,118100
16,591833	0,5	-0,116800
16,600167	0,5	-0,123300
16,608500	0,5	-0,119450
16,616833	0,5	-0,128250
16,625167	0,5	-0,127100
16,633500	0,5	-0,126950
16,641833	0,5	-0,133400
16,650167	0,5	-0,139000
16,658500	0,5	-0,137650
16,666833	0,5	-0,151150
16,675167	0,5	-0,153850
16,683500	0,5	-0,148750
16,691833	0,5	-0,154050
16,700167	0,5	-0,160600
16,708500	0,5	-0,183650
16,716833	0,5	-0,188150
16,725167	0,5	-0,187850
16,733500	0,5	-0,187650
16,741833	0,5	-0,197550
16,750167	0,5	-0,197200
16,758500	0,5	-0,204850
16,766833	0,5	-0,201200
16,775167	0,5	-0,208800
16,783500	0,5	-0,210250
16,791833	0,5	-0,212950
16,800167	0,5	-0,221700
16,808500	0,5	-0,219650
16,816833	0,5	-0,223800
16,825167	0,5	-0,223000
16,833500	0,5	-0,221200
16,841833	0,5	-0,222350
16,850167	0,5	-0,233400
16,858500	0,5	-0,246350
16,866833	0,5	-0,250900
16,875167	0,5	-0,243100
16,883500	0,5	-0,251900
16,891833	0,5	-0,253050
16,900167	0,5	-0,260200
16,908500	0,5	-0,257300
16,916833	0,5	-0,263050
16,925167	0,5	-0,260600
16,933500	0,5	-0,265050
16,941833	0,5	-0,270500
16,950167	0,5	-0,272200
16,958500	0,5	-0,266150
16,966833	0,5	-0,281700
16,975167	0,5	-0,272450
16,983500	0,5	-0,274950
16,991833	0,5	-0,276350
17,000167	0,5	-0,289450
17,008500	0,5	-0,310050
17,016833	0,5	-0,307950
17,025167	0,5	-0,312500
17,033500	0,5	-0,311150
17,041833	0,5	-0,319900
17,050167	0,5	-0,318050
17,058500	0,5	-0,324700
17,066833	0,5	-0,323700
17,075167	0,5	-0,328850
17,083500	0,5	-0,330050
17,091833	0,5	-0,330450
17,100167	0,5	-0,324100
17,108500	0,5	-0,333500
17,116833	0,5	-0,337300
17,125167	0,5	-0,336550
17,133500	0,5	-0,343050
17,141833	0,5	-0,352200
17,150167	0,5	-0,370900
17,158500	0,5	-0,391000
17,166833	0,5	-0,385300
17,175167	0,5	-0,382650
17,183500	0,5	-0,385500
17,191833	0,5	-0,382200
17,200167	0,5	-0,382250
17,208500	0,5	-0,376300
17,216833	0,5	-0,369550
17,225167	0,5	-0,361400
17,233500	0,5	-0,361000
17,241833	0,5	-0,350250
17,250167	0,5	-0,351450
17,258500	0,5	-0,355200
17,266833	0,5	-0,360250
17,275167	0,5	-0,357550
17,283500	0,5	-0,373600
17,291833	0,5	-0,383200
17,300167	0,5	-0,403650
17,308500	0,5	-0,415250
17,316833	0,5	-0,416950
17,325167	0,5	-0,422400
17,333500	0,5	-0,425550
17,341833	0,5	-0,431000
17,350167	0,5	-0,429600
17,358500	0,5	-0,433000
17,366833	0,5	-0,428900
17,375167	0,5	-0,434250
17,383500	0,5	-0,435050
17,391833	0,5	-0,434850
17,400167	0,5	-0,435650
17,408500	0,5	-0,451750
17,416833	0,5	-0,440000
17,425167	0,5	-0,440550
17,433500	0,5	-0,444100
17,441833	0,5	-0,455750
17,450167	0,5	-0,470150
17,458500	0,5	-0,466850
17,466833	0,5	-0,463750
17,475167	0,5	-0,470500
17,483500	0,5	-0,466550
17,491833	0,5	-0,469250
17,500167	0,5	-0,470400
17,508500	0,5	-0,471650
17,516833	0,5	-0,470950
17,525167	0,5	-0,469500
17,533500	0,5	-0,470450
17,541833	0,5	-0,460350
17,550167	0,5	-0,469450
17,558500	0,5	-0,471500
17,566833	0,5	-0,471350
17,575167	0,5	-0,463200
17,583500	0,5	-0,474500
17,591833	0,5	-0,486300
17,600167	0,5	-0,494750
17,608500	0,5	-0,485700
17,616833	0,5	-0,490800
17,625167	0,5	-0,489950
17,633500	0,5	-0,495200
17,641833	0,5	-0,487450
17,650167	0,5	-0,488850
17,658500	0,5	-0,486150
17,666833	0,5	-0,489150
17,675167	0,5	-0,488950
17,683500	0,5	-0,483650
17,691833	0,5	-0,476700
17,700167	0,5	-0,489250
17,708500	0,5	-0,483500
17,716833	0,5	-0,476150
17,725167	0,5	-0,475850
17,733500	0,5	-0,479750
17,741833	0,5	-0,500200
17,750167	0,5	-0,492050
17,758500	0,5	-0,488450
17,766833	0,5	-0,490300
17,775167	0,5	-0,488450
17,783500	0,5	-0,485300
17,791833	0,5	-0,488350
17,800167	0,5	-0,483300
17,808500	0,5	-0,480850
17,816833	0,5	-0,481550
17,825167	0,5	-0,481100
17,833500	0,5	-0,476550
17,841833	0,5	-0,465250
17,850167	0,5	-0,475400
17,858500	0,5	-0,454600
17,866833	0,5	-0,449300
17,875167	0,5	-0,447750
17,883500	0,5	-0,457400
17,891833	0,5	-0,464950
17,900167	0,5	-0,457600
17,908500	0,5	-0,452450
17,916833	0,5	-0,459150
17,925167	0,5	-0,463900
17,933500	0,5	-0,457550
17,941833	0,5	-0,453850
17,950167	0,5	-0,456250
17,958500	0,5	-0,454200
17,966833	0,5	-0,451650
17,975167	0,5	-0,450200
17,983500	0,5	-0,445950
17,991833	0,5	-0,444750
18,000167	0,5	-0,454500
18,008500	0,5	-0,441050
18,016833	0,5	-0,442900
18,025167	0,5	-0,445300
18,033500	0,5	-0,457900
18,041833	0,5	-0,472000
18,050167	0,5	-0,460600
18,058500	0,5	-0,465600
18,066833	0,5	-0,458250
18,075167	0,5	-0,461750
18,083500	0,5	-0,459200
18,091833	0,5	-0,459500
18,100167	0,5	-0,453900
18,108500	0,5	-0,456500
18,116833	0,5	-0,457200
18,125167	0,5	-0,453600
18,133500	0,5	-0,441150
18,141833	0,5	-0,455150
18,150167	0,5	-0,451050
18,158500	0,5	-0,446650
18,166833	0,5	-0,456200
18,175167	0,5	-0,464650
18,183500	0,5	-0,480100
18,191833	0,5	-0,487250
18,200167	0,5	-0,491450
18,208500	0,5	-0,486950
18,216833	0,5	-0,493700
18,225167	0,5	-0,489500
18,233500	0,5	-0,498300
18,241833	0,5	-0,497300
18,250167	0,5	-0,499200
18,258500	0,5	-0,495550
18,266833	0,5	-0,498950
18,275167	0,5	-0,493600
18,283500	0,5	-0,503550
18,291833	0,5	-0,512000
18,300167	0,5	-0,513000
18,308500	0,5	-0,515050
18,316833	0,5	-0,522300
18,325167	0,5	-0,540150
18,333500	0,5	-0,555400
18,341833	0,5	-0,557350
18,350167	0,5	-0,555650
18,358500	0,5	-0,560750
18,366833	0,5	-0,564850
18,375167	0,5	-0,571000
18,383500	0,5	-0,566850
18,391833	0,5	-0,574950
18,400167	0,5	-0,577150
18,408500	0,5	-0,586050
18,416833	0,5	-0,581200
18,425167	0,5	-0,582450
18,433500	0,5	-0,598750
18,441833	0,5	-0,603650
18,450167	0,5	-0,597400
18,458500	0,5	-0,601600
18,466833	0,5	-0,609300
18,475167	0,5	-0,635950
18,483500	0,5	-0,643300
18,491833	0,5	-0,643750
18,500167	0,5	-0,650100
18,508500	0,5	-0,654850
18,516833	0,5	-0,661750
18,525167	0,5	-0,666450
18,533500	0,5	-0,676700
18,541833	0,5	-0,670650
18,550167	0,5	-0,681200
18,558500	0,5	-0,683300
18,566833	0,5	-0,682050
18,575167	0,5	-0,678600
18,583500	0,5	-0,702150
18,591833	0,5	-0,696500
18,600167	0,5	-0,699400
18,608500	0,5	-0,703750
18,616833	0,5	-0,713850
18,625167	0,5	-0,735000
18,633500	0,5	-0,735100
18,641833	0,5	-0,735900
18,650167	0,5	-0,745050
18,658500	0,5	-0,747200
18,666833	0,5	-0,751000
18,675167	0,5	-0,755600
18,683500	0,5	-0,756800
18,691833	0,5	-0,762850
18,700167	0,5	-0,766050
18,708500	0,5	-0,777350
18,716833	0,5	-0,767550
18,725167	0,5	-0,774700
18,733500	0,5	-0,795350
18,741833	0,5	-0,791600
18,750167	0,5	-0,795200
18,758500	0,5	-0,809500
18,766833	0,5	-0,824350
18,775167	0,5	-0,846450
18,783500	0,5	-0,839450
18,791833	0,5	-0,846950
18,800167	0,5	-0,851050
18,808500	0,5	-0,855250
18,816833	0,5	-0,853650
18,825167	0,5	-0,860600
18,833500	0,5	-0,863600
18,841833	0,5	-0,867100
18,850167	0,5	-0,872800
18,858500	0,5	-0,867300
18,866833	0,5	-0,861600
18,875167	0,5	-0,867850
18,883500	0,5	-0,876550
18,891833	0,5	-0,873000
18,900167	0,5	-0,875100
18,908500	0,5	-0,886100
18,916833	0,5	-0,904500
18,925167	0,5	-0,915200
18,933500	0,5	-0,911550
18,941833	0,5	-0,907700
18,950167	0,5	-0,919750
18,958500	0,5	-0,914950
18,966833	0,5	-0,926050
18,975167	0,5	-0,923400
18,983500	0,5	-0,927650
18,991833	0,5	-0,929000
19,000167	0,5	-0,935650
19,008500	0,5	-0,931500
19,016833	0,5	-0,930200
19,025167	0,5	-0,944800
19,033500	0,5	-0,943350
19,041833	0,5	-0,948600
19,050167	0,5	-0,953900
19,058500	0,5	-0,972250
19,066833	0,5	-0,991550
19,075167	0,5	-1,002050
19,083500	0,5	-1,000300
19,091833	0,5	-1,014300
19,100167	0,5	-1,018900
19,108500	0,5	-1,024250
19,116833	0,5	-1,029950
19,125167	0,5	-1,037600
19,133500	0,5	-1,042400
19,141833	0,5	-1,050500
19,150167	0,5	-1,060450
19,158500	0,5	-1,053100
19,166833	0,5	-1,062400
19,175167	0,5	-1,084000
19,183500	0,5	-1,080350
19,191833	0,5	-1,087750
19,200167	0,5	-1,106700
19,208500	0,5	-1,129250
19,216833	0,5	-1,145500
19,225167	0,5	-1,145900
19,233500	0,5	-1,155500
19,241833	0,5	-1,153400
19,250167	0,5	-1,164850
19,258500	0,5	-1,167200
19,266833	0,5	-1,173000
19,275167	0,5	-1,175750
19,283500	0,5	-1,181550
19,291833	0,5	-1,186450
19,300167	0,5	-1,177650
19,308500	0,5	-1,173350
19,316833	0,5	-1,186200
19,325167	0,5	-1,185900
19,333500	0,5	-1,178250
19,341833	0,5	-1,179700
19,350167	0,5	-1,177600
19,358500	0,5	-1,197550
19,366833	0,5	-1,199300
19,375167	0,5	-1,208600
19,383500	0,5	-1,216050
19,391833	0,5	-1,234250
19,400167	0,5	-1,238300
19,408500	0,5	-1,252800
19,416833	0,5	-1,258400
19,425167	0,5	-1,268350
19,433500	0,5	-1,274050
19,441833	0,5	-1,283300
19,450167	0,5	-1,276100
19,458500	0,5	-1,279800
19,466833	0,5	-1,295150
19,475167	0,5	-1,294150
19,483500	0,5	-1,297400
19,491833	0,5	-1,304000
19,500167	0,5	-1,315150
19,508500	0,5	-1,332500
19,516833	0,5	-1,338500
19,525167	0,5	-1,335350
19,533500	0,5	-1,342750
19,541833	0,5	-1,345000
19,550167	0,5	-1,351800
19,558500	0,5	-1,354050
19,566833	0,5	-1,360650
19,575167	0,5	-1,360950
19,583500	0,5	-1,369100
19,591833	0,5	-1,370750
19,600167	0,5	-1,362250
19,608500	0,5	-1,366750
19,616833	0,5	-1,380400
19,625167	0,5	-1,372950
19,633500	0,5	-1,376300
19,641833	0,5	-1,390450
19,650167	0,5	-1,404250
19,658500	0,5	-1,421700
19,666833	0,5	-1,411100
19,675167	0,5	-1,428700
19,683500	0,5	-1,433350
19,691833	0,5	-1,440850
19,700167	0,5	-1,438200
19,708500	0,5	-1,442650
19,716833	0,5	-1,439500
19,725167	0,5	-1,437950
19,733500	0,5	-1,434650
19,741833	0,5	-1,426300
19,750167	0,5	-1,418350
19,758500	0,5	-1,439850
19,766833	0,5	-1,446050
19,775167	0,5	-1,455150
19,783500	0,5	-1,464650
19,791833	0,5	-1,480400
19,800167	0,5	-1,509000
19,808500	0,5	-1,510900
19,816833	0,5	-1,514650
19,825167	0,5	-1,520150
19,833500	0,5	-1,528250
19,841833	0,5	-1,529850
19,850167	0,5	-1,535350
19,858500	0,5	-1,536450
19,866833	0,5	-1,545150
19,875167	0,5	-1,543250
19,883500	0,5	-1,552500
19,891833	0,5	-1,543900
19,900167	0,5	-1,545100
19,908500	0,5	-1,556650
19,916833	0,5	-1,553250
19,925167	0,5	-1,559850
19,933500	0,5	-1,569200
19,941833	0,5	-1,582850
19,950167	0,5	-1,603500
19,958500	0,5	-1,600100
19,966833	0,5	-1,601500
19,975167	0,5	-1,606750
19,983500	0,5	-1,610500
19,991833	0,5	-1,611500
20,000167	0,5	-1,610750
20,008500	0,5	-1,616950
20,016833	0,5	-1,613200
20,025167	0,5	-1,620350
20,033500	0,5	-1,619200
20,041833	0,5	-1,616400
20,050167	0,5	-1,620850
20,058500	0,5	-1,629950
20,066833	0,5	-1,787200
20,075167	0,5	-1,622000
20,083500	0,5	-1,639100
20,091833	0,5	-1,658450
20,100167	0,5	-1,674150
20,108500	0,5	-1,673950
20,116833	0,5	-1,677550
20,125167	0,5	-1,684350
20,133500	0,5	-1,686250
20,141833	0,5	-1,694300
20,150167	0,5	-1,697250
20,158500	0,5	-1,703550
20,166833	0,5	-1,713850
20,175167	0,5	-1,716800
20,183500	0,5	-1,711650
20,191833	0,5	-1,709500
20,200167	0,5	-1,723050
20,208500	0,5	-1,721850
20,216833	0,5	-1,718750
20,225167	0,5	-1,725700
20,233500	0,5	-1,737200
20,241833	0,5	-1,755550
20,250167	0,5	-1,758350
20,258500	0,5	-1,755150
20,266833	0,5	-1,755050
20,275167	0,5	-1,752400
20,283500	0,5	-1,754500
20,291833	0,5	-1,755250
20,300167	0,5	-1,751100
20,308500	0,5	-1,751050
20,316833	0,5	-1,748500
20,325167	0,5	-1,747150
20,333500	0,5	-1,727750
20,341833	0,5	-1,733350
20,350167	0,5	-1,738050
20,358500	0,5	-1,734900
20,366833	0,5	-1,734000
20,375167	0,5	-1,744600
20,383500	0,5	-1,755050
20,391833	0,5	-1,764650
20,400167	0,5	-1,761400
20,408500	0,5	-1,763400
20,416833	0,5	-1,759700
20,425167	0,5	-1,767650
20,433500	0,5	-1,763350
20,441833	0,5	-1,765350
20,450167	0,5	-1,759550
20,458500	0,5	-1,758800
20,466833	0,5	-1,759350
20,475167	0,5	-1,744750
20,483500	0,5	-1,733800
20,491833	0,5	-1,744600
20,500167	0,5	-1,746200
20,508500	0,5	-1,742750
20,516833	0,5	-1,749550
20,525167	0,5	-1,752250
20,533500	0,5	-1,777900
20,541833	0,5	-1,769050
20,550167	0,5	-1,763800
20,558500	0,5	-1,762850
20,566833	0,5	-1,763900
20,575167	0,5	-1,754750
20,583500	0,5	-1,754600
20,591833	0,5	-1,748100
20,600167	0,5	-1,739850
20,608500	0,5	-1,739150
20,616833	0,5	-1,732750
20,625167	0,5	-1,700150
20,633500	0,5	-1,704150
20,641833	0,5	-1,718100
20,650167	0,5	-1,719450
20,658500	0,5	-1,727150
20,666833	0,5	-1,736350
20,675167	0,5	-1,755350
20,683500	0,5	-1,772600
20,691833	0,5	-1,768800
20,700167	0,5	-1,772200
20,708500	0,5	-1,780100
20,716833	0,5	-1,781850
20,725167	0,5	-1,784650
20,733500	0,5	-1,791900
20,741833	0,5	-1,787550
20,750167	0,5	-1,793350
20,758500	0,5	-1,795200
20,766833	0,5	-1,790850
20,775167	0,5	-1,772350
20,783500	0,5	-1,772450
20,791833	0,5	-1,783550
20,800167	0,5	-1,781400
20,808500	0,5	-1,788850
20,816833	0,5	-1,806500
20,825167	0,5	-1,814250
20,833500	0,5	-1,826350
20,841833	0,5	-1,817900
20,850167	0,5	-1,826300
20,858500	0,5	-1,823900
20,866833	0,5	-1,825600
20,875167	0,5	-1,821950
20,883500	0,5	-1,826650
20,891833	0,5	-1,820250
20,900167	0,5	-1,818700
20,908500	0,5	-1,822050
20,916833	0,5	-1,798300
20,925167	0,5	-1,785250
20,933500	0,5	-1,787200
20,941833	0,5	-1,788700
20,950167	0,5	-1,785850
20,958500	0,5	-1,795550
20,966833	0,5	-1,804500
20,975167	0,5	-1,822500
20,983500	0,5	-1,818650
20,991833	0,5	-1,814900
21,000167	0,5	-1,807350
21,008500	0,5	-1,810550
21,016833	0,5	-1,801800
21,025167	0,5	-1,799200
21,033500	0,5	-1,789000
21,041833	0,5	-1,786300
21,050167	0,5	-1,782100
21,058500	0,5	-1,773850
21,066833	0,5	-1,746900
21,075167	0,5	-1,736600
21,083500	0,5	-1,744200
21,091833	0,5	-1,740850
21,100167	0,5	-1,747850
21,108500	0,5	-1,745650
21,116833	0,5	-1,764550
21,125167	0,5	-1,767350
21,133500	0,5	-1,767850
21,141833	0,5	-1,759550
21,150167	0,5	-1,761600
21,158500	0,5	-1,752750
21,166833	0,5	-1,747750
21,175167	0,5	-1,739950
21,183500	0,5	-1,736450
21,191833	0,5	-1,733550
21,200167	0,5	-1,729350
21,208500	0,5	-1,710550
21,216833	0,5	-1,690200
21,225167	0,5	-1,683550
21,233500	0,5	-1,684050
21,241833	0,5	-1,681950
21,250167	0,5	-1,681350
21,258500	0,5	-1,689950
21,266833	0,5	-1,698550
21,275167	0,5	-1,697650
21,283500	0,5	-1,688650
21,291833	0,5	-1,684700
21,300167	0,5	-1,675800
21,308500	0,5	-1,671350
21,316833	0,5	-1,662950
21,325167	0,5	-1,656400
21,333500	0,5	-1,649850
21,341833	0,5	-1,642300
21,350167	0,5	-1,636550
21,358500	0,5	-1,600950
21,366833	0,5	-1,579150
21,375167	0,5	-1,579400
21,383500	0,5	-1,576550
21,391833	0,5	-1,578250
21,400167	0,5	-1,592350
21,408500	0,5	-1,597050
21,416833	0,5	-1,599500
21,425167	0,5	-1,588850
21,433500	0,5	-1,584450
21,441833	0,5	-1,576350
21,450167	0,5	-1,574750
21,458500	0,5	-1,561850
21,466833	0,5	-1,558600
21,475167	0,5	-1,546550
21,483500	0,5	-1,539500
21,491833	0,5	-1,534450
21,500167	0,5	-1,511950
21,508500	0,5	-1,486800
21,516833	0,5	-1,481950
21,525167	0,5	-1,477450
21,533500	0,5	-1,474200
21,541833	0,5	-1,473300
21,550167	0,5	-1,466950
21,558500	0,5	-1,482350
21,566833	0,5	-1,455600
21,575167	0,5	-1,441800
21,583500	0,5	-1,419900
21,591833	0,5	-1,397550
21,600167	0,5	-1,370450
21,608500	0,5	-1,343850
21,616833	0,5	-1,308000
21,625167	0,5	-1,269450
21,633500	0,5	-1,237650
21,641833	0,5	-1,215500
21,650167	0,5	-1,195000
21,658500	0,5	-1,192000
21,666833	0,5	-1,212400
21,675167	0,5	-1,222450
21,683500	0,5	-1,232100
21,691833	0,5	-1,238450
21,700167	0,5	-1,242850
21,708500	0,5	-1,243200
21,716833	0,5	-1,227050
21,725167	0,5	-1,215050
21,733500	0,5	-1,209550
21,741833	0,5	-1,191850
21,750167	0,5	-1,180400
21,758500	0,5	-1,165100
21,766833	0,5	-1,151100
21,775167	0,5	-1,130500
21,783500	0,5	-1,113250
21,791833	0,5	-1,087150
21,800167	0,5	-1,050750
21,808500	0,5	-1,029850
21,816833	0,5	-1,014350
21,825167	0,5	-0,992450
21,833500	0,5	-0,968950
21,841833	0,5	-0,961900
21,850167	0,5	-0,954550
21,858500	0,5	-0,934600
21,866833	0,5	-0,898650
21,875167	0,5	-0,886800
21,883500	0,5	-0,857750
21,891833	0,5	-0,844650
21,900167	0,5	-0,817700
21,908500	0,5	-0,806200
21,916833	0,5	-0,786850
21,925167	0,5	-0,770050
21,933500	0,5	-0,752150
21,941833	0,5	-0,719050
21,950167	0,5	-0,694000
21,958500	0,5	-0,685250
21,966833	0,5	-0,656700
21,975167	0,5	-0,636650
21,983500	0,5	-0,624200
21,991833	0,5	-0,607500
22,000167	0,5	-0,602200
22,008500	0,5	-0,569200
22,016833	0,5	-0,540300
22,025167	0,5	-0,505200
22,033500	0,5	-0,479000
22,041833	0,5	-0,443000
22,050167	0,5	-0,415250
22,058500	0,5	-0,383750
22,066833	0,5	-0,353500
22,075167	0,5	-0,323950
22,083500	0,5	-0,290700
22,091833	0,5	-0,259400
22,100167	0,5	-0,232550
22,108500	0,5	-0,200250
22,116833	0,5	-0,153250
22,125167	0,5	-0,125850
22,133500	0,5	-0,086950
22,141833	0,5	-0,061800
22,150167	0,5	-0,017800
22,158500	0,5	0,023450
22,166833	0,5	0,077450
22,175167	0,5	0,122300
22,183500	0,5	0,176550
22,191833	0,5	0,223250
22,200167	0,5	0,275500
22,208500	0,5	0,324300
22,216833	0,5	0,369100
22,225167	0,5	0,414650
22,233500	0,5	0,448850
22,241833	0,5	0,492350
22,250167	0,5	0,537000
22,258500	0,5	0,603050
22,266833	0,5	0,650750
22,275167	0,5	0,690050
22,283500	0,5	0,724950
22,291833	0,5	0,766600
22,300167	0,5	0,814100
22,308500	0,5	0,873850
22,316833	0,5	0,917500
22,325167	0,5	0,970200
22,333500	0,5	1,006150
22,341833	0,5	1,049700
22,350167	0,5	1,097250
22,358500	0,5	1,145100
22,366833	0,5	1,193600
22,375167	0,5	1,237450
22,383500	0,5	1,282650
22,391833	0,5	1,323450
22,400167	0,5	1,395650
22,408500	0,5	1,458900
22,416833	0,5	1,514500
22,425167	0,5	1,568500
22,433500	0,5	1,618000
22,441833	0,5	1,680600
22,450167	0,5	1,754800
22,458500	0,5	1,820850
22,466833	0,5	1,890850
22,475167	0,5	1,955600
22,483500	0,5	2,020250
22,491833	0,5	2,089250
22,500167	0,5	2,159400
22,508500	0,5	2,223650
22,516833	0,5	2,286500
22,525167	0,5	2,331000
22,533500	0,5	2,390400
22,541833	0,5	2,460250
22,550167	0,5	2,548850
22,558500	0,5	2,613250
22,566833	0,5	2,666600
22,575167	0,5	2,726550
22,583500	0,5	2,752750
22,591833	0,5	2,811200
22,600167	0,5	2,843950
22,608500	0,5	2,890150
22,616833	0,5	2,917350
22,625167	0,5	2,956650
22,633500	0,5	2,977850
22,641833	0,5	3,003750
22,650167	0,5	3,017550
22,658500	0,5	3,022850
22,666833	0,5	3,019100
22,675167	0,5	2,959000
22,683500	0,5	2,957050
22,691833	0,5	2,942750
22,700167	0,5	2,911100
22,708500	0,5	2,857500
22,716833	0,5	2,787350
22,725167	0,5	2,705950
22,733500	0,5	2,624050
22,741833	0,5	2,552900
22,750167	0,5	2,478650
22,758500	0,5	2,385950
22,766833	0,5	2,302750
22,775167	0,5	2,208850
22,783500	0,5	2,112500
22,791833	0,5	2,000450
22,800167	0,5	1,877400
22,808500	0,5	1,742700
22,816833	0,5	1,573700
22,825167	0,5	1,409750
22,833500	0,5	1,270350
22,841833	0,5	1,131350
22,850167	0,5	0,967600
22,858500	0,5	0,799350
22,866833	0,5	0,644400
22,875167	0,5	0,478600
22,883500	0,5	0,319900
22,891833	0,5	0,160600
22,900167	0,5	0,014550
22,908500	0,5	-0,134700
22,916833	0,5	-0,274650
22,925167	0,5	-0,416900
22,933500	0,5	-0,550950
22,941833	0,5	-0,689750
22,950167	0,5	-0,821600
22,958500	0,5	-0,952050
22,966833	0,5	-1,073600
22,975167	0,5	-1,199450
22,983500	0,5	-1,326900
22,991833	0,5	-1,480650
23,000167	0,5	-1,595550
23,008500	0,5	-1,697800
23,016833	0,5	-1,794200
23,025167	0,5	-1,880750
23,033500	0,5	-1,978050
23,041833	0,5	-2,051150
23,050167	0,5	-2,131450
23,058500	0,5	-2,194950
23,066833	0,5	-2,262750
23,075167	0,5	-2,313900
23,083500	0,5	-2,373900
23,091833	0,5	-2,423550
23,100167	0,5	-2,475550
23,108500	0,5	-2,505050
23,116833	0,5	-2,554100
23,125167	0,5	-2,589500
23,133500	0,5	-2,650800
23,141833	0,5	-2,712400
23,150167	0,5	-2,738500
23,158500	0,5	-2,768700
23,166833	0,5	-2,773550
23,175167	0,5	-2,790450
23,183500	0,5	-2,795100
23,191833	0,5	-2,804100
23,200167	0,5	-2,796500
23,208500	0,5	-2,794700
23,216833	0,5	-2,776600
23,225167	0,5	-2,775200
23,233500	0,5	-2,761450
23,241833	0,5	-2,752250
23,250167	0,5	-2,740750
23,258500	0,5	-2,722200
23,266833	0,5	-2,722800
23,275167	0,5	-2,691100
23,283500	0,5	-2,698750
23,291833	0,5	-2,715800
23,300167	0,5	-2,702150
23,308500	0,5	-2,685300
23,316833	0,5	-2,659650
23,325167	0,5	-2,639200
23,333500	0,5	-2,620900
23,341833	0,5	-2,591600
23,350167	0,5	-2,564250
23,358500	0,5	-2,527750
23,366833	0,5	-2,496250
23,375167	0,5	-2,458550
23,383500	0,5	-2,433550
23,391833	0,5	-2,396800
23,400167	0,5	-2,363650
23,408500	0,5	-2,380350
23,416833	0,5	-2,327450
23,425167	0,5	-2,278350
23,433500	0,5	-2,260700
23,441833	0,5	-2,259200
23,450167	0,5	-2,240350
23,458500	0,5	-2,218700
23,466833	0,5	-2,198300
23,475167	0,5	-2,186850
23,483500	0,5	-2,167600
23,491833	0,5	-2,145250
23,500167	0,5	-2,121200
23,508500	0,5	-2,105100
23,516833	0,5	-2,081550
23,525167	0,5	-2,061250
23,533500	0,5	-2,040350
23,541833	0,5	-2,022650
23,550167	0,5	-2,028750
23,558500	0,5	-2,062200
23,566833	0,5	-2,034750
23,575167	0,5	-1,963100
23,583500	0,5	-1,942450
23,591833	0,5	-1,934250
23,600167	0,5	-1,927050
23,608500	0,5	-1,918150
23,616833	0,5	-1,907000
23,625167	0,5	-1,894350
23,633500	0,5	-1,886000
23,641833	0,5	-1,878600
23,650167	0,5	-1,866450
23,658500	0,5	-1,859500
23,666833	0,5	-1,852550
23,675167	0,5	-1,844850
23,683500	0,5	-1,839250
23,691833	0,5	-1,837450
23,700167	0,5	-1,947350
23,708500	0,5	-1,936200
23,716833	0,5	-1,905950
23,725167	0,5	-1,853000
23,733500	0,5	-1,838950
23,741833	0,5	-1,837150
23,750167	0,5	-1,837100
23,758500	0,5	-1,846500
23,766833	0,5	-1,836150
23,775167	0,5	-1,829300
23,783500	0,5	-1,821850
23,791833	0,5	-1,812600
23,800167	0,5	-1,801050
23,808500	0,5	-1,792800
23,816833	0,5	-1,781150
23,825167	0,5	-1,770000
23,833500	0,5	-1,760600
23,841833	0,5	-1,761650
23,850167	0,5	-1,903450
23,858500	0,5	-1,846700
23,866833	0,5	-1,821500
23,875167	0,5	-1,764250
23,883500	0,5	-1,758450
23,891833	0,5	-1,748550
23,900167	0,5	-1,753200
23,908500	0,5	-1,762650
23,916833	0,5	-1,755900
23,925167	0,5	-1,746350
23,933500	0,5	-1,742800
23,941833	0,5	-1,733400
23,950167	0,5	-1,725750
23,958500	0,5	-1,710900
23,966833	0,5	-1,700800
23,975167	0,5	-1,691650
23,983500	0,5	-1,681050
23,991833	0,5	-1,734500
24,000167	0,5	-1,785500
24,008500	0,5	-1,748000
24,016833	0,5	-1,699400
24,025167	0,5	-1,648650
24,033500	0,5	-1,632900
24,041833	0,5	-1,624900
24,050167	0,5	-1,624600
24,058500	0,5	-1,630000
24,066833	0,5	-1,605200
24,075167	0,5	-1,595150
24,083500	0,5	-1,573150
24,091833	0,5	-1,561550
24,100167	0,5	-1,540700
24,108500	0,5	-1,528950
24,116833	0,5	-1,512850
24,125167	0,5	-1,498550
24,133500	0,5	-1,491300
24,141833	0,5	-1,573350
24,150167	0,5	-1,569850
24,158500	0,5	-1,542400
24,166833	0,5	-1,495250
24,175167	0,5	-1,464250
24,183500	0,5	-1,456050
24,191833	0,5	-1,446550
24,200167	0,5	-1,452950
24,208500	0,5	-1,440300
24,216833	0,5	-1,429850
24,225167	0,5	-1,406100
24,233500	0,5	-1,394800
24,241833	0,5	-1,372400
24,250167	0,5	-1,354950
24,258500	0,5	-1,332100
24,266833	0,5	-1,343900
24,275167	0,5	-1,291300
24,283500	0,5	-1,286750
24,291833	0,5	-1,352500
24,300167	0,5	-1,328150
24,308500	0,5	-1,295000
24,316833	0,5	-1,254300
24,325167	0,5	-1,224900
24,333500	0,5	-1,217650
24,341833	0,5	-1,211100
24,350167	0,5	-1,217500
24,358500	0,5	-1,205550
24,366833	0,5	-1,190150
24,375167	0,5	-1,181050
24,383500	0,5	-1,166750
24,391833	0,5	-1,153000
24,400167	0,5	-1,139000
24,408500	0,5	-1,126900
24,416833	0,5	-1,110850
24,425167	0,5	-1,105950
24,433500	0,5	-1,122700
24,441833	0,5	-1,142250
24,450167	0,5	-1,123600
24,458500	0,5	-1,093750
24,466833	0,5	-1,061900
24,475167	0,5	-1,045950
24,483500	0,5	-1,033450
24,491833	0,5	-1,032000
24,500167	0,5	-1,024100
24,508500	0,5	-0,998750
24,516833	0,5	-0,987450
24,525167	0,5	-0,973250
24,533500	0,5	-0,973150
24,541833	0,5	-0,949950
24,550167	0,5	-0,938000
24,558500	0,5	-0,923000
24,566833	0,5	-0,912900
24,575167	0,5	-0,902800
24,583500	0,5	-0,944200
24,591833	0,5	-0,924150
24,600167	0,5	-0,919600
24,608500	0,5	-0,891250
24,616833	0,5	-0,876200
24,625167	0,5	-0,862950
24,633500	0,5	-0,860900
24,641833	0,5	-0,863650
24,650167	0,5	-0,857700
24,658500	0,5	-0,844050
24,666833	0,5	-0,838350
24,675167	0,5	-0,829300
24,683500	0,5	-0,815900
24,691833	0,5	-0,804150
24,700167	0,5	-0,790950
24,708500	0,5	-0,780750
24,716833	0,5	-0,766950
24,725167	0,5	-0,764000
24,733500	0,5	-0,780600
24,741833	0,5	-0,765000
24,750167	0,5	-0,753000
24,758500	0,5	-0,730350
24,766833	0,5	-0,716450
24,775167	0,5	-0,713250
24,783500	0,5	-0,707700
24,791833	0,5	-0,712500
24,800167	0,5	-0,701200
24,808500	0,5	-0,695150
24,816833	0,5	-0,686250
24,825167	0,5	-0,682950
24,833500	0,5	-0,677000
24,841833	0,5	-0,669000
24,850167	0,5	-0,661850
24,858500	0,5	-0,653250
24,866833	0,5	-0,647350
24,875167	0,5	-0,648450
24,883500	0,5	-0,654850
24,891833	0,5	-0,640600
24,900167	0,5	-0,633550
24,908500	0,5	-0,618150
24,916833	0,5	-0,611500
24,925167	0,5	-0,600450
24,933500	0,5	-0,602150
24,941833	0,5	-0,599550
24,950167	0,5	-0,590400
24,958500	0,5	-0,580950
24,966833	0,5	-0,574250
24,975167	0,5	-0,567800
24,983500	0,5	-0,563950
24,991833	0,5	-0,554450
25,000167	0,5	-0,545800
25,008500	0,5	-0,539350
25,016833	0,5	-0,533650
25,025167	0,5	-0,538900
25,033500	0,5	-0,533200
25,041833	0,5	-0,526050
25,050167	0,5	-0,520350
25,058500	0,5	-0,514700
25,066833	0,5	-0,511350
25,075167	0,5	-0,509350
25,083500	0,5	-0,508850
25,091833	0,5	-0,508750
25,100167	0,5	-0,503400
25,108500	0,5	-0,498000
25,116833	0,5	-0,492600
25,125167	0,5	-0,489600
25,133500	0,5	-0,480100
25,141833	0,5	-0,475200
25,150167	0,5	-0,466150
25,158500	0,5	-0,461700
25,166833	0,5	-0,454150
25,175167	0,5	-0,449550
25,183500	0,5	-0,443700
25,191833	0,5	-0,438800
25,200167	0,5	-0,435100
25,208500	0,5	-0,431950
25,216833	0,5	-0,429350
25,225167	0,5	-0,425600
25,233500	0,5	-0,426800
25,241833	0,5	-0,424100
25,250167	0,5	-0,421250
25,258500	0,5	-0,422300
25,266833	0,5	-0,417850
25,275167	0,5	-0,419450
25,283500	0,5	-0,413200
25,291833	0,5	-0,410900
25,300167	0,5	-0,409000
25,308500	0,5	-0,405750
25,316833	0,5	-0,403050
25,325167	0,5	-0,394700
25,333500	0,5	-0,389950
25,341833	0,5	-0,388350
25,350167	0,5	-0,388650
25,358500	0,5	-0,384950
25,366833	0,5	-0,380700
25,375167	0,5	-0,375950
25,383500	0,5	-0,373100
25,391833	0,5	-0,371100
25,400167	0,5	-0,368800
25,408500	0,5	-0,365700
25,416833	0,5	-0,361750
25,425167	0,5	-0,362100
25,433500	0,5	-0,362700
25,441833	0,5	-0,359600
25,450167	0,5	-0,356600
25,458500	0,5	-0,354600
25,466833	0,5	-0,348100
25,475167	0,5	-0,345800
25,483500	0,5	-0,343000
25,491833	0,5	-0,348800
25,500167	0,5	-0,350900
25,508500	0,5	-0,348900
25,516833	0,5	-0,348550
25,525167	0,5	-0,338700
25,533500	0,5	-0,339300
25,541833	0,5	-0,339450
25,550167	0,5	-0,335300
25,558500	0,5	-0,331450
25,566833	0,5	-0,330400
25,575167	0,5	-0,328550
25,583500	0,5	-0,324700
25,591833	0,5	-0,322900
25,600167	0,5	-0,317400
25,608500	0,5	-0,314750
25,616833	0,5	-0,303250
25,625167	0,5	-0,309750
25,633500	0,5	-0,297500
25,641833	0,5	-0,308900
25,650167	0,5	-0,308600
25,658500	0,5	-0,310300
25,666833	0,5	-0,306800
25,675167	0,5	-0,300200
25,683500	0,5	-0,303050
25,691833	0,5	-0,304500
25,700167	0,5	-0,301450
25,708500	0,5	-0,300050
25,716833	0,5	-0,299900
25,725167	0,5	-0,297450
25,733500	0,5	-0,297750
25,741833	0,5	-0,295850
25,750167	0,5	-0,294450
25,758500	0,5	-0,285200
25,766833	0,5	-0,282300
25,775167	0,5	-0,282300
25,783500	0,5	-0,276250
25,791833	0,5	-0,285800
25,800167	0,5	-0,281900
25,808500	0,5	-0,278800
25,816833	0,5	-0,275000
25,825167	0,5	-0,258800
25,833500	0,5	-0,265200
25,841833	0,5	-0,264550
25,850167	0,5	-0,265900
25,858500	0,5	-0,261950
25,866833	0,5	-0,261800
25,875167	0,5	-0,261150
25,883500	0,5	-0,261850
25,891833	0,5	-0,262450
25,900167	0,5	-0,254900
25,908500	0,5	-0,252600
25,916833	0,5	-0,248300
25,925167	0,5	-0,242900
25,933500	0,5	-0,240650
25,941833	0,5	-0,248300
25,950167	0,5	-0,244150
25,958500	0,5	-0,243350
25,966833	0,5	-0,234400
25,975167	0,5	-0,223800
25,983500	0,5	-0,219350
25,991833	0,5	-0,222950
26,000167	0,5	-0,213700
