File Path	chrom://chromeleon01/ikbm_chromeleon/2022/ICS-5000/ED1/Esteban/20220612_Cell_7_4_eg.seq/326.smp/ED_1.channel/ED_1.chm
Channel	ED_1

Injection Information:
Data Vault	ikbm_chromeleon
Injection	CelS2_06h-EGS_2
Injection Number	82
Position	GC8
Comment	
Processing Method	Stop sequence after Cell Death
Instrument Method	ICS5000_PA200_FullNative_Ox_26min_ED1
Type	Unknown
Status	Finished
Injection Date	14.06.2022
Injection Time	06:40:59
Injection Volume (µl)	5,0
Dilution Factor	1,0000
Weight	1,0000

Chromatogram Data Information:
Time Min. (min)	0,000333
Time Max. (min)	26,000333
Data Points	3121
Detector	EDet1
Generating Data System	Chromeleon 7.2.9.11323
Exporting Data System	Chromeleon 7.2.9.0
Operator	Instrument Controller
Signal Quantity	
Signal Unit	nC
Signal Min.	-2,648350
Signal Max.	213,946403
Channel	ED_1
Driver Name	DC-5000
Channel Type	Evaluation
Min. Step (s)	0,5
Max. Step (s)	0,5
Average Step (s)	0,5

Signal Parameter Information:
Signal Info	

Chromatogram Data:
Time (min)	Step (s)	Value (nC)
0,000333	n.a.	-0,037150
0,008667	0,5	-0,030850
0,017000	0,5	-0,028750
0,025333	0,5	-0,002150
0,033667	0,5	-0,003600
0,042000	0,5	0,009500
0,050333	0,5	0,000150
0,058667	0,5	0,004750
0,067000	0,5	-0,003450
0,075333	0,5	0,000150
0,083667	0,5	-0,001100
0,092000	0,5	-0,027950
0,100333	0,5	-0,027850
0,108667	0,5	-0,007700
0,117000	0,5	-0,020600
0,125333	0,5	-0,036900
0,133667	0,5	-0,024850
0,142000	0,5	-0,018850
0,150333	0,5	0,007500
0,158667	0,5	0,006350
0,167000	0,5	0,011350
0,175333	0,5	-0,002350
0,183667	0,5	0,004600
0,192000	0,5	-0,008600
0,200333	0,5	-0,003800
0,208667	0,5	-0,020450
0,217000	0,5	-0,020050
0,225333	0,5	-0,026050
0,233667	0,5	-0,028050
0,242000	0,5	-0,047600
0,250333	0,5	-0,036000
0,258667	0,5	-0,024950
0,267000	0,5	-0,042750
0,275333	0,5	-0,056250
0,283667	0,5	-0,049350
0,292000	0,5	-0,022200
0,300333	0,5	0,001750
0,308667	0,5	-0,005950
0,317000	0,5	-0,030400
0,325333	0,5	-0,042550
0,333667	0,5	-0,049300
0,342000	0,5	-0,046100
0,350333	0,5	-0,052900
0,358667	0,5	-0,050150
0,367000	0,5	-0,060800
0,375333	0,5	-0,052350
0,383667	0,5	-0,065800
0,392000	0,5	-0,074200
0,400333	0,5	-0,062950
0,408667	0,5	-0,060350
0,417000	0,5	-0,079650
0,425333	0,5	-0,084200
0,433667	0,5	-0,082800
0,442000	0,5	-0,052900
0,450333	0,5	-0,048100
0,458667	0,5	-0,061850
0,467000	0,5	-0,063600
0,475333	0,5	-0,060000
0,483667	0,5	-0,058150
0,492000	0,5	-0,065700
0,500333	0,5	-0,065300
0,508667	0,5	-0,077350
0,517000	0,5	-0,069950
0,525333	0,5	-0,078500
0,533667	0,5	-0,081600
0,542000	0,5	-0,097800
0,550333	0,5	-0,064750
0,558667	0,5	-0,082750
0,567000	0,5	-0,092500
0,575333	0,5	-0,096550
0,583667	0,5	-0,083700
0,592000	0,5	-0,061000
0,600333	0,5	-0,061350
0,608667	0,5	-0,068850
0,617000	0,5	-0,065150
0,625333	0,5	-0,070700
0,633667	0,5	-0,068700
0,642000	0,5	-0,067400
0,650333	0,5	-0,074550
0,658667	0,5	-0,075850
0,667000	0,5	-0,077050
0,675333	0,5	-0,067500
0,683667	0,5	-0,087900
0,692000	0,5	-0,093900
0,700333	0,5	-0,066850
0,708667	0,5	-0,086300
0,717000	0,5	-0,090700
0,725333	0,5	-0,085550
0,733667	0,5	-0,076850
0,742000	0,5	-0,038700
0,750333	0,5	-0,055600
0,758667	0,5	-0,050050
0,767000	0,5	-0,062300
0,775333	0,5	-0,053300
0,783667	0,5	-0,060800
0,792000	0,5	-0,054300
0,800333	0,5	-0,059000
0,808667	0,5	-0,060950
0,817000	0,5	-0,058200
0,825333	0,5	-0,063800
0,833667	0,5	-0,069800
0,842000	0,5	-0,071200
0,850333	0,5	-0,049700
0,858667	0,5	-0,072950
0,867000	0,5	-0,069750
0,875333	0,5	-0,069300
0,883667	0,5	-0,044700
0,892000	0,5	-0,025850
0,900333	0,5	-0,031250
0,908667	0,5	-0,044950
0,917000	0,5	-0,035350
0,925333	0,5	-0,039500
0,933667	0,5	-0,032450
0,942000	0,5	-0,042650
0,950333	0,5	-0,043650
0,958667	0,5	-0,049600
0,967000	0,5	-0,044300
0,975333	0,5	-0,039700
0,983667	0,5	-0,041850
0,992000	0,5	-0,040400
1,000333	0,5	-0,036600
1,008667	0,5	-0,058400
1,017000	0,5	-0,056750
1,025333	0,5	-0,051100
1,033667	0,5	-0,032700
1,042000	0,5	-0,009000
1,050333	0,5	-0,020550
1,058667	0,5	-0,013250
1,067000	0,5	-0,022850
1,075333	0,5	-0,019350
1,083667	0,5	-0,026350
1,092000	0,5	-0,021850
1,100333	0,5	-0,031050
1,108667	0,5	-0,025650
1,117000	0,5	-0,028500
1,125333	0,5	-0,040250
1,133667	0,5	-0,044900
1,142000	0,5	-0,018250
1,150333	0,5	-0,037300
1,158667	0,5	-0,042900
1,167000	0,5	-0,039150
1,175333	0,5	-0,026250
1,183667	0,5	-0,002550
1,192000	0,5	-0,002550
1,200333	0,5	-0,000850
1,208667	0,5	-0,001850
1,217000	0,5	-0,000900
1,225333	0,5	-0,006600
1,233667	0,5	-0,008050
1,242000	0,5	-0,013400
1,250333	0,5	-0,014400
1,258667	0,5	-0,018900
1,267000	0,5	-0,012350
1,275333	0,5	-0,027600
1,283667	0,5	-0,014050
1,292000	0,5	-0,000200
1,300333	0,5	-0,014900
1,308667	0,5	-0,032700
1,317000	0,5	-0,026300
1,325333	0,5	-0,015100
1,333667	0,5	0,007400
1,342000	0,5	0,008300
1,350333	0,5	0,005050
1,358667	0,5	-0,000150
1,367000	0,5	0,000550
1,375333	0,5	-0,000100
1,383667	0,5	-0,008400
1,392000	0,5	-0,009100
1,400333	0,5	-0,015200
1,408667	0,5	-0,007750
1,417000	0,5	-0,011650
1,425333	0,5	-0,015200
1,433667	0,5	-0,009150
1,442000	0,5	-0,004750
1,450333	0,5	-0,025300
1,458667	0,5	-0,027150
1,467000	0,5	-0,026000
1,475333	0,5	-0,004300
1,483667	0,5	-0,002350
1,492000	0,5	-0,011850
1,500333	0,5	-0,021000
1,508667	0,5	-0,018000
1,517000	0,5	-0,026900
1,525333	0,5	-0,022050
1,533667	0,5	-0,032750
1,542000	0,5	-0,037650
1,550333	0,5	-0,051100
1,558667	0,5	-0,127700
1,567000	0,5	-0,344450
1,575333	0,5	-0,835750
1,583667	0,5	-1,244200
1,592000	0,5	-0,920300
1,600333	0,5	1,166600
1,608667	0,5	6,561550
1,617000	0,5	16,952500
1,625333	0,5	30,762200
1,633667	0,5	41,612651
1,642000	0,5	43,877501
1,650333	0,5	38,533501
1,658667	0,5	30,532850
1,667000	0,5	23,481750
1,675333	0,5	18,319400
1,683667	0,5	14,823900
1,692000	0,5	12,556150
1,700333	0,5	11,260050
1,708667	0,5	10,691500
1,717000	0,5	10,393700
1,725333	0,5	9,868300
1,733667	0,5	9,045550
1,742000	0,5	8,096400
1,750333	0,5	7,318900
1,758667	0,5	6,779600
1,767000	0,5	6,533500
1,775333	0,5	6,674800
1,783667	0,5	7,107500
1,792000	0,5	7,680900
1,800333	0,5	8,096000
1,808667	0,5	8,255100
1,817000	0,5	8,139750
1,825333	0,5	7,904450
1,833667	0,5	7,671000
1,842000	0,5	7,482050
1,850333	0,5	7,193250
1,858667	0,5	6,755100
1,867000	0,5	6,247350
1,875333	0,5	5,804950
1,883667	0,5	5,464200
1,892000	0,5	5,184050
1,900333	0,5	4,959600
1,908667	0,5	4,755050
1,917000	0,5	4,617650
1,925333	0,5	4,583500
1,933667	0,5	4,625450
1,942000	0,5	4,664050
1,950333	0,5	4,649950
1,958667	0,5	4,625150
1,967000	0,5	4,824200
1,975333	0,5	5,570950
1,983667	0,5	7,472150
1,992000	0,5	11,784550
2,000333	0,5	20,708700
2,008667	0,5	34,984201
2,017000	0,5	49,695151
2,025333	0,5	55,988601
2,033667	0,5	50,842251
2,042000	0,5	39,988201
2,050333	0,5	30,240400
2,058667	0,5	23,769650
2,067000	0,5	19,642700
2,075333	0,5	16,589450
2,083667	0,5	14,148900
2,092000	0,5	12,352100
2,100333	0,5	11,230500
2,108667	0,5	10,814000
2,117000	0,5	11,130600
2,125333	0,5	12,028950
2,133667	0,5	12,971050
2,142000	0,5	13,364750
2,150333	0,5	12,973300
2,158667	0,5	12,101250
2,167000	0,5	11,208750
2,175333	0,5	10,547600
2,183667	0,5	10,018150
2,192000	0,5	9,556950
2,200333	0,5	9,115050
2,208667	0,5	8,703200
2,217000	0,5	8,395750
2,225333	0,5	8,196050
2,233667	0,5	8,047050
2,242000	0,5	7,908450
2,250333	0,5	7,757500
2,258667	0,5	7,635500
2,267000	0,5	7,580400
2,275333	0,5	7,655400
2,283667	0,5	7,884600
2,292000	0,5	8,206150
2,300333	0,5	8,443900
2,308667	0,5	8,441750
2,317000	0,5	8,259000
2,325333	0,5	8,034050
2,333667	0,5	7,842850
2,342000	0,5	7,755450
2,350333	0,5	7,768300
2,358667	0,5	7,857450
2,367000	0,5	8,027550
2,375333	0,5	8,235400
2,383667	0,5	8,485600
2,392000	0,5	8,717050
2,400333	0,5	8,912650
2,408667	0,5	9,038950
2,417000	0,5	9,149250
2,425333	0,5	9,267300
2,433667	0,5	9,429550
2,442000	0,5	9,606800
2,450333	0,5	9,699550
2,458667	0,5	9,546350
2,467000	0,5	9,216750
2,475333	0,5	8,847450
2,483667	0,5	8,554700
2,492000	0,5	8,361150
2,500333	0,5	8,245300
2,508667	0,5	8,169150
2,517000	0,5	8,110550
2,525333	0,5	8,049100
2,533667	0,5	8,005950
2,542000	0,5	7,990450
2,550333	0,5	7,979200
2,558667	0,5	7,998000
2,567000	0,5	8,029800
2,575333	0,5	8,113750
2,583667	0,5	8,268850
2,592000	0,5	8,586350
2,600333	0,5	9,168950
2,608667	0,5	10,024800
2,617000	0,5	11,047600
2,625333	0,5	11,886900
2,633667	0,5	12,314100
2,642000	0,5	12,361650
2,650333	0,5	12,316500
2,658667	0,5	12,565000
2,667000	0,5	13,412650
2,675333	0,5	15,088400
2,683667	0,5	17,889800
2,692000	0,5	22,441650
2,700333	0,5	30,502700
2,708667	0,5	45,537401
2,717000	0,5	72,248651
2,725333	0,5	112,643002
2,733667	0,5	160,138702
2,742000	0,5	198,893453
2,750333	0,5	213,946403
2,758667	0,5	201,727403
2,767000	0,5	170,795253
2,775333	0,5	133,498352
2,783667	0,5	99,558651
2,792000	0,5	73,236701
2,800333	0,5	54,772601
2,808667	0,5	42,561901
2,817000	0,5	34,704751
2,825333	0,5	29,685500
2,833667	0,5	26,360500
2,842000	0,5	23,952250
2,850333	0,5	21,946500
2,858667	0,5	20,064000
2,867000	0,5	18,152200
2,875333	0,5	16,265100
2,883667	0,5	14,500350
2,892000	0,5	12,968650
2,900333	0,5	11,708000
2,908667	0,5	10,729450
2,917000	0,5	9,982200
2,925333	0,5	9,380700
2,933667	0,5	8,911150
2,942000	0,5	8,533350
2,950333	0,5	8,216450
2,958667	0,5	7,938200
2,967000	0,5	7,658800
2,975333	0,5	7,400400
2,983667	0,5	7,147750
2,992000	0,5	6,900150
3,000333	0,5	6,647750
3,008667	0,5	6,416200
3,017000	0,5	6,236700
3,025333	0,5	6,115450
3,033667	0,5	6,065000
3,042000	0,5	6,024200
3,050333	0,5	5,963650
3,058667	0,5	5,840800
3,067000	0,5	5,645700
3,075333	0,5	5,364600
3,083667	0,5	5,086550
3,092000	0,5	4,818450
3,100333	0,5	4,616850
3,108667	0,5	4,448450
3,117000	0,5	4,322150
3,125333	0,5	4,234350
3,133667	0,5	4,203050
3,142000	0,5	4,212650
3,150333	0,5	4,268700
3,158667	0,5	4,362850
3,167000	0,5	4,488150
3,175333	0,5	4,655150
3,183667	0,5	4,846500
3,192000	0,5	5,032350
3,200333	0,5	5,133800
3,208667	0,5	5,116900
3,217000	0,5	4,907700
3,225333	0,5	4,902650
3,233667	0,5	4,204350
3,242000	0,5	3,866350
3,250333	0,5	3,606400
3,258667	0,5	3,414000
3,267000	0,5	3,277500
3,275333	0,5	3,197900
3,283667	0,5	3,125450
3,292000	0,5	3,055050
3,300333	0,5	2,960000
3,308667	0,5	2,862400
3,317000	0,5	2,748000
3,325333	0,5	2,642700
3,333667	0,5	2,546900
3,342000	0,5	2,452850
3,350333	0,5	2,379950
3,358667	0,5	2,335900
3,367000	0,5	2,269400
3,375333	0,5	2,223200
3,383667	0,5	2,197400
3,392000	0,5	2,175300
3,400333	0,5	2,173500
3,408667	0,5	2,138500
3,417000	0,5	2,114650
3,425333	0,5	2,082600
3,433667	0,5	2,059650
3,442000	0,5	2,022750
3,450333	0,5	1,998450
3,458667	0,5	1,967650
3,467000	0,5	1,956900
3,475333	0,5	1,952300
3,483667	0,5	1,949400
3,492000	0,5	1,946350
3,500333	0,5	1,974300
3,508667	0,5	2,002750
3,517000	0,5	2,013500
3,525333	0,5	2,017350
3,533667	0,5	2,013400
3,542000	0,5	1,998450
3,550333	0,5	1,963350
3,558667	0,5	1,898350
3,567000	0,5	1,830900
3,575333	0,5	1,769100
3,583667	0,5	1,711800
3,592000	0,5	1,668050
3,600333	0,5	1,625300
3,608667	0,5	1,601000
3,617000	0,5	1,578650
3,625333	0,5	1,574350
3,633667	0,5	1,572650
3,642000	0,5	1,577450
3,650333	0,5	1,602350
3,658667	0,5	1,634000
3,667000	0,5	1,675100
3,675333	0,5	1,759900
3,683667	0,5	1,893350
3,692000	0,5	2,110450
3,700333	0,5	2,397700
3,708667	0,5	2,759250
3,717000	0,5	3,185950
3,725333	0,5	3,621950
3,733667	0,5	3,983200
3,742000	0,5	4,192050
3,750333	0,5	4,214550
3,758667	0,5	4,032750
3,767000	0,5	3,707350
3,775333	0,5	3,285750
3,783667	0,5	2,858800
3,792000	0,5	2,460900
3,800333	0,5	2,163500
3,808667	0,5	1,909600
3,817000	0,5	1,737000
3,825333	0,5	1,618750
3,833667	0,5	1,561250
3,842000	0,5	1,535950
3,850333	0,5	1,519600
3,858667	0,5	1,503800
3,867000	0,5	1,501500
3,875333	0,5	1,494800
3,883667	0,5	1,487850
3,892000	0,5	1,473350
3,900333	0,5	1,456000
3,908667	0,5	1,436700
3,917000	0,5	1,414300
3,925333	0,5	1,400350
3,933667	0,5	1,372600
3,942000	0,5	1,360750
3,950333	0,5	1,363400
3,958667	0,5	1,342800
3,967000	0,5	1,337050
3,975333	0,5	1,334950
3,983667	0,5	1,340250
3,992000	0,5	1,352800
4,000333	0,5	1,336650
4,008667	0,5	1,319550
4,017000	0,5	1,299050
4,025333	0,5	1,295350
4,033667	0,5	1,279350
4,042000	0,5	1,275250
4,050333	0,5	1,268250
4,058667	0,5	1,268000
4,067000	0,5	1,268400
4,075333	0,5	1,260450
4,083667	0,5	1,257850
4,092000	0,5	1,266800
4,100333	0,5	1,270050
4,108667	0,5	1,267100
4,117000	0,5	1,282200
4,125333	0,5	1,306400
4,133667	0,5	1,353650
4,142000	0,5	1,407150
4,150333	0,5	1,477250
4,158667	0,5	1,553050
4,167000	0,5	1,661350
4,175333	0,5	1,791600
4,183667	0,5	1,962150
4,192000	0,5	2,161100
4,200333	0,5	2,404300
4,208667	0,5	2,688400
4,217000	0,5	3,023150
4,225333	0,5	3,404700
4,233667	0,5	3,845800
4,242000	0,5	4,362500
4,250333	0,5	4,919850
4,258667	0,5	5,526250
4,267000	0,5	6,196150
4,275333	0,5	6,860900
4,283667	0,5	7,491600
4,292000	0,5	7,976600
4,300333	0,5	8,252000
4,308667	0,5	8,294500
4,317000	0,5	8,054200
4,325333	0,5	7,569200
4,333667	0,5	6,878650
4,342000	0,5	6,078100
4,350333	0,5	5,236500
4,358667	0,5	4,440850
4,367000	0,5	3,732950
4,375333	0,5	3,131950
4,383667	0,5	2,656850
4,392000	0,5	2,322950
4,400333	0,5	2,047950
4,408667	0,5	1,866600
4,417000	0,5	1,754700
4,425333	0,5	1,691650
4,433667	0,5	1,675150
4,442000	0,5	1,656050
4,450333	0,5	1,660000
4,458667	0,5	1,667400
4,467000	0,5	1,683500
4,475333	0,5	1,692800
4,483667	0,5	1,711400
4,492000	0,5	1,729550
4,500333	0,5	1,778400
4,508667	0,5	1,840150
4,517000	0,5	1,933950
4,525333	0,5	2,038050
4,533667	0,5	2,179100
4,542000	0,5	2,328750
4,550333	0,5	2,447150
4,558667	0,5	2,538000
4,567000	0,5	2,592300
4,575333	0,5	2,589900
4,583667	0,5	2,530400
4,592000	0,5	2,402200
4,600333	0,5	2,252000
4,608667	0,5	2,080300
4,617000	0,5	1,915950
4,625333	0,5	1,759400
4,633667	0,5	1,629450
4,642000	0,5	1,522250
4,650333	0,5	1,436650
4,658667	0,5	1,377500
4,667000	0,5	1,325650
4,675333	0,5	1,286050
4,683667	0,5	1,266700
4,692000	0,5	1,249400
4,700333	0,5	1,223200
4,708667	0,5	1,209150
4,717000	0,5	1,205400
4,725333	0,5	1,212600
4,733667	0,5	1,210450
4,742000	0,5	1,199550
4,750333	0,5	1,190900
4,758667	0,5	1,192850
4,767000	0,5	1,186650
4,775333	0,5	1,186750
4,783667	0,5	1,179100
4,792000	0,5	1,178400
4,800333	0,5	1,176000
4,808667	0,5	1,176700
4,817000	0,5	1,182500
4,825333	0,5	1,177750
4,833667	0,5	1,193050
4,842000	0,5	1,188200
4,850333	0,5	1,182550
4,858667	0,5	1,182050
4,867000	0,5	1,190650
4,875333	0,5	1,206950
4,883667	0,5	1,214200
4,892000	0,5	1,208700
4,900333	0,5	1,215600
4,908667	0,5	1,216050
4,917000	0,5	1,227150
4,925333	0,5	1,235750
4,933667	0,5	1,251500
4,942000	0,5	1,265200
4,950333	0,5	1,292250
4,958667	0,5	1,323850
4,967000	0,5	1,356150
4,975333	0,5	1,407750
4,983667	0,5	1,488250
4,992000	0,5	1,572250
5,000333	0,5	1,703650
5,008667	0,5	1,892150
5,017000	0,5	2,154500
5,025333	0,5	2,501650
5,033667	0,5	2,903100
5,042000	0,5	3,381800
5,050333	0,5	3,887350
5,058667	0,5	4,392250
5,067000	0,5	4,818650
5,075333	0,5	5,132650
5,083667	0,5	5,276500
5,092000	0,5	5,258200
5,100333	0,5	5,067200
5,108667	0,5	4,744650
5,117000	0,5	4,334550
5,125333	0,5	3,903350
5,133667	0,5	3,467450
5,142000	0,5	3,057500
5,150333	0,5	2,704750
5,158667	0,5	2,414800
5,167000	0,5	2,190800
5,175333	0,5	2,012850
5,183667	0,5	1,869600
5,192000	0,5	1,752800
5,200333	0,5	1,661000
5,208667	0,5	1,582150
5,217000	0,5	1,518100
5,225333	0,5	1,456350
5,233667	0,5	1,408000
5,242000	0,5	1,367150
5,250333	0,5	1,339300
5,258667	0,5	1,309450
5,267000	0,5	1,291850
5,275333	0,5	1,300600
5,283667	0,5	1,297350
5,292000	0,5	1,297900
5,300333	0,5	1,309400
5,308667	0,5	1,322050
5,317000	0,5	1,353950
5,325333	0,5	1,364900
5,333667	0,5	1,365150
5,342000	0,5	1,365550
5,350333	0,5	1,360150
5,358667	0,5	1,357950
5,367000	0,5	1,347850
5,375333	0,5	1,340550
5,383667	0,5	1,325450
5,392000	0,5	1,316200
5,400333	0,5	1,297300
5,408667	0,5	1,268250
5,417000	0,5	1,231200
5,425333	0,5	1,211050
5,433667	0,5	1,150200
5,442000	0,5	1,104200
5,450333	0,5	1,060200
5,458667	0,5	1,029200
5,467000	0,5	1,011450
5,475333	0,5	0,980000
5,483667	0,5	0,956000
5,492000	0,5	0,944200
5,500333	0,5	0,930400
5,508667	0,5	0,923300
5,517000	0,5	0,917750
5,525333	0,5	0,911800
5,533667	0,5	0,913650
5,542000	0,5	0,917950
5,550333	0,5	0,928350
5,558667	0,5	0,924750
5,567000	0,5	0,935750
5,575333	0,5	0,948100
5,583667	0,5	0,939350
5,592000	0,5	0,927400
5,600333	0,5	0,921200
5,608667	0,5	0,910550
5,617000	0,5	0,905850
5,625333	0,5	0,874950
5,633667	0,5	0,858800
5,642000	0,5	0,837550
5,650333	0,5	0,825550
5,658667	0,5	0,802950
5,667000	0,5	0,791650
5,675333	0,5	0,776250
5,683667	0,5	0,770550
5,692000	0,5	0,769750
5,700333	0,5	0,772500
5,708667	0,5	0,781900
5,717000	0,5	0,816100
5,725333	0,5	0,857050
5,733667	0,5	0,894500
5,742000	0,5	0,942150
5,750333	0,5	0,985500
5,758667	0,5	1,021850
5,767000	0,5	1,035350
5,775333	0,5	1,020750
5,783667	0,5	0,988600
5,792000	0,5	0,956250
5,800333	0,5	0,915850
5,808667	0,5	0,895150
5,817000	0,5	0,881950
5,825333	0,5	0,897600
5,833667	0,5	0,927750
5,842000	0,5	0,977400
5,850333	0,5	1,025650
5,858667	0,5	1,067250
5,867000	0,5	1,101950
5,875333	0,5	1,102750
5,883667	0,5	1,077850
5,892000	0,5	1,032000
5,900333	0,5	0,985500
5,908667	0,5	0,941350
5,917000	0,5	0,897100
5,925333	0,5	0,851750
5,933667	0,5	0,816100
5,942000	0,5	0,782150
5,950333	0,5	0,754300
5,958667	0,5	0,723850
5,967000	0,5	0,698600
5,975333	0,5	0,675350
5,983667	0,5	0,656950
5,992000	0,5	0,638250
6,000333	0,5	0,620800
6,008667	0,5	0,607150
6,017000	0,5	0,601900
6,025333	0,5	0,574100
6,033667	0,5	0,556100
6,042000	0,5	0,535000
6,050333	0,5	0,523450
6,058667	0,5	0,512200
6,067000	0,5	0,494200
6,075333	0,5	0,479500
6,083667	0,5	0,463850
6,092000	0,5	0,457250
6,100333	0,5	0,449200
6,108667	0,5	0,447350
6,117000	0,5	0,436000
6,125333	0,5	0,429800
6,133667	0,5	0,422750
6,142000	0,5	0,418750
6,150333	0,5	0,407100
6,158667	0,5	0,409700
6,167000	0,5	0,404400
6,175333	0,5	0,393250
6,183667	0,5	0,389300
6,192000	0,5	0,385250
6,200333	0,5	0,389050
6,208667	0,5	0,398200
6,217000	0,5	0,399500
6,225333	0,5	0,408200
6,233667	0,5	0,421400
6,242000	0,5	0,441100
6,250333	0,5	0,468800
6,258667	0,5	0,497200
6,267000	0,5	0,530100
6,275333	0,5	0,557200
6,283667	0,5	0,579700
6,292000	0,5	0,581950
6,300333	0,5	0,576700
6,308667	0,5	0,570450
6,317000	0,5	0,545350
6,325333	0,5	0,511100
6,333667	0,5	0,482100
6,342000	0,5	0,458700
6,350333	0,5	0,452400
6,358667	0,5	0,431800
6,367000	0,5	0,411800
6,375333	0,5	0,393150
6,383667	0,5	0,384450
6,392000	0,5	0,371550
6,400333	0,5	0,364800
6,408667	0,5	0,358850
6,417000	0,5	0,354800
6,425333	0,5	0,357500
6,433667	0,5	0,358600
6,442000	0,5	0,368300
6,450333	0,5	0,375450
6,458667	0,5	0,402300
6,467000	0,5	0,407900
6,475333	0,5	0,420350
6,483667	0,5	0,432650
6,492000	0,5	0,445150
6,500333	0,5	0,465800
6,508667	0,5	0,467150
6,517000	0,5	0,463000
6,525333	0,5	0,462050
6,533667	0,5	0,454750
6,542000	0,5	0,453050
6,550333	0,5	0,442650
6,558667	0,5	0,440150
6,567000	0,5	0,434450
6,575333	0,5	0,434400
6,583667	0,5	0,435200
6,592000	0,5	0,433850
6,600333	0,5	0,435150
6,608667	0,5	0,448700
6,617000	0,5	0,444300
6,625333	0,5	0,449850
6,633667	0,5	0,460850
6,642000	0,5	0,478300
6,650333	0,5	0,502450
6,658667	0,5	0,509150
6,667000	0,5	0,531400
6,675333	0,5	0,549000
6,683667	0,5	0,587950
6,692000	0,5	0,635050
6,700333	0,5	0,707900
6,708667	0,5	0,801000
6,717000	0,5	0,919250
6,725333	0,5	1,056750
6,733667	0,5	1,201650
6,742000	0,5	1,321650
6,750333	0,5	1,421100
6,758667	0,5	1,470100
6,767000	0,5	1,460900
6,775333	0,5	1,402350
6,783667	0,5	1,308250
6,792000	0,5	1,195750
6,800333	0,5	1,074200
6,808667	0,5	0,955600
6,817000	0,5	0,858550
6,825333	0,5	0,790900
6,833667	0,5	0,753450
6,842000	0,5	0,745500
6,850333	0,5	0,763300
6,858667	0,5	0,808000
6,867000	0,5	0,865000
6,875333	0,5	0,915600
6,883667	0,5	0,948950
6,892000	0,5	0,957050
6,900333	0,5	0,941150
6,908667	0,5	0,896350
6,917000	0,5	0,834150
6,925333	0,5	0,775550
6,933667	0,5	0,731950
6,942000	0,5	0,708150
6,950333	0,5	0,692500
6,958667	0,5	0,680950
6,967000	0,5	0,675800
6,975333	0,5	0,668600
6,983667	0,5	0,665250
6,992000	0,5	0,657700
7,000333	0,5	0,645450
7,008667	0,5	0,638700
7,017000	0,5	0,629250
7,025333	0,5	0,620300
7,033667	0,5	0,613150
7,042000	0,5	0,609050
7,050333	0,5	0,616400
7,058667	0,5	0,624250
7,067000	0,5	0,642250
7,075333	0,5	0,675400
7,083667	0,5	0,727500
7,092000	0,5	0,792350
7,100333	0,5	0,857050
7,108667	0,5	0,920200
7,117000	0,5	0,974400
7,125333	0,5	1,006650
7,133667	0,5	1,021850
7,142000	0,5	1,018900
7,150333	0,5	1,005050
7,158667	0,5	0,994150
7,167000	0,5	0,995550
7,175333	0,5	1,016150
7,183667	0,5	1,043450
7,192000	0,5	1,081950
7,200333	0,5	1,110700
7,208667	0,5	1,110550
7,217000	0,5	1,090400
7,225333	0,5	1,059100
7,233667	0,5	1,021050
7,242000	0,5	1,001100
7,250333	0,5	1,012650
7,258667	0,5	1,089850
7,267000	0,5	1,250900
7,275333	0,5	1,526600
7,283667	0,5	1,903250
7,292000	0,5	2,388450
7,300333	0,5	2,958450
7,308667	0,5	3,597900
7,317000	0,5	4,289050
7,325333	0,5	5,035000
7,333667	0,5	5,872100
7,342000	0,5	6,884100
7,350333	0,5	8,192050
7,358667	0,5	10,086900
7,367000	0,5	13,050400
7,375333	0,5	17,874350
7,383667	0,5	25,626450
7,392000	0,5	37,204801
7,400333	0,5	52,700551
7,408667	0,5	70,602901
7,417000	0,5	87,847901
7,425333	0,5	100,731402
7,433667	0,5	106,556852
7,442000	0,5	104,534752
7,450333	0,5	95,932051
7,458667	0,5	83,111801
7,467000	0,5	68,553601
7,475333	0,5	54,204051
7,483667	0,5	41,326701
7,492000	0,5	30,557450
7,500333	0,5	22,095200
7,508667	0,5	15,841600
7,517000	0,5	11,463450
7,525333	0,5	8,523500
7,533667	0,5	6,618400
7,542000	0,5	5,410650
7,550333	0,5	4,670150
7,558667	0,5	4,238000
7,567000	0,5	3,974750
7,575333	0,5	3,788900
7,583667	0,5	3,608550
7,592000	0,5	3,412450
7,600333	0,5	3,205300
7,608667	0,5	3,013500
7,617000	0,5	2,841350
7,625333	0,5	2,702200
7,633667	0,5	2,572800
7,642000	0,5	2,447600
7,650333	0,5	2,287200
7,658667	0,5	2,119050
7,667000	0,5	1,951650
7,675333	0,5	1,813900
7,683667	0,5	1,709400
7,692000	0,5	1,618700
7,700333	0,5	1,560150
7,708667	0,5	1,513500
7,717000	0,5	1,479800
7,725333	0,5	1,463100
7,733667	0,5	1,469750
7,742000	0,5	1,498400
7,750333	0,5	1,537600
7,758667	0,5	1,566800
7,767000	0,5	1,559900
7,775333	0,5	1,519150
7,783667	0,5	1,454200
7,792000	0,5	1,377350
7,800333	0,5	1,289500
7,808667	0,5	1,210400
7,817000	0,5	1,143350
7,825333	0,5	1,091200
7,833667	0,5	1,053700
7,842000	0,5	1,019650
7,850333	0,5	0,993600
7,858667	0,5	0,971100
7,867000	0,5	0,952900
7,875333	0,5	0,943500
7,883667	0,5	0,942900
7,892000	0,5	0,955150
7,900333	0,5	0,964900
7,908667	0,5	0,973350
7,917000	0,5	0,960050
7,925333	0,5	0,932600
7,933667	0,5	0,901500
7,942000	0,5	0,862500
7,950333	0,5	0,824750
7,958667	0,5	0,794800
7,967000	0,5	0,772150
7,975333	0,5	0,757600
7,983667	0,5	0,745350
7,992000	0,5	0,734600
8,000333	0,5	0,730700
8,008667	0,5	0,730050
8,017000	0,5	0,734300
8,025333	0,5	0,745100
8,033667	0,5	0,763850
8,042000	0,5	0,791450
8,050333	0,5	0,824250
8,058667	0,5	0,866950
8,067000	0,5	0,904450
8,075333	0,5	0,947200
8,083667	0,5	0,990200
8,092000	0,5	1,031550
8,100333	0,5	1,079400
8,108667	0,5	1,139000
8,117000	0,5	1,190850
8,125333	0,5	1,205050
8,133667	0,5	1,169500
8,142000	0,5	1,083200
8,150333	0,5	0,984750
8,158667	0,5	0,890200
8,167000	0,5	0,821400
8,175333	0,5	0,775450
8,183667	0,5	0,746450
8,192000	0,5	0,733350
8,200333	0,5	0,730000
8,208667	0,5	0,729600
8,217000	0,5	0,733400
8,225333	0,5	0,731650
8,233667	0,5	0,736950
8,242000	0,5	0,734350
8,250333	0,5	0,732000
8,258667	0,5	0,735200
8,267000	0,5	0,747450
8,275333	0,5	0,765800
8,283667	0,5	0,784900
8,292000	0,5	0,810350
8,300333	0,5	0,832150
8,308667	0,5	0,849200
8,317000	0,5	0,846400
8,325333	0,5	0,836150
8,333667	0,5	0,812200
8,342000	0,5	0,788300
8,350333	0,5	0,765750
8,358667	0,5	0,746250
8,367000	0,5	0,727800
8,375333	0,5	0,718800
8,383667	0,5	0,715250
8,392000	0,5	0,714350
8,400333	0,5	0,720200
8,408667	0,5	0,738850
8,417000	0,5	0,769200
8,425333	0,5	0,803650
8,433667	0,5	0,838000
8,442000	0,5	0,873950
8,450333	0,5	0,908250
8,458667	0,5	0,944450
8,467000	0,5	0,980600
8,475333	0,5	1,017300
8,483667	0,5	1,046300
8,492000	0,5	1,065850
8,500333	0,5	1,068750
8,508667	0,5	1,060500
8,517000	0,5	1,044550
8,525333	0,5	1,038500
8,533667	0,5	1,030050
8,542000	0,5	1,017100
8,550333	0,5	1,011250
8,558667	0,5	1,029450
8,567000	0,5	1,087950
8,575333	0,5	1,198800
8,583667	0,5	1,375250
8,592000	0,5	1,616500
8,600333	0,5	1,945200
8,608667	0,5	2,361400
8,617000	0,5	2,873550
8,625333	0,5	3,495150
8,633667	0,5	4,232300
8,642000	0,5	5,080050
8,650333	0,5	6,036050
8,658667	0,5	7,142550
8,667000	0,5	8,544800
8,675333	0,5	10,618900
8,683667	0,5	14,062400
8,692000	0,5	20,020800
8,700333	0,5	29,690050
8,708667	0,5	43,706951
8,717000	0,5	61,073551
8,725333	0,5	78,897251
8,733667	0,5	93,399051
8,742000	0,5	101,451402
8,750333	0,5	101,608902
8,758667	0,5	94,384851
8,767000	0,5	81,709401
8,775333	0,5	66,235551
8,783667	0,5	50,586451
8,792000	0,5	36,737801
8,800333	0,5	25,714050
8,808667	0,5	17,659850
8,817000	0,5	12,174750
8,825333	0,5	8,639850
8,833667	0,5	6,431350
8,842000	0,5	5,055100
8,850333	0,5	4,177800
8,858667	0,5	3,590050
8,867000	0,5	3,180400
8,875333	0,5	2,876700
8,883667	0,5	2,650000
8,892000	0,5	2,476550
8,900333	0,5	2,340100
8,908667	0,5	2,227500
8,917000	0,5	2,126750
8,925333	0,5	2,037700
8,933667	0,5	1,957100
8,942000	0,5	1,885400
8,950333	0,5	1,820400
8,958667	0,5	1,767150
8,967000	0,5	1,721750
8,975333	0,5	1,683100
8,983667	0,5	1,652200
8,992000	0,5	1,629200
9,000333	0,5	1,616400
9,008667	0,5	1,614600
9,017000	0,5	1,614450
9,025333	0,5	1,617600
9,033667	0,5	1,609700
9,042000	0,5	1,594050
9,050333	0,5	1,564100
9,058667	0,5	1,535450
9,067000	0,5	1,511700
9,075333	0,5	1,506850
9,083667	0,5	1,528800
9,092000	0,5	1,578100
9,100333	0,5	1,623200
9,108667	0,5	1,654650
9,117000	0,5	1,650350
9,125333	0,5	1,610300
9,133667	0,5	1,547700
9,142000	0,5	1,470200
9,150333	0,5	1,405800
9,158667	0,5	1,347750
9,167000	0,5	1,305000
9,175333	0,5	1,282950
9,183667	0,5	1,273150
9,192000	0,5	1,287250
9,200333	0,5	1,319150
9,208667	0,5	1,360250
9,217000	0,5	1,390200
9,225333	0,5	1,396700
9,233667	0,5	1,370750
9,242000	0,5	1,321750
9,250333	0,5	1,260650
9,258667	0,5	1,197700
9,267000	0,5	1,143550
9,275333	0,5	1,102100
9,283667	0,5	1,077550
9,292000	0,5	1,062600
9,300333	0,5	1,058600
9,308667	0,5	1,061300
9,317000	0,5	1,074700
9,325333	0,5	1,089450
9,333667	0,5	1,104900
9,342000	0,5	1,113650
9,350333	0,5	1,117250
9,358667	0,5	1,109900
9,367000	0,5	1,100500
9,375333	0,5	1,086500
9,383667	0,5	1,074400
9,392000	0,5	1,061850
9,400333	0,5	1,054650
9,408667	0,5	1,040150
9,417000	0,5	1,040750
9,425333	0,5	1,035750
9,433667	0,5	1,033900
9,442000	0,5	1,038950
9,450333	0,5	1,044000
9,458667	0,5	1,055600
9,467000	0,5	1,063600
9,475333	0,5	1,071150
9,483667	0,5	1,082850
9,492000	0,5	1,093300
9,500333	0,5	1,104100
9,508667	0,5	1,115500
9,517000	0,5	1,124750
9,525333	0,5	1,128800
9,533667	0,5	1,129750
9,542000	0,5	1,127850
9,550333	0,5	1,119050
9,558667	0,5	1,107450
9,567000	0,5	1,101200
9,575333	0,5	1,091850
9,583667	0,5	1,090350
9,592000	0,5	1,087450
9,600333	0,5	1,090700
9,608667	0,5	1,100550
9,617000	0,5	1,112800
9,625333	0,5	1,129650
9,633667	0,5	1,156200
9,642000	0,5	1,195200
9,650333	0,5	1,250200
9,658667	0,5	1,313750
9,667000	0,5	1,391700
9,675333	0,5	1,477300
9,683667	0,5	1,567000
9,692000	0,5	1,651200
9,700333	0,5	1,724050
9,708667	0,5	1,769700
9,717000	0,5	1,775900
9,725333	0,5	1,731300
9,733667	0,5	1,644300
9,742000	0,5	1,539600
9,750333	0,5	1,437250
9,758667	0,5	1,351300
9,767000	0,5	1,293500
9,775333	0,5	1,253250
9,783667	0,5	1,234800
9,792000	0,5	1,220950
9,800333	0,5	1,212500
9,808667	0,5	1,196700
9,817000	0,5	1,179100
9,825333	0,5	1,157050
9,833667	0,5	1,131300
9,842000	0,5	1,100300
9,850333	0,5	1,072850
9,858667	0,5	1,049100
9,867000	0,5	1,029850
9,875333	0,5	1,017600
9,883667	0,5	1,008800
9,892000	0,5	1,004950
9,900333	0,5	1,003700
9,908667	0,5	1,003500
9,917000	0,5	1,000100
9,925333	0,5	0,995150
9,933667	0,5	0,992750
9,942000	0,5	0,996500
9,950333	0,5	1,000300
9,958667	0,5	1,009000
9,967000	0,5	1,015300
9,975333	0,5	1,029850
9,983667	0,5	1,040800
9,992000	0,5	1,049800
10,000333	0,5	1,059000
10,008667	0,5	1,070550
10,017000	0,5	1,075300
10,025333	0,5	1,075400
10,033667	0,5	1,073800
10,042000	0,5	1,065250
10,050333	0,5	1,055100
10,058667	0,5	1,046750
10,067000	0,5	1,042700
10,075333	0,5	1,043850
10,083667	0,5	1,053150
10,092000	0,5	1,077450
10,100333	0,5	1,123400
10,108667	0,5	1,200150
10,117000	0,5	1,306550
10,125333	0,5	1,448000
10,133667	0,5	1,601850
10,142000	0,5	1,734200
10,150333	0,5	1,830250
10,158667	0,5	1,864750
10,167000	0,5	1,836100
10,175333	0,5	1,748700
10,183667	0,5	1,634450
10,192000	0,5	1,511450
10,200333	0,5	1,397400
10,208667	0,5	1,298500
10,217000	0,5	1,221400
10,225333	0,5	1,157700
10,233667	0,5	1,108800
10,242000	0,5	1,069900
10,250333	0,5	1,034900
10,258667	0,5	1,008900
10,267000	0,5	0,988150
10,275333	0,5	0,973150
10,283667	0,5	0,964150
10,292000	0,5	0,956300
10,300333	0,5	0,952450
10,308667	0,5	0,950000
10,317000	0,5	0,946200
10,325333	0,5	0,944400
10,333667	0,5	0,938900
10,342000	0,5	0,945800
10,350333	0,5	0,953200
10,358667	0,5	0,964100
10,367000	0,5	0,971500
10,375333	0,5	0,980650
10,383667	0,5	0,989100
10,392000	0,5	0,995500
10,400333	0,5	0,994900
10,408667	0,5	0,992550
10,417000	0,5	0,991550
10,425333	0,5	0,993500
10,433667	0,5	0,991900
10,442000	0,5	0,991150
10,450333	0,5	0,996800
10,458667	0,5	1,007450
10,467000	0,5	1,024150
10,475333	0,5	1,055550
10,483667	0,5	1,110800
10,492000	0,5	1,193600
10,500333	0,5	1,306050
10,508667	0,5	1,421100
10,517000	0,5	1,522450
10,525333	0,5	1,583000
10,533667	0,5	1,584700
10,542000	0,5	1,538750
10,550333	0,5	1,455150
10,558667	0,5	1,361750
10,567000	0,5	1,273450
10,575333	0,5	1,200800
10,583667	0,5	1,143600
10,592000	0,5	1,091650
10,600333	0,5	1,053050
10,608667	0,5	1,016600
10,617000	0,5	0,980900
10,625333	0,5	0,947550
10,633667	0,5	0,918950
10,642000	0,5	0,895100
10,650333	0,5	0,872350
10,658667	0,5	0,859450
10,667000	0,5	0,846900
10,675333	0,5	0,845750
10,683667	0,5	0,849450
10,692000	0,5	0,858150
10,700333	0,5	0,871600
10,708667	0,5	0,890900
10,717000	0,5	0,916100
10,725333	0,5	0,944400
10,733667	0,5	0,971750
10,742000	0,5	0,993650
10,750333	0,5	1,023750
10,758667	0,5	1,041500
10,767000	0,5	1,058500
10,775333	0,5	1,077050
10,783667	0,5	1,103000
10,792000	0,5	1,154750
10,800333	0,5	1,220100
10,808667	0,5	1,310950
10,817000	0,5	1,423250
10,825333	0,5	1,534150
10,833667	0,5	1,635650
10,842000	0,5	1,693300
10,850333	0,5	1,692950
10,858667	0,5	1,633550
10,867000	0,5	1,522600
10,875333	0,5	1,395350
10,883667	0,5	1,262150
10,892000	0,5	1,149650
10,900333	0,5	1,063150
10,908667	0,5	1,000850
10,917000	0,5	0,955050
10,925333	0,5	0,932850
10,933667	0,5	0,921200
10,942000	0,5	0,918650
10,950333	0,5	0,926550
10,958667	0,5	0,944850
10,967000	0,5	0,973350
10,975333	0,5	1,021250
10,983667	0,5	1,080100
10,992000	0,5	1,143450
11,000333	0,5	1,208500
11,008667	0,5	1,259950
11,017000	0,5	1,291700
11,025333	0,5	1,296700
11,033667	0,5	1,277200
11,042000	0,5	1,255500
11,050333	0,5	1,220700
11,058667	0,5	1,185750
11,067000	0,5	1,155300
11,075333	0,5	1,140750
11,083667	0,5	1,139200
11,092000	0,5	1,144000
11,100333	0,5	1,155950
11,108667	0,5	1,156050
11,117000	0,5	1,141700
11,125333	0,5	1,111550
11,133667	0,5	1,063550
11,142000	0,5	0,997900
11,150333	0,5	0,933150
11,158667	0,5	0,869350
11,167000	0,5	0,822850
11,175333	0,5	0,780450
11,183667	0,5	0,751100
11,192000	0,5	0,733100
11,200333	0,5	0,720100
11,208667	0,5	0,710450
11,217000	0,5	0,705200
11,225333	0,5	0,705750
11,233667	0,5	0,715100
11,242000	0,5	0,728550
11,250333	0,5	0,738000
11,258667	0,5	0,750400
11,267000	0,5	0,763600
11,275333	0,5	0,775700
11,283667	0,5	0,790850
11,292000	0,5	0,803150
11,300333	0,5	0,816550
11,308667	0,5	0,836550
11,317000	0,5	0,853800
11,325333	0,5	0,876200
11,333667	0,5	0,907850
11,342000	0,5	0,950950
11,350333	0,5	0,991950
11,358667	0,5	1,039350
11,367000	0,5	1,087600
11,375333	0,5	1,150350
11,383667	0,5	1,214750
11,392000	0,5	1,275300
11,400333	0,5	1,324750
11,408667	0,5	1,355250
11,417000	0,5	1,366600
11,425333	0,5	1,349350
11,433667	0,5	1,310800
11,442000	0,5	1,254600
11,450333	0,5	1,186550
11,458667	0,5	1,120600
11,467000	0,5	1,060800
11,475333	0,5	0,999600
11,483667	0,5	0,960350
11,492000	0,5	0,927150
11,500333	0,5	0,897700
11,508667	0,5	0,874250
11,517000	0,5	0,854650
11,525333	0,5	0,841000
11,533667	0,5	0,828300
11,542000	0,5	0,813100
11,550333	0,5	0,799900
11,558667	0,5	0,785150
11,567000	0,5	0,770250
11,575333	0,5	0,755200
11,583667	0,5	0,738750
11,592000	0,5	0,722050
11,600333	0,5	0,707200
11,608667	0,5	0,695600
11,617000	0,5	0,685100
11,625333	0,5	0,675400
11,633667	0,5	0,679900
11,642000	0,5	0,685650
11,650333	0,5	0,704050
11,658667	0,5	0,722400
11,667000	0,5	0,741050
11,675333	0,5	0,771600
11,683667	0,5	0,789750
11,692000	0,5	0,802050
11,700333	0,5	0,799350
11,708667	0,5	0,791750
11,717000	0,5	0,769900
11,725333	0,5	0,752100
11,733667	0,5	0,725050
11,742000	0,5	0,701750
11,750333	0,5	0,690100
11,758667	0,5	0,676150
11,767000	0,5	0,664800
11,775333	0,5	0,660850
11,783667	0,5	0,665650
11,792000	0,5	0,666350
11,800333	0,5	0,664200
11,808667	0,5	0,663300
11,817000	0,5	0,666450
11,825333	0,5	0,666350
11,833667	0,5	0,674950
11,842000	0,5	0,674950
11,850333	0,5	0,674900
11,858667	0,5	0,670700
11,867000	0,5	0,668050
11,875333	0,5	0,660550
11,883667	0,5	0,655000
11,892000	0,5	0,650450
11,900333	0,5	0,656700
11,908667	0,5	0,671550
11,917000	0,5	0,690200
11,925333	0,5	0,727150
11,933667	0,5	0,781000
11,942000	0,5	0,830800
11,950333	0,5	0,871600
11,958667	0,5	0,908850
11,967000	0,5	0,928450
11,975333	0,5	0,928100
11,983667	0,5	0,899450
11,992000	0,5	0,856250
12,000333	0,5	0,801850
12,008667	0,5	0,742350
12,017000	0,5	0,691000
12,025333	0,5	0,648550
12,033667	0,5	0,618700
12,042000	0,5	0,595550
12,050333	0,5	0,583650
12,058667	0,5	0,570000
12,067000	0,5	0,562800
12,075333	0,5	0,567650
12,083667	0,5	0,570700
12,092000	0,5	0,575700
12,100333	0,5	0,586900
12,108667	0,5	0,600000
12,117000	0,5	0,620050
12,125333	0,5	0,644250
12,133667	0,5	0,657150
12,142000	0,5	0,668450
12,150333	0,5	0,674750
12,158667	0,5	0,672350
12,167000	0,5	0,667450
12,175333	0,5	0,653550
12,183667	0,5	0,643150
12,192000	0,5	0,630500
12,200333	0,5	0,622250
12,208667	0,5	0,603300
12,217000	0,5	0,594650
12,225333	0,5	0,591500
12,233667	0,5	0,586800
12,242000	0,5	0,578400
12,250333	0,5	0,573800
12,258667	0,5	0,568600
12,267000	0,5	0,568000
12,275333	0,5	0,573350
12,283667	0,5	0,577500
12,292000	0,5	0,576800
12,300333	0,5	0,583750
12,308667	0,5	0,591300
12,317000	0,5	0,604850
12,325333	0,5	0,619800
12,333667	0,5	0,635800
12,342000	0,5	0,661100
12,350333	0,5	0,690750
12,358667	0,5	0,711900
12,367000	0,5	0,736700
12,375333	0,5	0,752400
12,383667	0,5	0,750350
12,392000	0,5	0,732200
12,400333	0,5	0,708600
12,408667	0,5	0,683850
12,417000	0,5	0,651250
12,425333	0,5	0,626800
12,433667	0,5	0,601700
12,442000	0,5	0,585600
12,450333	0,5	0,574450
12,458667	0,5	0,567650
12,467000	0,5	0,564350
12,475333	0,5	0,568800
12,483667	0,5	0,567200
12,492000	0,5	0,562800
12,500333	0,5	0,567450
12,508667	0,5	0,558350
12,517000	0,5	0,563300
12,525333	0,5	0,561350
12,533667	0,5	0,559200
12,542000	0,5	0,556350
12,550333	0,5	0,550550
12,558667	0,5	0,555800
12,567000	0,5	0,560600
12,575333	0,5	0,564350
12,583667	0,5	0,570650
12,592000	0,5	0,575500
12,600333	0,5	0,577500
12,608667	0,5	0,571850
12,617000	0,5	0,568450
12,625333	0,5	0,551650
12,633667	0,5	0,534250
12,642000	0,5	0,522300
12,650333	0,5	0,504700
12,658667	0,5	0,482350
12,667000	0,5	0,475750
12,675333	0,5	0,465250
12,683667	0,5	0,454450
12,692000	0,5	0,444750
12,700333	0,5	0,436000
12,708667	0,5	0,434850
12,717000	0,5	0,436150
12,725333	0,5	0,436800
12,733667	0,5	0,434100
12,742000	0,5	0,435200
12,750333	0,5	0,434050
12,758667	0,5	0,441500
12,767000	0,5	0,448600
12,775333	0,5	0,452650
12,783667	0,5	0,466950
12,792000	0,5	0,484650
12,800333	0,5	0,491300
12,808667	0,5	0,508200
12,817000	0,5	0,522200
12,825333	0,5	0,527400
12,833667	0,5	0,526550
12,842000	0,5	0,521400
12,850333	0,5	0,519650
12,858667	0,5	0,520300
12,867000	0,5	0,526000
12,875333	0,5	0,534300
12,883667	0,5	0,553150
12,892000	0,5	0,583450
12,900333	0,5	0,625600
12,908667	0,5	0,668700
12,917000	0,5	0,715500
12,925333	0,5	0,747950
12,933667	0,5	0,761850
12,942000	0,5	0,749450
12,950333	0,5	0,717550
12,958667	0,5	0,681450
12,967000	0,5	0,642650
12,975333	0,5	0,594350
12,983667	0,5	0,554750
12,992000	0,5	0,511550
13,000333	0,5	0,479800
13,008667	0,5	0,463850
13,017000	0,5	0,451550
13,025333	0,5	0,457750
13,033667	0,5	0,472400
13,042000	0,5	0,499550
13,050333	0,5	0,533950
13,058667	0,5	0,568050
13,067000	0,5	0,588850
13,075333	0,5	0,596650
13,083667	0,5	0,587000
13,092000	0,5	0,560350
13,100333	0,5	0,520900
13,108667	0,5	0,488650
13,117000	0,5	0,455950
13,125333	0,5	0,421650
13,133667	0,5	0,390950
13,142000	0,5	0,371050
13,150333	0,5	0,357900
13,158667	0,5	0,350400
13,167000	0,5	0,347150
13,175333	0,5	0,351850
13,183667	0,5	0,359850
13,192000	0,5	0,379550
13,200333	0,5	0,409700
13,208667	0,5	0,450050
13,217000	0,5	0,494250
13,225333	0,5	0,542050
13,233667	0,5	0,587850
13,242000	0,5	0,604450
13,250333	0,5	0,615300
13,258667	0,5	0,608750
13,267000	0,5	0,580450
13,275333	0,5	0,532700
13,283667	0,5	0,487400
13,292000	0,5	0,443150
13,300333	0,5	0,413350
13,308667	0,5	0,385300
13,317000	0,5	0,370500
13,325333	0,5	0,359000
13,333667	0,5	0,367250
13,342000	0,5	0,375550
13,350333	0,5	0,391500
13,358667	0,5	0,400350
13,367000	0,5	0,405550
13,375333	0,5	0,404200
13,383667	0,5	0,364450
13,392000	0,5	0,228200
13,400333	0,5	0,032550
13,408667	0,5	-0,168300
13,417000	0,5	-0,330000
13,425333	0,5	-0,440500
13,433667	0,5	-0,523300
13,442000	0,5	-0,565450
13,450333	0,5	-0,605250
13,458667	0,5	-0,634300
13,467000	0,5	-0,658750
13,475333	0,5	-0,669100
13,483667	0,5	-0,680100
13,492000	0,5	-0,684500
13,500333	0,5	-0,684050
13,508667	0,5	-0,681650
13,517000	0,5	-0,683750
13,525333	0,5	-0,679400
13,533667	0,5	-0,674700
13,542000	0,5	-0,681400
13,550333	0,5	-0,673150
13,558667	0,5	-0,673700
13,567000	0,5	-0,678750
13,575333	0,5	-0,686750
13,583667	0,5	-0,697350
13,592000	0,5	-0,695700
13,600333	0,5	-0,690800
13,608667	0,5	-0,691100
13,617000	0,5	-0,683350
13,625333	0,5	-0,675350
13,633667	0,5	-0,666000
13,642000	0,5	-0,658200
13,650333	0,5	-0,655400
13,658667	0,5	-0,650450
13,667000	0,5	-0,643600
13,675333	0,5	-0,638450
13,683667	0,5	-0,630950
13,692000	0,5	-0,635800
13,700333	0,5	-0,620650
13,708667	0,5	-0,616750
13,717000	0,5	-0,602600
13,725333	0,5	-0,596450
13,733667	0,5	-0,576250
13,742000	0,5	-0,536200
13,750333	0,5	-0,499150
13,758667	0,5	-0,455050
13,767000	0,5	-0,414650
13,775333	0,5	-0,379050
13,783667	0,5	-0,355250
13,792000	0,5	-0,336600
13,800333	0,5	-0,340300
13,808667	0,5	-0,349900
13,817000	0,5	-0,373300
13,825333	0,5	-0,395350
13,833667	0,5	-0,431700
13,842000	0,5	-0,454250
13,850333	0,5	-0,471450
13,858667	0,5	-0,493650
13,867000	0,5	-0,512700
13,875333	0,5	-0,528100
13,883667	0,5	-0,531550
13,892000	0,5	-0,530050
13,900333	0,5	-0,525500
13,908667	0,5	-0,521000
13,917000	0,5	-0,514400
13,925333	0,5	-0,505150
13,933667	0,5	-0,496250
13,942000	0,5	-0,492100
13,950333	0,5	-0,480150
13,958667	0,5	-0,475200
13,967000	0,5	-0,461900
13,975333	0,5	-0,454250
13,983667	0,5	-0,445950
13,992000	0,5	-0,428750
14,000333	0,5	-0,413700
14,008667	0,5	-0,409850
14,017000	0,5	-0,399100
14,025333	0,5	-0,395650
14,033667	0,5	-0,380900
14,042000	0,5	-0,368300
14,050333	0,5	-0,351400
14,058667	0,5	-0,337950
14,067000	0,5	-0,322300
14,075333	0,5	-0,309550
14,083667	0,5	-0,296850
14,092000	0,5	-0,281000
14,100333	0,5	-0,267500
14,108667	0,5	-0,249250
14,117000	0,5	-0,232650
14,125333	0,5	-0,225700
14,133667	0,5	-0,211150
14,142000	0,5	-0,189400
14,150333	0,5	-0,175150
14,158667	0,5	-0,160600
14,167000	0,5	-0,161600
14,175333	0,5	-0,150100
14,183667	0,5	-0,135100
14,192000	0,5	-0,122650
14,200333	0,5	-0,116850
14,208667	0,5	-0,106150
14,217000	0,5	-0,099350
14,225333	0,5	-0,087750
14,233667	0,5	-0,081000
14,242000	0,5	-0,072700
14,250333	0,5	-0,063650
14,258667	0,5	-0,058250
14,267000	0,5	-0,049850
14,275333	0,5	-0,055850
14,283667	0,5	-0,049250
14,292000	0,5	-0,042050
14,300333	0,5	-0,041100
14,308667	0,5	-0,045700
14,317000	0,5	-0,057800
14,325333	0,5	-0,055150
14,333667	0,5	-0,050450
14,342000	0,5	-0,053200
14,350333	0,5	-0,053550
14,358667	0,5	-0,056100
14,367000	0,5	-0,054550
14,375333	0,5	-0,056650
14,383667	0,5	-0,055300
14,392000	0,5	-0,059350
14,400333	0,5	-0,063450
14,408667	0,5	-0,058000
14,417000	0,5	-0,055900
14,425333	0,5	-0,066200
14,433667	0,5	-0,055400
14,442000	0,5	-0,051350
14,450333	0,5	-0,048500
14,458667	0,5	-0,045050
14,467000	0,5	-0,047150
14,475333	0,5	-0,037250
14,483667	0,5	-0,037600
14,492000	0,5	-0,039500
14,500333	0,5	-0,051350
14,508667	0,5	-0,059250
14,517000	0,5	-0,076800
14,525333	0,5	-0,082550
14,533667	0,5	-0,096250
14,542000	0,5	-0,104400
14,550333	0,5	-0,115700
14,558667	0,5	-0,121200
14,567000	0,5	-0,125650
14,575333	0,5	-0,134850
14,583667	0,5	-0,129550
14,592000	0,5	-0,133350
14,600333	0,5	-0,141750
14,608667	0,5	-0,149300
14,617000	0,5	-0,160850
14,625333	0,5	-0,159950
14,633667	0,5	-0,158350
14,642000	0,5	-0,165500
14,650333	0,5	-0,167650
14,658667	0,5	-0,172800
14,667000	0,5	-0,169700
14,675333	0,5	-0,176600
14,683667	0,5	-0,178000
14,692000	0,5	-0,188200
14,700333	0,5	-0,189200
14,708667	0,5	-0,194450
14,717000	0,5	-0,203550
14,725333	0,5	-0,206550
14,733667	0,5	-0,198750
14,742000	0,5	-0,208350
14,750333	0,5	-0,212300
14,758667	0,5	-0,225950
14,767000	0,5	-0,232600
14,775333	0,5	-0,230950
14,783667	0,5	-0,232650
14,792000	0,5	-0,232850
14,800333	0,5	-0,237400
14,808667	0,5	-0,238650
14,817000	0,5	-0,241850
14,825333	0,5	-0,236050
14,833667	0,5	-0,238950
14,842000	0,5	-0,239650
14,850333	0,5	-0,238300
14,858667	0,5	-0,237650
14,867000	0,5	-0,247250
14,875333	0,5	-0,244250
14,883667	0,5	-0,241900
14,892000	0,5	-0,247650
14,900333	0,5	-0,259350
14,908667	0,5	-0,265800
14,917000	0,5	-0,266650
14,925333	0,5	-0,264550
14,933667	0,5	-0,266900
14,942000	0,5	-0,268050
14,950333	0,5	-0,270200
14,958667	0,5	-0,273000
14,967000	0,5	-0,273250
14,975333	0,5	-0,282100
14,983667	0,5	-0,283900
14,992000	0,5	-0,287100
15,000333	0,5	-0,283300
15,008667	0,5	-0,285550
15,017000	0,5	-0,290500
15,025333	0,5	-0,285400
15,033667	0,5	-0,282650
15,042000	0,5	-0,287300
15,050333	0,5	-0,291900
15,058667	0,5	-0,298250
15,067000	0,5	-0,292200
15,075333	0,5	-0,295500
15,083667	0,5	-0,292500
15,092000	0,5	-0,295250
15,100333	0,5	-0,294550
15,108667	0,5	-0,291150
15,117000	0,5	-0,285300
15,125333	0,5	-0,275250
15,133667	0,5	-0,264750
15,142000	0,5	-0,241100
15,150333	0,5	-0,229500
15,158667	0,5	-0,240000
15,167000	0,5	-0,241600
15,175333	0,5	-0,251300
15,183667	0,5	-0,270150
15,192000	0,5	-0,289800
15,200333	0,5	-0,317800
15,208667	0,5	-0,322100
15,217000	0,5	-0,327100
15,225333	0,5	-0,329900
15,233667	0,5	-0,331500
15,242000	0,5	-0,323600
15,250333	0,5	-0,322200
15,258667	0,5	-0,312750
15,267000	0,5	-0,315450
15,275333	0,5	-0,320150
15,283667	0,5	-0,332150
15,292000	0,5	-0,346000
15,300333	0,5	-0,356150
15,308667	0,5	-0,383400
15,317000	0,5	-0,374700
15,325333	0,5	-0,373050
15,333667	0,5	-0,373600
15,342000	0,5	-0,374650
15,350333	0,5	-0,384050
15,358667	0,5	-0,379400
15,367000	0,5	-0,370850
15,375333	0,5	-0,381550
15,383667	0,5	-0,384100
15,392000	0,5	-0,394850
15,400333	0,5	-0,402950
15,408667	0,5	-0,413800
15,417000	0,5	-0,420650
15,425333	0,5	-0,432300
15,433667	0,5	-0,437400
15,442000	0,5	-0,438350
15,450333	0,5	-0,434900
15,458667	0,5	-0,447350
15,467000	0,5	-0,433300
15,475333	0,5	-0,432600
15,483667	0,5	-0,435750
15,492000	0,5	-0,438000
15,500333	0,5	-0,454650
15,508667	0,5	-0,441150
15,517000	0,5	-0,446750
15,525333	0,5	-0,443950
15,533667	0,5	-0,444850
15,542000	0,5	-0,438650
15,550333	0,5	-0,437750
15,558667	0,5	-0,435800
15,567000	0,5	-0,439900
15,575333	0,5	-0,441550
15,583667	0,5	-0,447150
15,592000	0,5	-0,449000
15,600333	0,5	-0,463550
15,608667	0,5	-0,472400
15,617000	0,5	-0,467550
15,625333	0,5	-0,472300
15,633667	0,5	-0,474000
15,642000	0,5	-0,487050
15,650333	0,5	-0,491200
15,658667	0,5	-0,485850
15,667000	0,5	-0,479850
15,675333	0,5	-0,476300
15,683667	0,5	-0,472450
15,692000	0,5	-0,473450
15,700333	0,5	-0,465650
15,708667	0,5	-0,463800
15,717000	0,5	-0,466650
15,725333	0,5	-0,469850
15,733667	0,5	-0,460300
15,742000	0,5	-0,461550
15,750333	0,5	-0,466800
15,758667	0,5	-0,465850
15,767000	0,5	-0,462500
15,775333	0,5	-0,465700
15,783667	0,5	-0,471200
15,792000	0,5	-0,484300
15,800333	0,5	-0,489150
15,808667	0,5	-0,486300
15,817000	0,5	-0,487700
15,825333	0,5	-0,490800
15,833667	0,5	-0,492400
15,842000	0,5	-0,492750
15,850333	0,5	-0,495850
15,858667	0,5	-0,494300
15,867000	0,5	-0,503550
15,875333	0,5	-0,496950
15,883667	0,5	-0,500800
15,892000	0,5	-0,506900
15,900333	0,5	-0,521700
15,908667	0,5	-0,519950
15,917000	0,5	-0,522100
15,925333	0,5	-0,533800
15,933667	0,5	-0,551050
15,942000	0,5	-0,562100
15,950333	0,5	-0,562450
15,958667	0,5	-0,564200
15,967000	0,5	-0,571200
15,975333	0,5	-0,569700
15,983667	0,5	-0,569400
15,992000	0,5	-0,572550
16,000333	0,5	-0,572200
16,008667	0,5	-0,571400
16,017000	0,5	-0,571150
16,025333	0,5	-0,579300
16,033667	0,5	-0,574800
16,042000	0,5	-0,593200
16,050333	0,5	-0,590550
16,058667	0,5	-0,587450
16,067000	0,5	-0,587550
16,075333	0,5	-0,593550
16,083667	0,5	-0,610050
16,092000	0,5	-0,612250
16,100333	0,5	-0,612500
16,108667	0,5	-0,611200
16,117000	0,5	-0,608300
16,125333	0,5	-0,616950
16,133667	0,5	-0,616950
16,142000	0,5	-0,622100
16,150333	0,5	-0,623050
16,158667	0,5	-0,626700
16,167000	0,5	-0,636800
16,175333	0,5	-0,638700
16,183667	0,5	-0,640000
16,192000	0,5	-0,658650
16,200333	0,5	-0,648650
16,208667	0,5	-0,647900
16,217000	0,5	-0,657650
16,225333	0,5	-0,659150
16,233667	0,5	-0,681400
16,242000	0,5	-0,669950
16,250333	0,5	-0,676500
16,258667	0,5	-0,675750
16,267000	0,5	-0,683300
16,275333	0,5	-0,680000
16,283667	0,5	-0,687750
16,292000	0,5	-0,684050
16,300333	0,5	-0,687300
16,308667	0,5	-0,692150
16,317000	0,5	-0,695300
16,325333	0,5	-0,706800
16,333667	0,5	-0,703700
16,342000	0,5	-0,721800
16,350333	0,5	-0,707600
16,358667	0,5	-0,707700
16,367000	0,5	-0,716700
16,375333	0,5	-0,725550
16,383667	0,5	-0,743700
16,392000	0,5	-0,735150
16,400333	0,5	-0,732800
16,408667	0,5	-0,742800
16,417000	0,5	-0,738100
16,425333	0,5	-0,745850
16,433667	0,5	-0,743400
16,442000	0,5	-0,743050
16,450333	0,5	-0,742000
16,458667	0,5	-0,748100
16,467000	0,5	-0,758100
16,475333	0,5	-0,752700
16,483667	0,5	-0,760800
16,492000	0,5	-0,766800
16,500333	0,5	-0,760150
16,508667	0,5	-0,767050
16,517000	0,5	-0,774250
16,525333	0,5	-0,783950
16,533667	0,5	-0,794700
16,542000	0,5	-0,782400
16,550333	0,5	-0,786550
16,558667	0,5	-0,784100
16,567000	0,5	-0,792600
16,575333	0,5	-0,789850
16,583667	0,5	-0,793700
16,592000	0,5	-0,788500
16,600333	0,5	-0,789200
16,608667	0,5	-0,793800
16,617000	0,5	-0,789400
16,625333	0,5	-0,787800
16,633667	0,5	-0,801450
16,642000	0,5	-0,794900
16,650333	0,5	-0,791200
16,658667	0,5	-0,795750
16,667000	0,5	-0,803650
16,675333	0,5	-0,817850
16,683667	0,5	-0,820100
16,692000	0,5	-0,822950
16,700333	0,5	-0,818750
16,708667	0,5	-0,822550
16,717000	0,5	-0,818900
16,725333	0,5	-0,823850
16,733667	0,5	-0,818200
16,742000	0,5	-0,825650
16,750333	0,5	-0,823550
16,758667	0,5	-0,827950
16,767000	0,5	-0,827250
16,775333	0,5	-0,831300
16,783667	0,5	-0,835700
16,792000	0,5	-0,829250
16,800333	0,5	-0,829500
16,808667	0,5	-0,833400
16,817000	0,5	-0,847700
16,825333	0,5	-0,857450
16,833667	0,5	-0,864700
16,842000	0,5	-0,862850
16,850333	0,5	-0,859550
16,858667	0,5	-0,865200
16,867000	0,5	-0,865300
16,875333	0,5	-0,866350
16,883667	0,5	-0,867150
16,892000	0,5	-0,865650
16,900333	0,5	-0,870000
16,908667	0,5	-0,866350
16,917000	0,5	-0,865650
16,925333	0,5	-0,873700
16,933667	0,5	-0,869300
16,942000	0,5	-0,858500
16,950333	0,5	-0,857200
16,958667	0,5	-0,860100
16,967000	0,5	-0,871200
16,975333	0,5	-0,873850
16,983667	0,5	-0,866400
16,992000	0,5	-0,861750
17,000333	0,5	-0,856750
17,008667	0,5	-0,855750
17,017000	0,5	-0,853150
17,025333	0,5	-0,851350
17,033667	0,5	-0,845750
17,042000	0,5	-0,843950
17,050333	0,5	-0,843600
17,058667	0,5	-0,840300
17,067000	0,5	-0,835050
17,075333	0,5	-0,858150
17,083667	0,5	-0,841050
17,092000	0,5	-0,833350
17,100333	0,5	-0,832600
17,108667	0,5	-0,839150
17,117000	0,5	-0,851400
17,125333	0,5	-0,845500
17,133667	0,5	-0,842450
17,142000	0,5	-0,843600
17,150333	0,5	-0,842950
17,158667	0,5	-0,848250
17,167000	0,5	-0,851550
17,175333	0,5	-0,857400
17,183667	0,5	-0,860600
17,192000	0,5	-0,865200
17,200333	0,5	-0,870550
17,208667	0,5	-0,864950
17,217000	0,5	-0,866500
17,225333	0,5	-0,878850
17,233667	0,5	-0,868300
17,242000	0,5	-0,869750
17,250333	0,5	-0,876950
17,258667	0,5	-0,876750
17,267000	0,5	-0,892150
17,275333	0,5	-0,879900
17,283667	0,5	-0,878600
17,292000	0,5	-0,878550
17,300333	0,5	-0,882950
17,308667	0,5	-0,876850
17,317000	0,5	-0,880300
17,325333	0,5	-0,874650
17,333667	0,5	-0,873950
17,342000	0,5	-0,876550
17,350333	0,5	-0,873650
17,358667	0,5	-0,866000
17,367000	0,5	-0,870450
17,375333	0,5	-0,875150
17,383667	0,5	-0,861800
17,392000	0,5	-0,861800
17,400333	0,5	-0,860850
17,408667	0,5	-0,870450
17,417000	0,5	-0,875150
17,425333	0,5	-0,872150
17,433667	0,5	-0,865250
17,442000	0,5	-0,868400
17,450333	0,5	-0,863700
17,458667	0,5	-0,862800
17,467000	0,5	-0,856000
17,475333	0,5	-0,857300
17,483667	0,5	-0,854050
17,492000	0,5	-0,854650
17,500333	0,5	-0,859000
17,508667	0,5	-0,849600
17,517000	0,5	-0,857100
17,525333	0,5	-0,843300
17,533667	0,5	-0,833950
17,542000	0,5	-0,831150
17,550333	0,5	-0,837900
17,558667	0,5	-0,845850
17,567000	0,5	-0,844750
17,575333	0,5	-0,833500
17,583667	0,5	-0,832400
17,592000	0,5	-0,826150
17,600333	0,5	-0,825300
17,608667	0,5	-0,817300
17,617000	0,5	-0,817750
17,625333	0,5	-0,806700
17,633667	0,5	-0,806000
17,642000	0,5	-0,800750
17,650333	0,5	-0,792900
17,658667	0,5	-0,790350
17,667000	0,5	-0,797600
17,675333	0,5	-0,784500
17,683667	0,5	-0,782700
17,692000	0,5	-0,787150
17,700333	0,5	-0,798550
17,708667	0,5	-0,811600
17,717000	0,5	-0,807250
17,725333	0,5	-0,812550
17,733667	0,5	-0,803800
17,742000	0,5	-0,808900
17,750333	0,5	-0,803750
17,758667	0,5	-0,804200
17,767000	0,5	-0,796750
17,775333	0,5	-0,801450
17,783667	0,5	-0,802650
17,792000	0,5	-0,799400
17,800333	0,5	-0,799100
17,808667	0,5	-0,812550
17,817000	0,5	-0,806700
17,825333	0,5	-0,795050
17,833667	0,5	-0,798350
17,842000	0,5	-0,802400
17,850333	0,5	-0,819250
17,858667	0,5	-0,822100
17,867000	0,5	-0,826150
17,875333	0,5	-0,820050
17,883667	0,5	-0,819900
17,892000	0,5	-0,815800
17,900333	0,5	-0,823700
17,908667	0,5	-0,821550
17,917000	0,5	-0,823900
17,925333	0,5	-0,820300
17,933667	0,5	-0,827650
17,942000	0,5	-0,821600
17,950333	0,5	-0,824850
17,958667	0,5	-0,839650
17,967000	0,5	-0,831550
17,975333	0,5	-0,826000
17,983667	0,5	-0,838300
17,992000	0,5	-0,841200
18,000333	0,5	-0,863850
18,008667	0,5	-0,861600
18,017000	0,5	-0,861100
18,025333	0,5	-0,871500
18,033667	0,5	-0,871000
18,042000	0,5	-0,873450
18,050333	0,5	-0,874350
18,058667	0,5	-0,880150
18,067000	0,5	-0,881000
18,075333	0,5	-0,891050
18,083667	0,5	-0,894200
18,092000	0,5	-0,898750
18,100333	0,5	-0,904450
18,108667	0,5	-0,915200
18,117000	0,5	-0,904700
18,125333	0,5	-0,908850
18,133667	0,5	-0,912800
18,142000	0,5	-0,924750
18,150333	0,5	-0,943250
18,158667	0,5	-0,935450
18,167000	0,5	-0,937550
18,175333	0,5	-0,940650
18,183667	0,5	-0,946650
18,192000	0,5	-0,950400
18,200333	0,5	-0,954100
18,208667	0,5	-0,954150
18,217000	0,5	-0,963000
18,225333	0,5	-0,963800
18,233667	0,5	-0,971450
18,242000	0,5	-0,964400
18,250333	0,5	-0,981200
18,258667	0,5	-0,976350
18,267000	0,5	-0,979550
18,275333	0,5	-0,983150
18,283667	0,5	-0,994150
18,292000	0,5	-1,006650
18,300333	0,5	-1,014200
18,308667	0,5	-1,012000
18,317000	0,5	-1,018300
18,325333	0,5	-1,020350
18,333667	0,5	-1,029750
18,342000	0,5	-1,029300
18,350333	0,5	-1,029700
18,358667	0,5	-1,035200
18,367000	0,5	-1,035200
18,375333	0,5	-1,046000
18,383667	0,5	-1,044750
18,392000	0,5	-1,043350
18,400333	0,5	-1,057350
18,408667	0,5	-1,053100
18,417000	0,5	-1,049150
18,425333	0,5	-1,054300
18,433667	0,5	-1,061750
18,442000	0,5	-1,078950
18,450333	0,5	-1,073800
18,458667	0,5	-1,071200
18,467000	0,5	-1,064550
18,475333	0,5	-1,062100
18,483667	0,5	-1,061000
18,492000	0,5	-1,054500
18,500333	0,5	-1,050350
18,508667	0,5	-1,045750
18,517000	0,5	-1,043550
18,525333	0,5	-1,037600
18,533667	0,5	-1,035150
18,542000	0,5	-1,032500
18,550333	0,5	-1,040050
18,558667	0,5	-1,026500
18,567000	0,5	-1,031000
18,575333	0,5	-1,036850
18,583667	0,5	-1,056150
18,592000	0,5	-1,067900
18,600333	0,5	-1,069550
18,608667	0,5	-1,070550
18,617000	0,5	-1,079900
18,625333	0,5	-1,079550
18,633667	0,5	-1,084350
18,642000	0,5	-1,083300
18,650333	0,5	-1,089350
18,658667	0,5	-1,091150
18,667000	0,5	-1,093850
18,675333	0,5	-1,095800
18,683667	0,5	-1,094250
18,692000	0,5	-1,104150
18,700333	0,5	-1,110700
18,708667	0,5	-1,106750
18,717000	0,5	-1,119100
18,725333	0,5	-1,126400
18,733667	0,5	-1,140550
18,742000	0,5	-1,159350
18,750333	0,5	-1,159950
18,758667	0,5	-1,171900
18,767000	0,5	-1,172750
18,775333	0,5	-1,189150
18,783667	0,5	-1,190850
18,792000	0,5	-1,201450
18,800333	0,5	-1,206050
18,808667	0,5	-1,216350
18,817000	0,5	-1,224800
18,825333	0,5	-1,218750
18,833667	0,5	-1,227000
18,842000	0,5	-1,247900
18,850333	0,5	-1,240550
18,858667	0,5	-1,240850
18,867000	0,5	-1,249450
18,875333	0,5	-1,263600
18,883667	0,5	-1,281250
18,892000	0,5	-1,279750
18,900333	0,5	-1,284050
18,908667	0,5	-1,283600
18,917000	0,5	-1,293800
18,925333	0,5	-1,287050
18,933667	0,5	-1,296700
18,942000	0,5	-1,294350
18,950333	0,5	-1,298750
18,958667	0,5	-1,300200
18,967000	0,5	-1,296800
18,975333	0,5	-1,289750
18,983667	0,5	-1,299150
18,992000	0,5	-1,303900
19,000333	0,5	-1,299350
19,008667	0,5	-1,299700
19,017000	0,5	-1,305100
19,025333	0,5	-1,321850
19,033667	0,5	-1,326850
19,042000	0,5	-1,331850
19,050333	0,5	-1,331050
19,058667	0,5	-1,341750
19,067000	0,5	-1,347850
19,075333	0,5	-1,357700
19,083667	0,5	-1,358750
19,092000	0,5	-1,363450
19,100333	0,5	-1,370100
19,108667	0,5	-1,374900
19,117000	0,5	-1,380750
19,125333	0,5	-1,377850
19,133667	0,5	-1,394400
19,142000	0,5	-1,394250
19,150333	0,5	-1,387650
19,158667	0,5	-1,387150
19,167000	0,5	-1,389150
19,175333	0,5	-1,406000
19,183667	0,5	-1,409450
19,192000	0,5	-1,400400
19,200333	0,5	-1,412400
19,208667	0,5	-1,413600
19,217000	0,5	-1,423950
19,225333	0,5	-1,425050
19,233667	0,5	-1,431350
19,242000	0,5	-1,432900
19,250333	0,5	-1,437150
19,258667	0,5	-1,444950
19,267000	0,5	-1,443650
19,275333	0,5	-1,438600
19,283667	0,5	-1,463050
19,292000	0,5	-1,449350
19,300333	0,5	-1,458900
19,308667	0,5	-1,465450
19,317000	0,5	-1,478350
19,325333	0,5	-1,497600
19,333667	0,5	-1,487200
19,342000	0,5	-1,495200
19,350333	0,5	-1,496900
19,358667	0,5	-1,506100
19,367000	0,5	-1,503450
19,375333	0,5	-1,507150
19,383667	0,5	-1,504250
19,392000	0,5	-1,505700
19,400333	0,5	-1,501250
19,408667	0,5	-1,494500
19,417000	0,5	-1,472500
19,425333	0,5	-1,475050
19,433667	0,5	-1,476950
19,442000	0,5	-1,467250
19,450333	0,5	-1,477700
19,458667	0,5	-1,493200
19,467000	0,5	-1,519350
19,475333	0,5	-1,547550
19,483667	0,5	-1,554950
19,492000	0,5	-1,562350
19,500333	0,5	-1,572050
19,508667	0,5	-1,582150
19,517000	0,5	-1,586850
19,525333	0,5	-1,583950
19,533667	0,5	-1,590400
19,542000	0,5	-1,590200
19,550333	0,5	-1,599100
19,558667	0,5	-1,591850
19,567000	0,5	-1,587400
19,575333	0,5	-1,595150
19,583667	0,5	-1,593900
19,592000	0,5	-1,586900
19,600333	0,5	-1,592250
19,608667	0,5	-1,599800
19,617000	0,5	-1,620200
19,625333	0,5	-1,628350
19,633667	0,5	-1,632750
19,642000	0,5	-1,638450
19,650333	0,5	-1,641050
19,658667	0,5	-1,642600
19,667000	0,5	-1,648650
19,675333	0,5	-1,650950
19,683667	0,5	-1,649750
19,692000	0,5	-1,646700
19,700333	0,5	-1,647450
19,708667	0,5	-1,637950
19,717000	0,5	-1,632900
19,725333	0,5	-1,638100
19,733667	0,5	-1,620600
19,742000	0,5	-1,609450
19,750333	0,5	-1,604750
19,758667	0,5	-1,617550
19,767000	0,5	-1,628950
19,775333	0,5	-1,635550
19,783667	0,5	-1,642750
19,792000	0,5	-1,656200
19,800333	0,5	-1,661600
19,808667	0,5	-1,672700
19,817000	0,5	-1,678600
19,825333	0,5	-1,681900
19,833667	0,5	-1,689950
19,842000	0,5	-1,692900
19,850333	0,5	-1,702200
19,858667	0,5	-1,689250
19,867000	0,5	-1,706800
19,875333	0,5	-1,706600
19,883667	0,5	-1,704000
19,892000	0,5	-1,707050
19,900333	0,5	-1,714650
19,908667	0,5	-1,733100
19,917000	0,5	-1,739600
19,925333	0,5	-1,741600
19,933667	0,5	-1,749950
19,942000	0,5	-1,748800
19,950333	0,5	-1,758050
19,958667	0,5	-1,759100
19,967000	0,5	-1,760750
19,975333	0,5	-1,766550
19,983667	0,5	-1,766550
19,992000	0,5	-1,773150
20,000333	0,5	-1,763300
20,008667	0,5	-1,761800
20,017000	0,5	-1,780150
20,025333	0,5	-1,765500
20,033667	0,5	-1,759900
20,042000	0,5	-1,766700
20,050333	0,5	-1,767250
20,058667	0,5	-1,783900
20,067000	0,5	-1,771750
20,075333	0,5	-1,774800
20,083667	0,5	-1,772700
20,092000	0,5	-1,777100
20,100333	0,5	-1,770550
20,108667	0,5	-1,773850
20,117000	0,5	-1,769850
20,125333	0,5	-1,763450
20,133667	0,5	-1,765200
20,142000	0,5	-1,759600
20,150333	0,5	-1,758000
20,158667	0,5	-1,754900
20,167000	0,5	-1,769100
20,175333	0,5	-1,752150
20,183667	0,5	-1,753000
20,192000	0,5	-1,753550
20,200333	0,5	-1,768750
20,208667	0,5	-1,774200
20,217000	0,5	-1,767700
20,225333	0,5	-1,764450
20,233667	0,5	-1,769350
20,242000	0,5	-1,764800
20,250333	0,5	-1,767500
20,258667	0,5	-1,763100
20,267000	0,5	-1,764200
20,275333	0,5	-1,762550
20,283667	0,5	-1,760100
20,292000	0,5	-1,757250
20,300333	0,5	-1,742900
20,308667	0,5	-1,750500
20,317000	0,5	-1,752050
20,325333	0,5	-1,746000
20,333667	0,5	-1,744800
20,342000	0,5	-1,753450
20,350333	0,5	-1,767600
20,358667	0,5	-1,763800
20,367000	0,5	-1,752600
20,375333	0,5	-1,750750
20,383667	0,5	-1,737200
20,392000	0,5	-1,737650
20,400333	0,5	-1,728800
20,408667	0,5	-1,725500
20,417000	0,5	-1,718050
20,425333	0,5	-1,716700
20,433667	0,5	-1,715850
20,442000	0,5	-1,696750
20,450333	0,5	-1,691900
20,458667	0,5	-1,706650
20,467000	0,5	-1,705750
20,475333	0,5	-1,707900
20,483667	0,5	-1,710950
20,492000	0,5	-1,726050
20,500333	0,5	-1,742500
20,508667	0,5	-1,738750
20,517000	0,5	-1,744300
20,525333	0,5	-1,737950
20,533667	0,5	-1,747350
20,542000	0,5	-1,740600
20,550333	0,5	-1,751150
20,558667	0,5	-1,742100
20,567000	0,5	-1,747750
20,575333	0,5	-1,745650
20,583667	0,5	-1,738750
20,592000	0,5	-1,724600
20,600333	0,5	-1,721950
20,608667	0,5	-1,730300
20,617000	0,5	-1,724500
20,625333	0,5	-1,730700
20,633667	0,5	-1,738850
20,642000	0,5	-1,759600
20,650333	0,5	-1,764400
20,658667	0,5	-1,773350
20,667000	0,5	-1,763900
20,675333	0,5	-1,771500
20,683667	0,5	-1,762300
20,692000	0,5	-1,769150
20,700333	0,5	-1,758650
20,708667	0,5	-1,763550
20,717000	0,5	-1,759600
20,725333	0,5	-1,761150
20,733667	0,5	-1,742800
20,742000	0,5	-1,730450
20,750333	0,5	-1,735700
20,758667	0,5	-1,739700
20,767000	0,5	-1,738200
20,775333	0,5	-1,744300
20,783667	0,5	-1,758200
20,792000	0,5	-1,768050
20,800333	0,5	-1,772850
20,808667	0,5	-1,761050
20,817000	0,5	-1,767850
20,825333	0,5	-1,760450
20,833667	0,5	-1,765550
20,842000	0,5	-1,755250
20,850333	0,5	-1,757100
20,858667	0,5	-1,747900
20,867000	0,5	-1,750400
20,875333	0,5	-1,742450
20,883667	0,5	-1,717100
20,892000	0,5	-1,704750
20,900333	0,5	-1,709650
20,908667	0,5	-1,707000
20,917000	0,5	-1,705500
20,925333	0,5	-1,707400
20,933667	0,5	-1,716450
20,942000	0,5	-1,716250
20,950333	0,5	-1,709400
20,958667	0,5	-1,710250
20,967000	0,5	-1,702000
20,975333	0,5	-1,705900
20,983667	0,5	-1,696650
20,992000	0,5	-1,697950
21,000333	0,5	-1,687900
21,008667	0,5	-1,684550
21,017000	0,5	-1,681250
21,025333	0,5	-1,658700
21,033667	0,5	-1,639800
21,042000	0,5	-1,639100
21,050333	0,5	-1,641050
21,058667	0,5	-1,642000
21,067000	0,5	-1,645800
21,075333	0,5	-1,656600
21,083667	0,5	-1,679450
21,092000	0,5	-1,661850
21,100333	0,5	-1,663200
21,108667	0,5	-1,652100
21,117000	0,5	-1,652450
21,125333	0,5	-1,642450
21,133667	0,5	-1,638600
21,142000	0,5	-1,624400
21,150333	0,5	-1,618900
21,158667	0,5	-1,605700
21,167000	0,5	-1,595400
21,175333	0,5	-1,566450
21,183667	0,5	-1,543150
21,192000	0,5	-1,539850
21,200333	0,5	-1,532350
21,208667	0,5	-1,529650
21,217000	0,5	-1,531250
21,225333	0,5	-1,537900
21,233667	0,5	-1,548050
21,242000	0,5	-1,540650
21,250333	0,5	-1,534700
21,258667	0,5	-1,534650
21,267000	0,5	-1,525500
21,275333	0,5	-1,524250
21,283667	0,5	-1,515550
21,292000	0,5	-1,509300
21,300333	0,5	-1,498050
21,308667	0,5	-1,496500
21,317000	0,5	-1,477450
21,325333	0,5	-1,449100
21,333667	0,5	-1,434250
21,342000	0,5	-1,436800
21,350333	0,5	-1,437550
21,358667	0,5	-1,439750
21,367000	0,5	-1,448750
21,375333	0,5	-1,456800
21,383667	0,5	-1,457650
21,392000	0,5	-1,446800
21,400333	0,5	-1,444100
21,408667	0,5	-1,436650
21,417000	0,5	-1,434650
21,425333	0,5	-1,425850
21,433667	0,5	-1,423950
21,442000	0,5	-1,409100
21,450333	0,5	-1,400700
21,458667	0,5	-1,392500
21,467000	0,5	-1,362850
21,475333	0,5	-1,339900
21,483667	0,5	-1,334500
21,492000	0,5	-1,326800
21,500333	0,5	-1,318900
21,508667	0,5	-1,307700
21,517000	0,5	-1,305800
21,525333	0,5	-1,286450
21,533667	0,5	-1,243900
21,542000	0,5	-1,204300
21,550333	0,5	-1,163000
21,558667	0,5	-1,145150
21,567000	0,5	-1,137950
21,575333	0,5	-1,145000
21,583667	0,5	-1,151500
21,592000	0,5	-1,159200
21,600333	0,5	-1,164550
21,608667	0,5	-1,151950
21,617000	0,5	-1,122650
21,625333	0,5	-1,115400
21,633667	0,5	-1,117100
21,642000	0,5	-1,109300
21,650333	0,5	-1,110150
21,658667	0,5	-1,107450
21,667000	0,5	-1,113100
21,675333	0,5	-1,105850
21,683667	0,5	-1,095800
21,692000	0,5	-1,075400
21,700333	0,5	-1,057850
21,708667	0,5	-1,031400
21,717000	0,5	-1,012900
21,725333	0,5	-0,978250
21,733667	0,5	-0,961350
21,742000	0,5	-0,936600
21,750333	0,5	-0,919800
21,758667	0,5	-0,883500
21,767000	0,5	-0,861350
21,775333	0,5	-0,851050
21,783667	0,5	-0,837000
21,792000	0,5	-0,823300
21,800333	0,5	-0,817600
21,808667	0,5	-0,807700
21,817000	0,5	-0,799100
21,825333	0,5	-0,782700
21,833667	0,5	-0,763200
21,842000	0,5	-0,753700
21,850333	0,5	-0,731550
21,858667	0,5	-0,717000
21,867000	0,5	-0,693400
21,875333	0,5	-0,665300
21,883667	0,5	-0,626800
21,892000	0,5	-0,588450
21,900333	0,5	-0,528500
21,908667	0,5	-0,447450
21,917000	0,5	-0,394500
21,925333	0,5	-0,347150
21,933667	0,5	-0,306050
21,942000	0,5	-0,295600
21,950333	0,5	-0,300000
21,958667	0,5	-0,317900
21,967000	0,5	-0,321100
21,975333	0,5	-0,310150
21,983667	0,5	-0,305900
21,992000	0,5	-0,290400
22,000333	0,5	-0,277150
22,008667	0,5	-0,249150
22,017000	0,5	-0,234350
22,025333	0,5	-0,209100
22,033667	0,5	-0,190200
22,042000	0,5	-0,159550
22,050333	0,5	-0,130450
22,058667	0,5	-0,094900
22,067000	0,5	-0,088950
22,075333	0,5	-0,034200
22,083667	0,5	0,000550
22,092000	0,5	0,037250
22,100333	0,5	0,069550
22,108667	0,5	0,089400
22,117000	0,5	0,147050
22,125333	0,5	0,184250
22,133667	0,5	0,226400
22,142000	0,5	0,260450
22,150333	0,5	0,302650
22,158667	0,5	0,341500
22,167000	0,5	0,379700
22,175333	0,5	0,410650
22,183667	0,5	0,447250
22,192000	0,5	0,475750
22,200333	0,5	0,504450
22,208667	0,5	0,532350
22,217000	0,5	0,577350
22,225333	0,5	0,628700
22,233667	0,5	0,669850
22,242000	0,5	0,711750
22,250333	0,5	0,747150
22,258667	0,5	0,786200
22,267000	0,5	0,831750
22,275333	0,5	0,874650
22,283667	0,5	0,909900
22,292000	0,5	0,952250
22,300333	0,5	0,998200
22,308667	0,5	1,049600
22,317000	0,5	1,097850
22,325333	0,5	1,152000
22,333667	0,5	1,201200
22,342000	0,5	1,244200
22,350333	0,5	1,290700
22,358667	0,5	1,345900
22,367000	0,5	1,416550
22,375333	0,5	1,476300
22,383667	0,5	1,531850
22,392000	0,5	1,575400
22,400333	0,5	1,619050
22,408667	0,5	1,670750
22,417000	0,5	1,741100
22,425333	0,5	1,797050
22,433667	0,5	1,853250
22,442000	0,5	1,907050
22,450333	0,5	1,969100
22,458667	0,5	2,024950
22,467000	0,5	2,091850
22,475333	0,5	2,148200
22,483667	0,5	2,205050
22,492000	0,5	2,230250
22,500333	0,5	2,298200
22,508667	0,5	2,354200
22,517000	0,5	2,431950
22,525333	0,5	2,476950
22,533667	0,5	2,527650
22,542000	0,5	2,556650
22,550333	0,5	2,584250
22,558667	0,5	2,626750
22,567000	0,5	2,662000
22,575333	0,5	2,694600
22,583667	0,5	2,713400
22,592000	0,5	2,741500
22,600333	0,5	2,751250
22,608667	0,5	2,767700
22,617000	0,5	2,766350
22,625333	0,5	2,760200
22,633667	0,5	2,715000
22,642000	0,5	2,671450
22,650333	0,5	2,649750
22,658667	0,5	2,630300
22,667000	0,5	2,583300
22,675333	0,5	2,514350
22,683667	0,5	2,440050
22,692000	0,5	2,350700
22,700333	0,5	2,271750
22,708667	0,5	2,181950
22,717000	0,5	2,096650
22,725333	0,5	2,006400
22,733667	0,5	1,911200
22,742000	0,5	1,809050
22,750333	0,5	1,706400
22,758667	0,5	1,594300
22,767000	0,5	1,479100
22,775333	0,5	1,357500
22,783667	0,5	1,195050
22,792000	0,5	1,060350
22,800333	0,5	0,950850
22,808667	0,5	0,827350
22,817000	0,5	0,683950
22,825333	0,5	0,546700
22,833667	0,5	0,407750
22,842000	0,5	0,265250
22,850333	0,5	0,126100
22,858667	0,5	-0,015650
22,867000	0,5	-0,149700
22,875333	0,5	-0,281800
22,883667	0,5	-0,403250
22,892000	0,5	-0,535550
22,900333	0,5	-0,657800
22,908667	0,5	-0,788350
22,917000	0,5	-0,904700
22,925333	0,5	-1,012350
22,933667	0,5	-1,132650
22,942000	0,5	-1,242600
22,950333	0,5	-1,373200
22,958667	0,5	-1,498000
22,967000	0,5	-1,598900
22,975333	0,5	-1,691500
22,983667	0,5	-1,765300
22,992000	0,5	-1,851250
23,000333	0,5	-1,932900
23,008667	0,5	-1,996150
23,017000	0,5	-2,055300
23,025333	0,5	-2,107900
23,033667	0,5	-2,165150
23,042000	0,5	-2,215400
23,050333	0,5	-2,264750
23,058667	0,5	-2,309000
23,067000	0,5	-2,358850
23,075333	0,5	-2,376800
23,083667	0,5	-2,415400
23,092000	0,5	-2,461700
23,100333	0,5	-2,530950
23,108667	0,5	-2,567150
23,117000	0,5	-2,602250
23,125333	0,5	-2,612600
23,133667	0,5	-2,621400
23,142000	0,5	-2,640700
23,150333	0,5	-2,648300
23,158667	0,5	-2,648350
23,167000	0,5	-2,644250
23,175333	0,5	-2,638300
23,183667	0,5	-2,628800
23,192000	0,5	-2,626300
23,200333	0,5	-2,616100
23,208667	0,5	-2,609800
23,217000	0,5	-2,601000
23,225333	0,5	-2,609650
23,233667	0,5	-2,586600
23,242000	0,5	-2,565000
23,250333	0,5	-2,587400
23,258667	0,5	-2,598250
23,267000	0,5	-2,586050
23,275333	0,5	-2,575500
23,283667	0,5	-2,552500
23,292000	0,5	-2,545950
23,300333	0,5	-2,521950
23,308667	0,5	-2,501850
23,317000	0,5	-2,468250
23,325333	0,5	-2,444700
23,333667	0,5	-2,416050
23,342000	0,5	-2,389200
23,350333	0,5	-2,358550
23,358667	0,5	-2,330650
23,367000	0,5	-2,304850
23,375333	0,5	-2,333350
23,383667	0,5	-2,266450
23,392000	0,5	-2,229600
23,400333	0,5	-2,224600
23,408667	0,5	-2,214800
23,417000	0,5	-2,201350
23,425333	0,5	-2,184100
23,433667	0,5	-2,160250
23,442000	0,5	-2,145050
23,450333	0,5	-2,128400
23,458667	0,5	-2,110500
23,467000	0,5	-2,090550
23,475333	0,5	-2,063600
23,483667	0,5	-2,043350
23,492000	0,5	-2,019850
23,500333	0,5	-1,996350
23,508667	0,5	-1,976500
23,517000	0,5	-2,022900
23,525333	0,5	-2,001250
23,533667	0,5	-1,949100
23,542000	0,5	-1,894050
23,550333	0,5	-1,875350
23,558667	0,5	-1,864650
23,567000	0,5	-1,849050
23,575333	0,5	-1,837150
23,583667	0,5	-1,821450
23,592000	0,5	-1,803100
23,600333	0,5	-1,788150
23,608667	0,5	-1,768550
23,617000	0,5	-1,753350
23,625333	0,5	-1,734950
23,633667	0,5	-1,719400
23,642000	0,5	-1,705750
23,650333	0,5	-1,692600
23,658667	0,5	-1,682700
23,667000	0,5	-1,782200
23,675333	0,5	-1,753500
23,683667	0,5	-1,708050
23,692000	0,5	-1,650400
23,700333	0,5	-1,630450
23,708667	0,5	-1,621100
23,717000	0,5	-1,611250
23,725333	0,5	-1,608100
23,733667	0,5	-1,588700
23,742000	0,5	-1,572050
23,750333	0,5	-1,554400
23,758667	0,5	-1,533500
23,767000	0,5	-1,515450
23,775333	0,5	-1,497100
23,783667	0,5	-1,475950
23,792000	0,5	-1,462150
23,800333	0,5	-1,446100
23,808667	0,5	-1,490150
23,817000	0,5	-1,539450
23,825333	0,5	-1,518050
23,833667	0,5	-1,448550
23,842000	0,5	-1,415000
23,850333	0,5	-1,390700
23,858667	0,5	-1,388250
23,867000	0,5	-1,388500
23,875333	0,5	-1,376150
23,883667	0,5	-1,360550
23,892000	0,5	-1,344200
23,900333	0,5	-1,328950
23,908667	0,5	-1,311800
23,917000	0,5	-1,301550
23,925333	0,5	-1,280950
23,933667	0,5	-1,263300
23,942000	0,5	-1,239950
23,950333	0,5	-1,227750
23,958667	0,5	-1,334100
23,967000	0,5	-1,309800
23,975333	0,5	-1,282200
23,983667	0,5	-1,219650
23,992000	0,5	-1,178150
24,000333	0,5	-1,159200
24,008667	0,5	-1,143500
24,017000	0,5	-1,144950
24,025333	0,5	-1,123050
24,033667	0,5	-1,103400
24,042000	0,5	-1,086700
24,050333	0,5	-1,070950
24,058667	0,5	-1,056600
24,067000	0,5	-1,037250
24,075333	0,5	-1,020200
24,083667	0,5	-1,002000
24,092000	0,5	-0,990850
24,100333	0,5	-0,987600
24,108667	0,5	-1,087850
24,117000	0,5	-1,035650
24,125333	0,5	-1,022750
24,133667	0,5	-0,960200
24,142000	0,5	-0,940550
24,150333	0,5	-0,920700
24,158667	0,5	-0,917150
24,167000	0,5	-0,920450
24,175333	0,5	-0,893200
24,183667	0,5	-0,870050
24,192000	0,5	-0,855450
24,200333	0,5	-0,835250
24,208667	0,5	-0,818300
24,217000	0,5	-0,799300
24,225333	0,5	-0,779900
24,233667	0,5	-0,763400
24,242000	0,5	-0,747050
24,250333	0,5	-0,785350
24,258667	0,5	-0,807800
24,267000	0,5	-0,779700
24,275333	0,5	-0,750400
24,283667	0,5	-0,708500
24,292000	0,5	-0,693400
24,300333	0,5	-0,686050
24,308667	0,5	-0,680400
24,317000	0,5	-0,683600
24,325333	0,5	-0,661800
24,333667	0,5	-0,651900
24,342000	0,5	-0,633900
24,350333	0,5	-0,629850
24,358667	0,5	-0,614600
24,367000	0,5	-0,600100
24,375333	0,5	-0,582000
24,383667	0,5	-0,568400
24,392000	0,5	-0,557900
24,400333	0,5	-0,604250
24,408667	0,5	-0,595800
24,417000	0,5	-0,569250
24,425333	0,5	-0,538000
24,433667	0,5	-0,505450
24,442000	0,5	-0,495850
24,450333	0,5	-0,484500
24,458667	0,5	-0,484250
24,467000	0,5	-0,480100
24,475333	0,5	-0,471950
24,483667	0,5	-0,451000
24,492000	0,5	-0,444150
24,500333	0,5	-0,428500
24,508667	0,5	-0,418700
24,517000	0,5	-0,408550
24,525333	0,5	-0,400100
24,533667	0,5	-0,390150
24,542000	0,5	-0,384650
24,550333	0,5	-0,423950
24,558667	0,5	-0,409950
24,567000	0,5	-0,393800
24,575333	0,5	-0,370000
24,583667	0,5	-0,350500
24,592000	0,5	-0,342200
24,600333	0,5	-0,340100
24,608667	0,5	-0,335850
24,617000	0,5	-0,330950
24,625333	0,5	-0,312800
24,633667	0,5	-0,308250
24,642000	0,5	-0,292750
24,650333	0,5	-0,287150
24,658667	0,5	-0,272600
24,667000	0,5	-0,263700
24,675333	0,5	-0,251550
24,683667	0,5	-0,247200
24,692000	0,5	-0,254000
24,700333	0,5	-0,263550
24,708667	0,5	-0,255250
24,717000	0,5	-0,241850
24,725333	0,5	-0,221750
24,733667	0,5	-0,213700
24,742000	0,5	-0,210050
24,750333	0,5	-0,210100
24,758667	0,5	-0,210400
24,767000	0,5	-0,201000
24,775333	0,5	-0,196800
24,783667	0,5	-0,191800
24,792000	0,5	-0,185950
24,800333	0,5	-0,175050
24,808667	0,5	-0,169100
24,817000	0,5	-0,161750
24,825333	0,5	-0,150900
24,833667	0,5	-0,142600
24,842000	0,5	-0,160700
24,850333	0,5	-0,147800
24,858667	0,5	-0,148350
24,867000	0,5	-0,129550
24,875333	0,5	-0,122450
24,883667	0,5	-0,112850
24,892000	0,5	-0,109550
24,900333	0,5	-0,113650
24,908667	0,5	-0,106650
24,917000	0,5	-0,101350
24,925333	0,5	-0,096100
24,933667	0,5	-0,094400
24,942000	0,5	-0,091550
24,950333	0,5	-0,086400
24,958667	0,5	-0,080450
24,967000	0,5	-0,079550
24,975333	0,5	-0,072350
24,983667	0,5	-0,072050
24,992000	0,5	-0,080550
25,000333	0,5	-0,071350
25,008667	0,5	-0,070650
25,017000	0,5	-0,059600
25,025333	0,5	-0,054150
25,033667	0,5	-0,047850
25,042000	0,5	-0,045700
25,050333	0,5	-0,046750
25,058667	0,5	-0,039000
25,067000	0,5	-0,032150
25,075333	0,5	-0,032500
25,083667	0,5	-0,029150
25,092000	0,5	-0,029150
25,100333	0,5	-0,025250
25,108667	0,5	-0,019100
25,117000	0,5	-0,016450
25,125333	0,5	-0,016200
25,133667	0,5	-0,014550
25,142000	0,5	-0,017600
25,150333	0,5	-0,013300
25,158667	0,5	-0,012250
25,167000	0,5	-0,011850
25,175333	0,5	-0,007200
25,183667	0,5	-0,004300
25,192000	0,5	-0,006650
25,200333	0,5	-0,007650
25,208667	0,5	-0,004950
25,217000	0,5	-0,003300
25,225333	0,5	-0,001300
25,233667	0,5	-0,000350
25,242000	0,5	0,002950
25,250333	0,5	0,006800
25,258667	0,5	0,010000
25,267000	0,5	0,013350
25,275333	0,5	0,015800
25,283667	0,5	0,016850
25,292000	0,5	0,019000
25,300333	0,5	0,018000
25,308667	0,5	0,020000
25,317000	0,5	0,021900
25,325333	0,5	0,022950
25,333667	0,5	0,022300
25,342000	0,5	0,020300
25,350333	0,5	0,020850
25,358667	0,5	0,019950
25,367000	0,5	0,022100
25,375333	0,5	0,023250
25,383667	0,5	0,024050
25,392000	0,5	0,022750
25,400333	0,5	0,024750
25,408667	0,5	0,026400
25,417000	0,5	0,028600
25,425333	0,5	0,028350
25,433667	0,5	0,035200
25,442000	0,5	0,034750
25,450333	0,5	0,038150
25,458667	0,5	0,040150
25,467000	0,5	0,039300
25,475333	0,5	0,041050
25,483667	0,5	0,039600
25,492000	0,5	0,040550
25,500333	0,5	0,040900
25,508667	0,5	0,045000
25,517000	0,5	0,039900
25,525333	0,5	0,043300
25,533667	0,5	0,039750
25,542000	0,5	0,040100
25,550333	0,5	0,037300
25,558667	0,5	0,039000
25,567000	0,5	0,040400
25,575333	0,5	0,038200
25,583667	0,5	0,043000
25,592000	0,5	0,043350
25,600333	0,5	0,042250
25,608667	0,5	0,036650
25,617000	0,5	0,042000
25,625333	0,5	0,040200
25,633667	0,5	0,046600
25,642000	0,5	0,047300
25,650333	0,5	0,050550
25,658667	0,5	0,051350
25,667000	0,5	0,049750
25,675333	0,5	0,049500
25,683667	0,5	0,052350
25,692000	0,5	0,050150
25,700333	0,5	0,050650
25,708667	0,5	0,050000
25,717000	0,5	0,050350
25,725333	0,5	0,051450
25,733667	0,5	0,051650
25,742000	0,5	0,055300
25,750333	0,5	0,057700
25,758667	0,5	0,052250
25,767000	0,5	0,054100
25,775333	0,5	0,053750
25,783667	0,5	0,062800
25,792000	0,5	0,067200
25,800333	0,5	0,065750
25,808667	0,5	0,065950
25,817000	0,5	0,066100
25,825333	0,5	0,067300
25,833667	0,5	0,065600
25,842000	0,5	0,068400
25,850333	0,5	0,064150
25,858667	0,5	0,067550
25,867000	0,5	0,066400
25,875333	0,5	0,073600
25,883667	0,5	0,066700
25,892000	0,5	0,081350
25,900333	0,5	0,069350
25,908667	0,5	0,070100
25,917000	0,5	0,070000
25,925333	0,5	0,074550
25,933667	0,5	0,081800
25,942000	0,5	0,079000
25,950333	0,5	0,076250
25,958667	0,5	0,077900
25,967000	0,5	0,077100
25,975333	0,5	0,078650
25,983667	0,5	0,082500
25,992000	0,5	0,078400
26,000333	0,5	0,078800
