File Path	chrom://chromeleon01/ikbm_chromeleon/2022/ICS-5000/ED1/Esteban/20220612_Cell_7_4_eg.seq/755.smp/ED_1.channel/ED_1.chm
Channel	ED_1

Injection Information:
Data Vault	ikbm_chromeleon
Injection	CelS2_02h-EGS_3
Injection Number	102
Position	BA3
Comment	
Processing Method	Stop sequence after Cell Death
Instrument Method	ICS5000_PA200_FullNative_Ox_26min_ED1
Type	Unknown
Status	Finished
Injection Date	14.06.2022
Injection Time	16:14:37
Injection Volume (µl)	5,0
Dilution Factor	1,0000
Weight	1,0000

Chromatogram Data Information:
Time Min. (min)	0,000333
Time Max. (min)	26,000333
Data Points	3121
Detector	EDet1
Generating Data System	Chromeleon 7.2.9.11323
Exporting Data System	Chromeleon 7.2.9.0
Operator	Instrument Controller
Signal Quantity	
Signal Unit	nC
Signal Min.	-2,692050
Signal Max.	57,685451
Channel	ED_1
Driver Name	DC-5000
Channel Type	Evaluation
Min. Step (s)	0,5
Max. Step (s)	0,5
Average Step (s)	0,5

Signal Parameter Information:
Signal Info	

Chromatogram Data:
Time (min)	Step (s)	Value (nC)
0,000333	n.a.	-0,067300
0,008667	0,5	-0,062400
0,017000	0,5	-0,059650
0,025333	0,5	-0,026050
0,033667	0,5	-0,049900
0,042000	0,5	-0,038950
0,050333	0,5	-0,038250
0,058667	0,5	-0,003850
0,067000	0,5	0,028700
0,075333	0,5	0,018950
0,083667	0,5	0,013000
0,092000	0,5	0,013950
0,100333	0,5	0,008600
0,108667	0,5	0,008600
0,117000	0,5	0,007450
0,125333	0,5	-0,003350
0,133667	0,5	-0,000200
0,142000	0,5	-0,006400
0,150333	0,5	0,002250
0,158667	0,5	-0,017450
0,167000	0,5	0,000750
0,175333	0,5	-0,003250
0,183667	0,5	-0,030350
0,192000	0,5	-0,029700
0,200333	0,5	-0,022350
0,208667	0,5	0,000900
0,217000	0,5	0,021100
0,225333	0,5	0,011050
0,233667	0,5	0,012950
0,242000	0,5	-0,000100
0,250333	0,5	0,002600
0,258667	0,5	-0,003950
0,267000	0,5	-0,003950
0,275333	0,5	-0,010700
0,283667	0,5	-0,017350
0,292000	0,5	0,002950
0,300333	0,5	0,009700
0,308667	0,5	0,010900
0,317000	0,5	0,004450
0,325333	0,5	-0,025300
0,333667	0,5	-0,045400
0,342000	0,5	-0,041100
0,350333	0,5	-0,038650
0,358667	0,5	0,000850
0,367000	0,5	0,005200
0,375333	0,5	0,008200
0,383667	0,5	-0,003450
0,392000	0,5	0,008500
0,400333	0,5	-0,008000
0,408667	0,5	-0,004650
0,417000	0,5	-0,013400
0,425333	0,5	-0,012650
0,433667	0,5	-0,008300
0,442000	0,5	-0,009100
0,450333	0,5	0,006700
0,458667	0,5	0,001950
0,467000	0,5	0,023200
0,475333	0,5	-0,006750
0,483667	0,5	-0,015100
0,492000	0,5	-0,009650
0,500333	0,5	0,003500
0,508667	0,5	0,029050
0,517000	0,5	0,031850
0,525333	0,5	0,017000
0,533667	0,5	0,029800
0,542000	0,5	0,024900
0,550333	0,5	0,037350
0,558667	0,5	0,033550
0,567000	0,5	0,039750
0,575333	0,5	0,031850
0,583667	0,5	0,036950
0,592000	0,5	0,052050
0,600333	0,5	0,047950
0,608667	0,5	0,056000
0,617000	0,5	0,070250
0,625333	0,5	0,043500
0,633667	0,5	0,039700
0,642000	0,5	0,053800
0,650333	0,5	0,072000
0,658667	0,5	0,101300
0,667000	0,5	0,077750
0,675333	0,5	0,098250
0,683667	0,5	0,094150
0,692000	0,5	0,102500
0,700333	0,5	0,093350
0,708667	0,5	0,103600
0,717000	0,5	0,094450
0,725333	0,5	0,101700
0,733667	0,5	0,104450
0,742000	0,5	0,114800
0,750333	0,5	0,098900
0,758667	0,5	0,137100
0,767000	0,5	0,117850
0,775333	0,5	0,106850
0,783667	0,5	0,106650
0,792000	0,5	0,123000
0,800333	0,5	0,156550
0,808667	0,5	0,163350
0,817000	0,5	0,157050
0,825333	0,5	0,152750
0,833667	0,5	0,162850
0,842000	0,5	0,163500
0,850333	0,5	0,171250
0,858667	0,5	0,164250
0,867000	0,5	0,169700
0,875333	0,5	0,169000
0,883667	0,5	0,176500
0,892000	0,5	0,171400
0,900333	0,5	0,167300
0,908667	0,5	0,186950
0,917000	0,5	0,175050
0,925333	0,5	0,167850
0,933667	0,5	0,174450
0,942000	0,5	0,185200
0,950333	0,5	0,219100
0,958667	0,5	0,221850
0,967000	0,5	0,216400
0,975333	0,5	0,220750
0,983667	0,5	0,219050
0,992000	0,5	0,219200
1,000333	0,5	0,222700
1,008667	0,5	0,223500
1,017000	0,5	0,212850
1,025333	0,5	0,216700
1,033667	0,5	0,221300
1,042000	0,5	0,230700
1,050333	0,5	0,222050
1,058667	0,5	0,244700
1,067000	0,5	0,212000
1,075333	0,5	0,212900
1,083667	0,5	0,206200
1,092000	0,5	0,241300
1,100333	0,5	0,269800
1,108667	0,5	0,269500
1,117000	0,5	0,260800
1,125333	0,5	0,268400
1,133667	0,5	0,262100
1,142000	0,5	0,263750
1,150333	0,5	0,258400
1,158667	0,5	0,258950
1,167000	0,5	0,259450
1,175333	0,5	0,261600
1,183667	0,5	0,257050
1,192000	0,5	0,243800
1,200333	0,5	0,259900
1,208667	0,5	0,263700
1,217000	0,5	0,246800
1,225333	0,5	0,247050
1,233667	0,5	0,252100
1,242000	0,5	0,276250
1,250333	0,5	0,303700
1,258667	0,5	0,291900
1,267000	0,5	0,296950
1,275333	0,5	0,288650
1,283667	0,5	0,297350
1,292000	0,5	0,290250
1,300333	0,5	0,290350
1,308667	0,5	0,280050
1,317000	0,5	0,282250
1,325333	0,5	0,286600
1,333667	0,5	0,277400
1,342000	0,5	0,276950
1,350333	0,5	0,305400
1,358667	0,5	0,286550
1,367000	0,5	0,270000
1,375333	0,5	0,275850
1,383667	0,5	0,277950
1,392000	0,5	0,312900
1,400333	0,5	0,312050
1,408667	0,5	0,320500
1,417000	0,5	0,310200
1,425333	0,5	0,313950
1,433667	0,5	0,299250
1,442000	0,5	0,304750
1,450333	0,5	0,295000
1,458667	0,5	0,300050
1,467000	0,5	0,296650
1,475333	0,5	0,298650
1,483667	0,5	0,300000
1,492000	0,5	0,303100
1,500333	0,5	0,319800
1,508667	0,5	0,296050
1,517000	0,5	0,278600
1,525333	0,5	0,287300
1,533667	0,5	0,292450
1,542000	0,5	0,324000
1,550333	0,5	0,311900
1,558667	0,5	0,270500
1,567000	0,5	0,147150
1,575333	0,5	-0,237050
1,583667	0,5	-0,758350
1,592000	0,5	-0,913650
1,600333	0,5	0,057450
1,608667	0,5	3,009450
1,617000	0,5	8,992600
1,625333	0,5	17,418600
1,633667	0,5	24,804500
1,642000	0,5	27,497400
1,650333	0,5	25,189400
1,658667	0,5	20,394450
1,667000	0,5	15,723500
1,675333	0,5	12,252350
1,683667	0,5	10,011150
1,692000	0,5	8,660550
1,700333	0,5	7,883100
1,708667	0,5	7,600850
1,717000	0,5	7,568100
1,725333	0,5	7,447650
1,733667	0,5	7,027750
1,742000	0,5	6,437300
1,750333	0,5	5,852800
1,758667	0,5	5,392550
1,767000	0,5	5,036850
1,775333	0,5	4,856550
1,783667	0,5	4,931450
1,792000	0,5	5,448200
1,800333	0,5	6,301250
1,808667	0,5	7,263750
1,817000	0,5	8,013550
1,825333	0,5	8,370300
1,833667	0,5	8,293050
1,842000	0,5	7,834000
1,850333	0,5	7,190450
1,858667	0,5	6,566050
1,867000	0,5	6,038650
1,875333	0,5	5,638550
1,883667	0,5	5,358550
1,892000	0,5	5,149950
1,900333	0,5	4,957750
1,908667	0,5	4,728800
1,917000	0,5	4,507450
1,925333	0,5	4,293550
1,933667	0,5	4,112900
1,942000	0,5	3,973800
1,950333	0,5	3,813000
1,958667	0,5	3,691050
1,967000	0,5	3,642350
1,975333	0,5	3,666400
1,983667	0,5	3,761800
1,992000	0,5	3,803300
2,000333	0,5	3,764150
2,008667	0,5	3,646700
2,017000	0,5	3,529650
2,025333	0,5	3,440800
2,033667	0,5	3,448500
2,042000	0,5	3,576600
2,050333	0,5	3,921750
2,058667	0,5	4,705400
2,067000	0,5	6,208200
2,075333	0,5	8,416700
2,083667	0,5	10,532150
2,092000	0,5	11,404850
2,100333	0,5	10,638100
2,108667	0,5	9,076100
2,117000	0,5	7,641500
2,125333	0,5	6,739200
2,133667	0,5	6,288900
2,142000	0,5	6,179800
2,150333	0,5	6,350750
2,158667	0,5	6,675600
2,167000	0,5	6,831600
2,175333	0,5	6,682850
2,183667	0,5	6,311850
2,192000	0,5	5,946800
2,200333	0,5	5,704150
2,208667	0,5	5,650050
2,217000	0,5	5,795550
2,225333	0,5	6,146950
2,233667	0,5	6,625950
2,242000	0,5	7,001300
2,250333	0,5	7,091450
2,258667	0,5	6,950200
2,267000	0,5	6,698900
2,275333	0,5	6,462400
2,283667	0,5	6,269750
2,292000	0,5	6,101200
2,300333	0,5	6,000650
2,308667	0,5	5,935050
2,317000	0,5	5,918800
2,325333	0,5	5,914600
2,333667	0,5	5,948050
2,342000	0,5	6,003300
2,350333	0,5	6,119250
2,358667	0,5	6,253250
2,367000	0,5	6,369400
2,375333	0,5	6,449600
2,383667	0,5	6,540000
2,392000	0,5	6,585800
2,400333	0,5	6,648000
2,408667	0,5	6,720550
2,417000	0,5	6,771200
2,425333	0,5	6,813900
2,433667	0,5	6,801200
2,442000	0,5	6,773150
2,450333	0,5	6,727150
2,458667	0,5	6,685350
2,467000	0,5	6,636650
2,475333	0,5	6,610550
2,483667	0,5	6,592450
2,492000	0,5	6,591300
2,500333	0,5	6,585900
2,508667	0,5	6,589850
2,517000	0,5	6,574700
2,525333	0,5	6,575200
2,533667	0,5	6,593700
2,542000	0,5	6,568350
2,550333	0,5	6,550750
2,558667	0,5	6,549750
2,567000	0,5	6,555500
2,575333	0,5	6,602900
2,583667	0,5	6,631700
2,592000	0,5	6,682450
2,600333	0,5	6,726900
2,608667	0,5	6,738700
2,617000	0,5	6,695050
2,625333	0,5	6,609000
2,633667	0,5	6,497000
2,642000	0,5	6,363350
2,650333	0,5	6,256300
2,658667	0,5	6,163750
2,667000	0,5	6,088350
2,675333	0,5	6,020800
2,683667	0,5	5,970200
2,692000	0,5	5,884500
2,700333	0,5	5,823200
2,708667	0,5	5,771800
2,717000	0,5	5,730200
2,725333	0,5	5,694900
2,733667	0,5	5,629850
2,742000	0,5	5,572950
2,750333	0,5	5,525800
2,758667	0,5	5,471700
2,767000	0,5	5,420800
2,775333	0,5	5,382350
2,783667	0,5	5,352350
2,792000	0,5	5,353600
2,800333	0,5	5,384800
2,808667	0,5	5,506800
2,817000	0,5	5,706750
2,825333	0,5	6,148150
2,833667	0,5	6,833700
2,842000	0,5	7,769500
2,850333	0,5	8,802550
2,858667	0,5	9,676150
2,867000	0,5	10,173250
2,875333	0,5	10,257500
2,883667	0,5	10,042950
2,892000	0,5	9,799200
2,900333	0,5	9,672150
2,908667	0,5	9,868200
2,917000	0,5	10,571800
2,925333	0,5	12,190600
2,933667	0,5	15,336500
2,942000	0,5	20,769800
2,950333	0,5	28,875950
2,958667	0,5	38,947201
2,967000	0,5	48,857001
2,975333	0,5	55,806401
2,983667	0,5	57,685451
2,992000	0,5	54,531001
3,000333	0,5	48,156201
3,008667	0,5	40,904101
3,017000	0,5	34,397901
3,025333	0,5	29,084500
3,033667	0,5	24,793550
3,042000	0,5	21,180700
3,050333	0,5	18,113600
3,058667	0,5	15,537450
3,067000	0,5	13,462350
3,075333	0,5	11,777150
3,083667	0,5	10,398750
3,092000	0,5	9,241200
3,100333	0,5	8,277100
3,108667	0,5	7,537150
3,117000	0,5	7,026150
3,125333	0,5	6,751700
3,133667	0,5	6,608600
3,142000	0,5	6,529550
3,150333	0,5	6,373900
3,158667	0,5	6,101200
3,167000	0,5	5,697350
3,175333	0,5	5,212850
3,183667	0,5	4,709200
3,192000	0,5	4,272750
3,200333	0,5	3,894400
3,208667	0,5	3,597750
3,217000	0,5	3,350550
3,225333	0,5	3,162450
3,233667	0,5	3,004800
3,242000	0,5	2,879950
3,250333	0,5	2,770450
3,258667	0,5	2,675700
3,267000	0,5	2,595650
3,275333	0,5	2,513700
3,283667	0,5	2,419700
3,292000	0,5	2,350750
3,300333	0,5	2,286250
3,308667	0,5	2,254750
3,317000	0,5	2,229300
3,325333	0,5	2,199650
3,333667	0,5	2,211900
3,342000	0,5	2,236800
3,350333	0,5	2,291250
3,358667	0,5	2,322400
3,367000	0,5	2,349050
3,375333	0,5	2,318400
3,383667	0,5	2,259650
3,392000	0,5	2,156600
3,400333	0,5	2,039000
3,408667	0,5	1,910250
3,417000	0,5	1,838250
3,425333	0,5	1,731950
3,433667	0,5	1,656800
3,442000	0,5	1,611350
3,450333	0,5	1,592650
3,458667	0,5	1,599800
3,467000	0,5	1,595100
3,475333	0,5	1,590600
3,483667	0,5	1,586150
3,492000	0,5	1,576800
3,500333	0,5	1,558050
3,508667	0,5	1,535900
3,517000	0,5	1,517400
3,525333	0,5	1,513600
3,533667	0,5	1,530800
3,542000	0,5	1,587850
3,550333	0,5	1,657100
3,558667	0,5	1,772150
3,567000	0,5	1,906250
3,575333	0,5	1,979300
3,583667	0,5	2,008750
3,592000	0,5	1,995150
3,600333	0,5	1,920100
3,608667	0,5	1,823150
3,617000	0,5	1,670450
3,625333	0,5	1,539100
3,633667	0,5	1,421450
3,642000	0,5	1,337150
3,650333	0,5	1,266950
3,658667	0,5	1,222700
3,667000	0,5	1,181200
3,675333	0,5	1,146800
3,683667	0,5	1,123950
3,692000	0,5	1,099250
3,700333	0,5	1,074700
3,708667	0,5	1,051100
3,717000	0,5	1,046400
3,725333	0,5	1,004350
3,733667	0,5	0,992850
3,742000	0,5	0,984100
3,750333	0,5	0,987350
3,758667	0,5	0,989400
3,767000	0,5	0,969700
3,775333	0,5	0,960450
3,783667	0,5	0,967150
3,792000	0,5	0,956100
3,800333	0,5	0,955650
3,808667	0,5	0,943100
3,817000	0,5	0,944900
3,825333	0,5	0,943850
3,833667	0,5	0,940950
3,842000	0,5	0,944200
3,850333	0,5	0,920800
3,858667	0,5	0,927350
3,867000	0,5	0,919500
3,875333	0,5	0,898700
3,883667	0,5	0,893450
3,892000	0,5	0,899900
3,900333	0,5	0,917450
3,908667	0,5	0,929700
3,917000	0,5	0,907650
3,925333	0,5	0,909700
3,933667	0,5	0,895450
3,942000	0,5	0,899150
3,950333	0,5	0,887150
3,958667	0,5	0,883300
3,967000	0,5	0,872400
3,975333	0,5	0,869600
3,983667	0,5	0,866500
3,992000	0,5	0,846450
4,000333	0,5	0,828400
4,008667	0,5	0,836650
4,017000	0,5	0,810950
4,025333	0,5	0,795300
4,033667	0,5	0,786450
4,042000	0,5	0,785150
4,050333	0,5	0,797500
4,058667	0,5	0,789850
4,067000	0,5	0,783900
4,075333	0,5	0,770400
4,083667	0,5	0,771400
4,092000	0,5	0,754250
4,100333	0,5	0,758700
4,108667	0,5	0,745950
4,117000	0,5	0,744850
4,125333	0,5	0,737950
4,133667	0,5	0,736300
4,142000	0,5	0,733050
4,150333	0,5	0,740550
4,158667	0,5	0,745950
4,167000	0,5	0,736350
4,175333	0,5	0,738000
4,183667	0,5	0,751250
4,192000	0,5	0,779900
4,200333	0,5	0,819350
4,208667	0,5	0,846100
4,217000	0,5	0,874400
4,225333	0,5	0,922800
4,233667	0,5	0,973850
4,242000	0,5	1,038750
4,250333	0,5	1,105350
4,258667	0,5	1,182200
4,267000	0,5	1,244050
4,275333	0,5	1,299300
4,283667	0,5	1,312450
4,292000	0,5	1,305400
4,300333	0,5	1,268800
4,308667	0,5	1,209850
4,317000	0,5	1,114650
4,325333	0,5	1,039150
4,333667	0,5	0,963500
4,342000	0,5	0,926650
4,350333	0,5	0,883450
4,358667	0,5	0,836200
4,367000	0,5	0,800350
4,375333	0,5	0,777000
4,383667	0,5	0,762000
4,392000	0,5	0,746850
4,400333	0,5	0,738250
4,408667	0,5	0,721200
4,417000	0,5	0,715600
4,425333	0,5	0,706450
4,433667	0,5	0,697050
4,442000	0,5	0,684850
4,450333	0,5	0,711500
4,458667	0,5	0,686850
4,467000	0,5	0,674800
4,475333	0,5	0,669900
4,483667	0,5	0,671950
4,492000	0,5	0,692000
4,500333	0,5	0,692250
4,508667	0,5	0,686750
4,517000	0,5	0,690050
4,525333	0,5	0,690200
4,533667	0,5	0,688000
4,542000	0,5	0,684700
4,550333	0,5	0,685300
4,558667	0,5	0,685500
4,567000	0,5	0,686400
4,575333	0,5	0,693400
4,583667	0,5	0,686250
4,592000	0,5	0,690750
4,600333	0,5	0,724150
4,608667	0,5	0,712300
4,617000	0,5	0,716200
4,625333	0,5	0,730800
4,633667	0,5	0,746550
4,642000	0,5	0,787200
4,650333	0,5	0,773950
4,658667	0,5	0,779600
4,667000	0,5	0,773150
4,675333	0,5	0,772800
4,683667	0,5	0,761850
4,692000	0,5	0,757150
4,700333	0,5	0,742650
4,708667	0,5	0,733700
4,717000	0,5	0,728050
4,725333	0,5	0,722350
4,733667	0,5	0,711400
4,742000	0,5	0,709250
4,750333	0,5	0,726400
4,758667	0,5	0,713200
4,767000	0,5	0,723650
4,775333	0,5	0,740750
4,783667	0,5	0,773500
4,792000	0,5	0,815150
4,800333	0,5	0,836900
4,808667	0,5	0,862400
4,817000	0,5	0,912400
4,825333	0,5	0,954150
4,833667	0,5	1,020100
4,842000	0,5	1,078250
4,850333	0,5	1,156950
4,858667	0,5	1,248550
4,867000	0,5	1,364250
4,875333	0,5	1,514350
4,883667	0,5	1,676350
4,892000	0,5	1,884500
4,900333	0,5	2,129250
4,908667	0,5	2,402700
4,917000	0,5	2,737300
4,925333	0,5	3,121200
4,933667	0,5	3,550350
4,942000	0,5	3,982700
4,950333	0,5	4,376450
4,958667	0,5	4,750000
4,967000	0,5	5,046900
4,975333	0,5	5,253200
4,983667	0,5	5,329350
4,992000	0,5	5,300650
5,000333	0,5	5,133850
5,008667	0,5	4,872700
5,017000	0,5	4,517850
5,025333	0,5	4,112800
5,033667	0,5	3,665550
5,042000	0,5	3,251400
5,050333	0,5	2,830150
5,058667	0,5	2,458000
5,067000	0,5	2,141200
5,075333	0,5	1,891650
5,083667	0,5	1,695150
5,092000	0,5	1,527000
5,100333	0,5	1,392750
5,108667	0,5	1,293000
5,117000	0,5	1,223350
5,125333	0,5	1,163150
5,133667	0,5	1,124350
5,142000	0,5	1,086050
5,150333	0,5	1,063850
5,158667	0,5	1,045100
5,167000	0,5	1,038950
5,175333	0,5	1,019400
5,183667	0,5	1,026500
5,192000	0,5	1,040100
5,200333	0,5	1,040100
5,208667	0,5	1,048750
5,217000	0,5	1,072450
5,225333	0,5	1,114150
5,233667	0,5	1,169000
5,242000	0,5	1,209850
5,250333	0,5	1,256850
5,258667	0,5	1,306500
5,267000	0,5	1,369400
5,275333	0,5	1,427550
5,283667	0,5	1,489300
5,292000	0,5	1,551700
5,300333	0,5	1,603250
5,308667	0,5	1,656900
5,317000	0,5	1,679200
5,325333	0,5	1,685850
5,333667	0,5	1,685900
5,342000	0,5	1,659350
5,350333	0,5	1,594300
5,358667	0,5	1,536900
5,367000	0,5	1,468950
5,375333	0,5	1,416300
5,383667	0,5	1,349950
5,392000	0,5	1,281250
5,400333	0,5	1,209250
5,408667	0,5	1,161150
5,417000	0,5	1,105500
5,425333	0,5	1,074700
5,433667	0,5	1,044650
5,442000	0,5	1,017850
5,450333	0,5	1,001850
5,458667	0,5	0,985000
5,467000	0,5	0,979900
5,475333	0,5	0,966900
5,483667	0,5	0,983900
5,492000	0,5	0,964500
5,500333	0,5	0,953850
5,508667	0,5	0,950350
5,517000	0,5	0,958100
5,525333	0,5	0,977450
5,533667	0,5	0,978000
5,542000	0,5	0,968850
5,550333	0,5	0,979950
5,558667	0,5	0,976400
5,567000	0,5	0,979750
5,575333	0,5	0,972650
5,583667	0,5	0,971250
5,592000	0,5	0,964750
5,600333	0,5	0,967300
5,608667	0,5	0,971550
5,617000	0,5	0,969250
5,625333	0,5	0,966750
5,633667	0,5	0,995350
5,642000	0,5	0,981400
5,650333	0,5	0,982600
5,658667	0,5	0,995850
5,667000	0,5	1,012150
5,675333	0,5	1,052300
5,683667	0,5	1,051400
5,692000	0,5	1,070550
5,700333	0,5	1,080400
5,708667	0,5	1,103500
5,717000	0,5	1,120850
5,725333	0,5	1,148800
5,733667	0,5	1,169000
5,742000	0,5	1,202650
5,750333	0,5	1,240200
5,758667	0,5	1,289050
5,767000	0,5	1,339900
5,775333	0,5	1,422600
5,783667	0,5	1,538000
5,792000	0,5	1,662250
5,800333	0,5	1,832450
5,808667	0,5	2,050750
5,817000	0,5	2,316800
5,825333	0,5	2,614800
5,833667	0,5	2,907850
5,842000	0,5	3,204150
5,850333	0,5	3,485050
5,858667	0,5	3,705300
5,867000	0,5	3,864350
5,875333	0,5	3,925650
5,883667	0,5	3,908950
5,892000	0,5	3,791700
5,900333	0,5	3,618850
5,908667	0,5	3,390800
5,917000	0,5	3,127550
5,925333	0,5	2,864600
5,933667	0,5	2,609000
5,942000	0,5	2,349600
5,950333	0,5	2,138750
5,958667	0,5	1,964350
5,967000	0,5	1,833500
5,975333	0,5	1,724150
5,983667	0,5	1,618400
5,992000	0,5	1,545700
6,000333	0,5	1,491350
6,008667	0,5	1,446700
6,017000	0,5	1,412850
6,025333	0,5	1,387700
6,033667	0,5	1,368050
6,042000	0,5	1,362900
6,050333	0,5	1,347050
6,058667	0,5	1,340850
6,067000	0,5	1,325850
6,075333	0,5	1,337750
6,083667	0,5	1,329250
6,092000	0,5	1,327500
6,100333	0,5	1,331550
6,108667	0,5	1,348050
6,117000	0,5	1,366450
6,125333	0,5	1,380300
6,133667	0,5	1,382000
6,142000	0,5	1,386250
6,150333	0,5	1,381500
6,158667	0,5	1,382800
6,167000	0,5	1,371250
6,175333	0,5	1,361600
6,183667	0,5	1,351600
6,192000	0,5	1,333150
6,200333	0,5	1,321400
6,208667	0,5	1,293250
6,217000	0,5	1,286950
6,225333	0,5	1,283150
6,233667	0,5	1,267050
6,242000	0,5	1,253600
6,250333	0,5	1,253950
6,258667	0,5	1,262350
6,267000	0,5	1,278450
6,275333	0,5	1,276600
6,283667	0,5	1,283250
6,292000	0,5	1,284100
6,300333	0,5	1,293750
6,308667	0,5	1,294650
6,317000	0,5	1,302400
6,325333	0,5	1,307000
6,333667	0,5	1,315300
6,342000	0,5	1,326550
6,350333	0,5	1,324000
6,358667	0,5	1,322150
6,367000	0,5	1,337950
6,375333	0,5	1,337000
6,383667	0,5	1,327400
6,392000	0,5	1,326150
6,400333	0,5	1,328200
6,408667	0,5	1,350900
6,417000	0,5	1,361200
6,425333	0,5	1,364700
6,433667	0,5	1,361250
6,442000	0,5	1,367500
6,450333	0,5	1,364400
6,458667	0,5	1,370600
6,467000	0,5	1,364400
6,475333	0,5	1,362750
6,483667	0,5	1,357300
6,492000	0,5	1,354900
6,500333	0,5	1,348250
6,508667	0,5	1,339150
6,517000	0,5	1,352850
6,525333	0,5	1,344900
6,533667	0,5	1,336950
6,542000	0,5	1,336050
6,550333	0,5	1,342250
6,558667	0,5	1,359500
6,567000	0,5	1,363600
6,575333	0,5	1,359750
6,583667	0,5	1,369450
6,592000	0,5	1,369050
6,600333	0,5	1,379650
6,608667	0,5	1,376900
6,617000	0,5	1,386550
6,625333	0,5	1,387400
6,633667	0,5	1,395700
6,642000	0,5	1,403300
6,650333	0,5	1,401250
6,658667	0,5	1,399400
6,667000	0,5	1,421850
6,675333	0,5	1,409150
6,683667	0,5	1,409300
6,692000	0,5	1,410300
6,700333	0,5	1,416200
6,708667	0,5	1,441350
6,717000	0,5	1,433000
6,725333	0,5	1,438750
6,733667	0,5	1,443300
6,742000	0,5	1,456850
6,750333	0,5	1,468000
6,758667	0,5	1,491150
6,767000	0,5	1,512100
6,775333	0,5	1,535750
6,783667	0,5	1,556550
6,792000	0,5	1,563850
6,800333	0,5	1,554750
6,808667	0,5	1,545250
6,817000	0,5	1,542200
6,825333	0,5	1,520050
6,833667	0,5	1,504600
6,842000	0,5	1,496450
6,850333	0,5	1,503400
6,858667	0,5	1,521000
6,867000	0,5	1,520900
6,875333	0,5	1,529400
6,883667	0,5	1,539700
6,892000	0,5	1,553700
6,900333	0,5	1,561950
6,908667	0,5	1,565450
6,917000	0,5	1,562150
6,925333	0,5	1,548600
6,933667	0,5	1,538300
6,942000	0,5	1,509700
6,950333	0,5	1,485300
6,958667	0,5	1,465200
6,967000	0,5	1,449650
6,975333	0,5	1,420850
6,983667	0,5	1,409950
6,992000	0,5	1,402450
7,000333	0,5	1,406850
7,008667	0,5	1,414600
7,017000	0,5	1,406400
7,025333	0,5	1,402400
7,033667	0,5	1,401200
7,042000	0,5	1,393400
7,050333	0,5	1,390650
7,058667	0,5	1,380450
7,067000	0,5	1,372000
7,075333	0,5	1,364950
7,083667	0,5	1,358000
7,092000	0,5	1,348800
7,100333	0,5	1,339300
7,108667	0,5	1,338850
7,117000	0,5	1,330200
7,125333	0,5	1,316200
7,133667	0,5	1,311200
7,142000	0,5	1,313150
7,150333	0,5	1,318700
7,158667	0,5	1,325800
7,167000	0,5	1,322600
7,175333	0,5	1,331850
7,183667	0,5	1,333050
7,192000	0,5	1,347800
7,200333	0,5	1,355100
7,208667	0,5	1,359900
7,217000	0,5	1,355900
7,225333	0,5	1,352950
7,233667	0,5	1,346000
7,242000	0,5	1,331950
7,250333	0,5	1,326200
7,258667	0,5	1,326150
7,267000	0,5	1,310050
7,275333	0,5	1,295250
7,283667	0,5	1,280300
7,292000	0,5	1,270900
7,300333	0,5	1,271550
7,308667	0,5	1,266250
7,317000	0,5	1,263250
7,325333	0,5	1,252950
7,333667	0,5	1,251950
7,342000	0,5	1,245650
7,350333	0,5	1,243250
7,358667	0,5	1,239500
7,367000	0,5	1,241950
7,375333	0,5	1,247000
7,383667	0,5	1,254650
7,392000	0,5	1,243750
7,400333	0,5	1,246450
7,408667	0,5	1,240600
7,417000	0,5	1,228050
7,425333	0,5	1,213800
7,433667	0,5	1,208950
7,442000	0,5	1,216400
7,450333	0,5	1,226050
7,458667	0,5	1,243250
7,467000	0,5	1,278050
7,475333	0,5	1,344050
7,483667	0,5	1,441300
7,492000	0,5	1,576400
7,500333	0,5	1,743800
7,508667	0,5	1,924450
7,517000	0,5	2,077550
7,525333	0,5	2,152950
7,533667	0,5	2,116200
7,542000	0,5	1,979250
7,550333	0,5	1,795450
7,558667	0,5	1,598400
7,567000	0,5	1,433650
7,575333	0,5	1,315250
7,583667	0,5	1,244300
7,592000	0,5	1,216500
7,600333	0,5	1,201850
7,608667	0,5	1,197150
7,617000	0,5	1,211100
7,625333	0,5	1,225050
7,633667	0,5	1,240200
7,642000	0,5	1,239950
7,650333	0,5	1,232200
7,658667	0,5	1,216450
7,667000	0,5	1,201500
7,675333	0,5	1,192400
7,683667	0,5	1,185350
7,692000	0,5	1,178000
7,700333	0,5	1,183350
7,708667	0,5	1,173300
7,717000	0,5	1,165250
7,725333	0,5	1,158100
7,733667	0,5	1,165600
7,742000	0,5	1,189650
7,750333	0,5	1,211850
7,758667	0,5	1,250300
7,767000	0,5	1,292450
7,775333	0,5	1,330400
7,783667	0,5	1,340350
7,792000	0,5	1,317400
7,800333	0,5	1,266750
7,808667	0,5	1,209900
7,817000	0,5	1,164000
7,825333	0,5	1,143950
7,833667	0,5	1,145600
7,842000	0,5	1,186000
7,850333	0,5	1,261100
7,858667	0,5	1,353700
7,867000	0,5	1,455600
7,875333	0,5	1,561750
7,883667	0,5	1,682800
7,892000	0,5	1,838000
7,900333	0,5	2,022750
7,908667	0,5	2,255000
7,917000	0,5	2,537450
7,925333	0,5	2,894650
7,933667	0,5	3,387650
7,942000	0,5	4,181100
7,950333	0,5	5,574450
7,958667	0,5	8,044500
7,967000	0,5	12,000250
7,975333	0,5	17,345050
7,983667	0,5	23,059150
7,992000	0,5	27,418800
8,000333	0,5	28,870950
8,008667	0,5	26,927500
8,017000	0,5	22,464200
8,025333	0,5	17,024650
8,033667	0,5	12,004950
8,042000	0,5	8,140750
8,050333	0,5	5,532500
8,058667	0,5	3,928350
8,067000	0,5	3,006050
8,075333	0,5	2,480350
8,083667	0,5	2,177800
8,092000	0,5	1,988200
8,100333	0,5	1,852500
8,108667	0,5	1,747250
8,117000	0,5	1,662050
8,125333	0,5	1,579850
8,133667	0,5	1,507050
8,142000	0,5	1,457350
8,150333	0,5	1,420650
8,158667	0,5	1,389550
8,167000	0,5	1,359250
8,175333	0,5	1,324550
8,183667	0,5	1,291900
8,192000	0,5	1,258200
8,200333	0,5	1,231300
8,208667	0,5	1,214500
8,217000	0,5	1,202550
8,225333	0,5	1,192650
8,233667	0,5	1,170250
8,242000	0,5	1,151400
8,250333	0,5	1,122900
8,258667	0,5	1,094050
8,267000	0,5	1,066500
8,275333	0,5	1,045800
8,283667	0,5	1,031200
8,292000	0,5	1,028500
8,300333	0,5	1,018250
8,308667	0,5	1,011350
8,317000	0,5	1,005800
8,325333	0,5	1,008100
8,333667	0,5	1,016750
8,342000	0,5	1,025050
8,350333	0,5	1,033050
8,358667	0,5	1,037400
8,367000	0,5	1,041000
8,375333	0,5	1,047450
8,383667	0,5	1,054850
8,392000	0,5	1,064000
8,400333	0,5	1,077050
8,408667	0,5	1,082500
8,417000	0,5	1,085250
8,425333	0,5	1,072300
8,433667	0,5	1,062950
8,442000	0,5	1,061850
8,450333	0,5	1,063650
8,458667	0,5	1,073650
8,467000	0,5	1,090900
8,475333	0,5	1,111500
8,483667	0,5	1,130400
8,492000	0,5	1,135850
8,500333	0,5	1,131450
8,508667	0,5	1,114550
8,517000	0,5	1,086350
8,525333	0,5	1,049300
8,533667	0,5	1,023850
8,542000	0,5	1,010100
8,550333	0,5	1,022650
8,558667	0,5	1,054350
8,567000	0,5	1,097100
8,575333	0,5	1,147700
8,583667	0,5	1,201350
8,592000	0,5	1,261800
8,600333	0,5	1,305450
8,608667	0,5	1,332500
8,617000	0,5	1,336250
8,625333	0,5	1,325100
8,633667	0,5	1,292400
8,642000	0,5	1,250300
8,650333	0,5	1,204100
8,658667	0,5	1,171150
8,667000	0,5	1,147450
8,675333	0,5	1,135300
8,683667	0,5	1,141350
8,692000	0,5	1,178450
8,700333	0,5	1,263500
8,708667	0,5	1,404150
8,717000	0,5	1,601850
8,725333	0,5	1,823950
8,733667	0,5	2,071650
8,742000	0,5	2,322650
8,750333	0,5	2,625350
8,758667	0,5	3,058450
8,767000	0,5	3,825450
8,775333	0,5	5,320700
8,783667	0,5	8,111550
8,792000	0,5	12,647100
8,800333	0,5	18,577000
8,808667	0,5	24,319500
8,817000	0,5	27,725750
8,825333	0,5	27,424250
8,833667	0,5	23,722050
8,842000	0,5	18,236800
8,850333	0,5	12,768000
8,858667	0,5	8,445000
8,867000	0,5	5,517800
8,875333	0,5	3,743950
8,883667	0,5	2,737450
8,892000	0,5	2,174550
8,900333	0,5	1,853100
8,908667	0,5	1,663550
8,917000	0,5	1,546600
8,925333	0,5	1,470850
8,933667	0,5	1,413450
8,942000	0,5	1,367400
8,950333	0,5	1,331050
8,958667	0,5	1,303450
8,967000	0,5	1,285000
8,975333	0,5	1,273950
8,983667	0,5	1,268550
8,992000	0,5	1,272000
9,000333	0,5	1,275900
9,008667	0,5	1,278400
9,017000	0,5	1,280400
9,025333	0,5	1,280950
9,033667	0,5	1,280300
9,042000	0,5	1,274550
9,050333	0,5	1,276100
9,058667	0,5	1,289700
9,067000	0,5	1,317500
9,075333	0,5	1,349400
9,083667	0,5	1,385100
9,092000	0,5	1,406300
9,100333	0,5	1,410000
9,108667	0,5	1,397100
9,117000	0,5	1,382850
9,125333	0,5	1,367750
9,133667	0,5	1,342750
9,142000	0,5	1,311850
9,150333	0,5	1,270400
9,158667	0,5	1,224400
9,167000	0,5	1,182700
9,175333	0,5	1,154850
9,183667	0,5	1,136650
9,192000	0,5	1,123100
9,200333	0,5	1,109350
9,208667	0,5	1,101700
9,217000	0,5	1,089800
9,225333	0,5	1,080750
9,233667	0,5	1,069650
9,242000	0,5	1,059250
9,250333	0,5	1,053650
9,258667	0,5	1,050550
9,267000	0,5	1,052150
9,275333	0,5	1,058300
9,283667	0,5	1,069200
9,292000	0,5	1,081200
9,300333	0,5	1,099750
9,308667	0,5	1,115500
9,317000	0,5	1,133800
9,325333	0,5	1,148050
9,333667	0,5	1,156150
9,342000	0,5	1,153450
9,350333	0,5	1,151300
9,358667	0,5	1,151250
9,367000	0,5	1,153550
9,375333	0,5	1,157650
9,383667	0,5	1,160050
9,392000	0,5	1,161850
9,400333	0,5	1,160450
9,408667	0,5	1,160450
9,417000	0,5	1,158150
9,425333	0,5	1,160400
9,433667	0,5	1,169050
9,442000	0,5	1,184000
9,450333	0,5	1,204800
9,458667	0,5	1,234250
9,467000	0,5	1,275100
9,475333	0,5	1,328000
9,483667	0,5	1,383300
9,492000	0,5	1,438250
9,500333	0,5	1,480750
9,508667	0,5	1,513000
9,517000	0,5	1,531200
9,525333	0,5	1,539400
9,533667	0,5	1,533000
9,542000	0,5	1,522250
9,550333	0,5	1,503350
9,558667	0,5	1,480200
9,567000	0,5	1,461400
9,575333	0,5	1,441300
9,583667	0,5	1,427000
9,592000	0,5	1,415900
9,600333	0,5	1,414200
9,608667	0,5	1,414900
9,617000	0,5	1,420750
9,625333	0,5	1,434350
9,633667	0,5	1,451300
9,642000	0,5	1,463650
9,650333	0,5	1,479250
9,658667	0,5	1,486200
9,667000	0,5	1,492950
9,675333	0,5	1,492150
9,683667	0,5	1,488000
9,692000	0,5	1,495450
9,700333	0,5	1,499500
9,708667	0,5	1,507200
9,717000	0,5	1,519350
9,725333	0,5	1,524650
9,733667	0,5	1,531600
9,742000	0,5	1,533750
9,750333	0,5	1,537150
9,758667	0,5	1,536400
9,767000	0,5	1,541750
9,775333	0,5	1,545050
9,783667	0,5	1,554550
9,792000	0,5	1,563950
9,800333	0,5	1,581350
9,808667	0,5	1,604350
9,817000	0,5	1,625050
9,825333	0,5	1,643800
9,833667	0,5	1,656600
9,842000	0,5	1,665650
9,850333	0,5	1,673800
9,858667	0,5	1,674250
9,867000	0,5	1,676100
9,875333	0,5	1,676700
9,883667	0,5	1,686000
9,892000	0,5	1,697600
9,900333	0,5	1,710600
9,908667	0,5	1,722650
9,917000	0,5	1,746100
9,925333	0,5	1,782250
9,933667	0,5	1,828050
9,942000	0,5	1,887000
9,950333	0,5	1,968750
9,958667	0,5	2,069300
9,967000	0,5	2,185300
9,975333	0,5	2,313250
9,983667	0,5	2,445650
9,992000	0,5	2,578950
10,000333	0,5	2,702650
10,008667	0,5	2,811250
10,017000	0,5	2,889550
10,025333	0,5	2,928600
10,033667	0,5	2,924250
10,042000	0,5	2,867800
10,050333	0,5	2,769550
10,058667	0,5	2,635950
10,067000	0,5	2,486250
10,075333	0,5	2,339300
10,083667	0,5	2,196450
10,092000	0,5	2,081650
10,100333	0,5	1,992950
10,108667	0,5	1,929350
10,117000	0,5	1,888050
10,125333	0,5	1,869350
10,133667	0,5	1,855250
10,142000	0,5	1,848400
10,150333	0,5	1,850300
10,158667	0,5	1,842450
10,167000	0,5	1,831350
10,175333	0,5	1,818700
10,183667	0,5	1,805900
10,192000	0,5	1,796750
10,200333	0,5	1,785250
10,208667	0,5	1,775850
10,217000	0,5	1,770500
10,225333	0,5	1,767200
10,233667	0,5	1,766600
10,242000	0,5	1,764450
10,250333	0,5	1,764900
10,258667	0,5	1,771800
10,267000	0,5	1,786600
10,275333	0,5	1,800700
10,283667	0,5	1,814500
10,292000	0,5	1,827850
10,300333	0,5	1,835550
10,308667	0,5	1,836000
10,317000	0,5	1,831800
10,325333	0,5	1,823500
10,333667	0,5	1,811950
10,342000	0,5	1,807150
10,350333	0,5	1,801000
10,358667	0,5	1,801150
10,367000	0,5	1,802800
10,375333	0,5	1,805450
10,383667	0,5	1,807650
10,392000	0,5	1,816500
10,400333	0,5	1,828150
10,408667	0,5	1,837950
10,417000	0,5	1,848050
10,425333	0,5	1,854150
10,433667	0,5	1,857650
10,442000	0,5	1,856200
10,450333	0,5	1,849650
10,458667	0,5	1,842900
10,467000	0,5	1,831700
10,475333	0,5	1,828300
10,483667	0,5	1,825700
10,492000	0,5	1,822750
10,500333	0,5	1,815850
10,508667	0,5	1,815500
10,517000	0,5	1,814150
10,525333	0,5	1,811500
10,533667	0,5	1,808650
10,542000	0,5	1,805200
10,550333	0,5	1,803250
10,558667	0,5	1,799700
10,567000	0,5	1,793850
10,575333	0,5	1,782650
10,583667	0,5	1,775550
10,592000	0,5	1,768650
10,600333	0,5	1,764400
10,608667	0,5	1,759350
10,617000	0,5	1,763200
10,625333	0,5	1,770550
10,633667	0,5	1,778500
10,642000	0,5	1,778850
10,650333	0,5	1,776200
10,658667	0,5	1,772400
10,667000	0,5	1,760400
10,675333	0,5	1,741850
10,683667	0,5	1,719600
10,692000	0,5	1,698200
10,700333	0,5	1,683450
10,708667	0,5	1,669300
10,717000	0,5	1,651750
10,725333	0,5	1,636800
10,733667	0,5	1,628800
10,742000	0,5	1,617850
10,750333	0,5	1,609950
10,758667	0,5	1,607050
10,767000	0,5	1,606750
10,775333	0,5	1,605350
10,783667	0,5	1,605400
10,792000	0,5	1,608150
10,800333	0,5	1,603400
10,808667	0,5	1,606600
10,817000	0,5	1,611300
10,825333	0,5	1,617800
10,833667	0,5	1,630250
10,842000	0,5	1,642300
10,850333	0,5	1,655550
10,858667	0,5	1,665150
10,867000	0,5	1,658000
10,875333	0,5	1,647250
10,883667	0,5	1,625800
10,892000	0,5	1,603000
10,900333	0,5	1,581200
10,908667	0,5	1,558050
10,917000	0,5	1,533950
10,925333	0,5	1,515550
10,933667	0,5	1,502350
10,942000	0,5	1,494300
10,950333	0,5	1,481100
10,958667	0,5	1,480550
10,967000	0,5	1,475400
10,975333	0,5	1,470150
10,983667	0,5	1,466800
10,992000	0,5	1,463200
11,000333	0,5	1,470300
11,008667	0,5	1,476250
11,017000	0,5	1,488000
11,025333	0,5	1,495100
11,033667	0,5	1,510400
11,042000	0,5	1,507050
11,050333	0,5	1,505500
11,058667	0,5	1,499250
11,067000	0,5	1,485750
11,075333	0,5	1,472700
11,083667	0,5	1,458200
11,092000	0,5	1,446100
11,100333	0,5	1,436950
11,108667	0,5	1,434800
11,117000	0,5	1,425250
11,125333	0,5	1,420250
11,133667	0,5	1,417650
11,142000	0,5	1,420700
11,150333	0,5	1,423050
11,158667	0,5	1,431750
11,167000	0,5	1,440050
11,175333	0,5	1,453300
11,183667	0,5	1,469750
11,192000	0,5	1,496400
11,200333	0,5	1,524650
11,208667	0,5	1,560500
11,217000	0,5	1,593600
11,225333	0,5	1,624900
11,233667	0,5	1,644900
11,242000	0,5	1,651950
11,250333	0,5	1,646900
11,258667	0,5	1,622850
11,267000	0,5	1,577650
11,275333	0,5	1,530950
11,283667	0,5	1,474650
11,292000	0,5	1,428600
11,300333	0,5	1,393200
11,308667	0,5	1,369950
11,317000	0,5	1,362200
11,325333	0,5	1,364050
11,333667	0,5	1,378600
11,342000	0,5	1,391950
11,350333	0,5	1,412350
11,358667	0,5	1,418400
11,367000	0,5	1,425650
11,375333	0,5	1,425450
11,383667	0,5	1,415250
11,392000	0,5	1,408000
11,400333	0,5	1,401950
11,408667	0,5	1,388500
11,417000	0,5	1,378600
11,425333	0,5	1,363800
11,433667	0,5	1,358150
11,442000	0,5	1,351100
11,450333	0,5	1,347800
11,458667	0,5	1,344050
11,467000	0,5	1,335500
11,475333	0,5	1,335550
11,483667	0,5	1,333000
11,492000	0,5	1,332100
11,500333	0,5	1,330600
11,508667	0,5	1,326400
11,517000	0,5	1,324050
11,525333	0,5	1,323850
11,533667	0,5	1,313100
11,542000	0,5	1,308750
11,550333	0,5	1,306150
11,558667	0,5	1,304450
11,567000	0,5	1,296150
11,575333	0,5	1,287600
11,583667	0,5	1,288900
11,592000	0,5	1,289000
11,600333	0,5	1,290550
11,608667	0,5	1,295000
11,617000	0,5	1,294300
11,625333	0,5	1,301750
11,633667	0,5	1,303550
11,642000	0,5	1,309050
11,650333	0,5	1,313450
11,658667	0,5	1,320550
11,667000	0,5	1,335800
11,675333	0,5	1,343650
11,683667	0,5	1,355850
11,692000	0,5	1,373000
11,700333	0,5	1,392350
11,708667	0,5	1,409650
11,717000	0,5	1,426700
11,725333	0,5	1,435400
11,733667	0,5	1,449200
11,742000	0,5	1,457650
11,750333	0,5	1,460700
11,758667	0,5	1,452350
11,767000	0,5	1,449550
11,775333	0,5	1,440100
11,783667	0,5	1,437050
11,792000	0,5	1,433100
11,800333	0,5	1,429650
11,808667	0,5	1,432150
11,817000	0,5	1,436300
11,825333	0,5	1,443000
11,833667	0,5	1,449100
11,842000	0,5	1,466500
11,850333	0,5	1,478300
11,858667	0,5	1,495500
11,867000	0,5	1,511200
11,875333	0,5	1,531900
11,883667	0,5	1,565100
11,892000	0,5	1,602100
11,900333	0,5	1,644050
11,908667	0,5	1,689800
11,917000	0,5	1,737100
11,925333	0,5	1,785150
11,933667	0,5	1,821250
11,942000	0,5	1,851200
11,950333	0,5	1,861550
11,958667	0,5	1,861050
11,967000	0,5	1,851400
11,975333	0,5	1,838850
11,983667	0,5	1,830900
11,992000	0,5	1,831750
12,000333	0,5	1,834200
12,008667	0,5	1,835550
12,017000	0,5	1,831650
12,025333	0,5	1,820650
12,033667	0,5	1,807200
12,042000	0,5	1,777550
12,050333	0,5	1,747650
12,058667	0,5	1,714650
12,067000	0,5	1,684900
12,075333	0,5	1,656950
12,083667	0,5	1,643500
12,092000	0,5	1,625150
12,100333	0,5	1,614300
12,108667	0,5	1,609100
12,117000	0,5	1,602750
12,125333	0,5	1,589700
12,133667	0,5	1,587900
12,142000	0,5	1,580800
12,150333	0,5	1,573250
12,158667	0,5	1,564300
12,167000	0,5	1,556600
12,175333	0,5	1,553700
12,183667	0,5	1,554950
12,192000	0,5	1,556100
12,200333	0,5	1,553250
12,208667	0,5	1,555750
12,217000	0,5	1,557800
12,225333	0,5	1,566350
12,233667	0,5	1,575300
12,242000	0,5	1,587350
12,250333	0,5	1,596400
12,258667	0,5	1,615600
12,267000	0,5	1,615300
12,275333	0,5	1,620550
12,283667	0,5	1,623150
12,292000	0,5	1,615700
12,300333	0,5	1,600200
12,308667	0,5	1,580000
12,317000	0,5	1,564150
12,325333	0,5	1,564100
12,333667	0,5	1,542200
12,342000	0,5	1,534800
12,350333	0,5	1,527850
12,358667	0,5	1,526150
12,367000	0,5	1,523050
12,375333	0,5	1,523450
12,383667	0,5	1,522700
12,392000	0,5	1,523150
12,400333	0,5	1,528650
12,408667	0,5	1,529150
12,417000	0,5	1,521650
12,425333	0,5	1,520650
12,433667	0,5	1,523150
12,442000	0,5	1,519900
12,450333	0,5	1,518300
12,458667	0,5	1,509650
12,467000	0,5	1,514400
12,475333	0,5	1,521200
12,483667	0,5	1,530650
12,492000	0,5	1,535900
12,500333	0,5	1,548100
12,508667	0,5	1,557150
12,517000	0,5	1,571650
12,525333	0,5	1,577950
12,533667	0,5	1,580650
12,542000	0,5	1,585000
12,550333	0,5	1,580050
12,558667	0,5	1,578400
12,567000	0,5	1,564500
12,575333	0,5	1,560350
12,583667	0,5	1,552350
12,592000	0,5	1,546150
12,600333	0,5	1,538700
12,608667	0,5	1,531000
12,617000	0,5	1,534350
12,625333	0,5	1,541850
12,633667	0,5	1,541750
12,642000	0,5	1,551350
12,650333	0,5	1,553000
12,658667	0,5	1,559350
12,667000	0,5	1,558750
12,675333	0,5	1,557700
12,683667	0,5	1,555450
12,692000	0,5	1,551650
12,700333	0,5	1,548200
12,708667	0,5	1,542050
12,717000	0,5	1,528200
12,725333	0,5	1,530350
12,733667	0,5	1,528800
12,742000	0,5	1,526500
12,750333	0,5	1,528900
12,758667	0,5	1,529700
12,767000	0,5	1,550350
12,775333	0,5	1,551850
12,783667	0,5	1,550800
12,792000	0,5	1,539150
12,800333	0,5	1,529700
12,808667	0,5	1,511700
12,817000	0,5	1,492700
12,825333	0,5	1,475350
12,833667	0,5	1,462600
12,842000	0,5	1,452000
12,850333	0,5	1,444550
12,858667	0,5	1,433750
12,867000	0,5	1,425150
12,875333	0,5	1,427100
12,883667	0,5	1,422550
12,892000	0,5	1,419450
12,900333	0,5	1,418750
12,908667	0,5	1,417700
12,917000	0,5	1,426300
12,925333	0,5	1,428150
12,933667	0,5	1,428100
12,942000	0,5	1,425450
12,950333	0,5	1,422850
12,958667	0,5	1,424450
12,967000	0,5	1,422900
12,975333	0,5	1,427800
12,983667	0,5	1,427900
12,992000	0,5	1,431800
13,000333	0,5	1,433800
13,008667	0,5	1,427250
13,017000	0,5	1,427450
13,025333	0,5	1,426700
13,033667	0,5	1,423600
13,042000	0,5	1,420300
13,050333	0,5	1,414450
13,058667	0,5	1,406800
13,067000	0,5	1,409650
13,075333	0,5	1,405350
13,083667	0,5	1,399700
13,092000	0,5	1,396550
13,100333	0,5	1,396500
13,108667	0,5	1,396250
13,117000	0,5	1,398900
13,125333	0,5	1,398750
13,133667	0,5	1,399000
13,142000	0,5	1,389800
13,150333	0,5	1,386050
13,158667	0,5	1,372800
13,167000	0,5	1,373000
13,175333	0,5	1,373200
13,183667	0,5	1,372100
13,192000	0,5	1,365050
13,200333	0,5	1,356550
13,208667	0,5	1,352050
13,217000	0,5	1,346650
13,225333	0,5	1,340550
13,233667	0,5	1,343400
13,242000	0,5	1,342400
13,250333	0,5	1,344100
13,258667	0,5	1,341850
13,267000	0,5	1,338450
13,275333	0,5	1,333500
13,283667	0,5	1,336650
13,292000	0,5	1,343800
13,300333	0,5	1,335850
13,308667	0,5	1,337150
13,317000	0,5	1,340200
13,325333	0,5	1,345000
13,333667	0,5	1,339400
13,342000	0,5	1,334500
13,350333	0,5	1,324550
13,358667	0,5	1,333150
13,367000	0,5	1,328050
13,375333	0,5	1,325500
13,383667	0,5	1,321500
13,392000	0,5	1,320950
13,400333	0,5	1,317200
13,408667	0,5	1,317100
13,417000	0,5	1,312950
13,425333	0,5	1,311500
13,433667	0,5	1,312750
13,442000	0,5	1,313000
13,450333	0,5	1,301600
13,458667	0,5	1,302250
13,467000	0,5	1,303350
13,475333	0,5	1,299050
13,483667	0,5	1,296450
13,492000	0,5	1,283100
13,500333	0,5	1,282650
13,508667	0,5	1,283350
13,517000	0,5	1,283100
13,525333	0,5	1,282550
13,533667	0,5	1,283100
13,542000	0,5	1,282650
13,550333	0,5	1,283650
13,558667	0,5	1,282350
13,567000	0,5	1,284650
13,575333	0,5	1,280800
13,583667	0,5	1,277650
13,592000	0,5	1,279750
13,600333	0,5	1,264850
13,608667	0,5	1,274400
13,617000	0,5	1,277050
13,625333	0,5	1,271950
13,633667	0,5	1,269400
13,642000	0,5	1,256450
13,650333	0,5	1,263400
13,658667	0,5	1,268600
13,667000	0,5	1,259600
13,675333	0,5	1,261650
13,683667	0,5	1,253950
13,692000	0,5	1,254250
13,700333	0,5	1,251600
13,708667	0,5	1,247400
13,717000	0,5	1,243150
13,725333	0,5	1,238150
13,733667	0,5	1,242700
13,742000	0,5	1,240550
13,750333	0,5	1,233250
13,758667	0,5	1,246800
13,767000	0,5	1,246850
13,775333	0,5	1,248000
13,783667	0,5	1,246050
13,792000	0,5	1,240600
13,800333	0,5	1,255550
13,808667	0,5	1,250950
13,817000	0,5	1,247750
13,825333	0,5	1,222500
13,833667	0,5	1,201550
13,842000	0,5	1,173650
13,850333	0,5	1,154500
13,858667	0,5	1,128350
13,867000	0,5	1,104800
13,875333	0,5	1,085350
13,883667	0,5	1,059550
13,892000	0,5	1,025000
13,900333	0,5	0,976900
13,908667	0,5	0,830450
13,917000	0,5	0,560150
13,925333	0,5	0,272300
13,933667	0,5	0,046200
13,942000	0,5	-0,090350
13,950333	0,5	-0,161850
13,958667	0,5	-0,204900
13,967000	0,5	-0,232000
13,975333	0,5	-0,252700
13,983667	0,5	-0,267950
13,992000	0,5	-0,283150
14,000333	0,5	-0,300650
14,008667	0,5	-0,312100
14,017000	0,5	-0,324100
14,025333	0,5	-0,326800
14,033667	0,5	-0,335200
14,042000	0,5	-0,338550
14,050333	0,5	-0,338050
14,058667	0,5	-0,334000
14,067000	0,5	-0,338650
14,075333	0,5	-0,338800
14,083667	0,5	-0,343250
14,092000	0,5	-0,341950
14,100333	0,5	-0,331050
14,108667	0,5	-0,321800
14,117000	0,5	-0,315650
14,125333	0,5	-0,305650
14,133667	0,5	-0,292950
14,142000	0,5	-0,283650
14,150333	0,5	-0,269850
14,158667	0,5	-0,254000
14,167000	0,5	-0,241450
14,175333	0,5	-0,224500
14,183667	0,5	-0,211550
14,192000	0,5	-0,210800
14,200333	0,5	-0,194750
14,208667	0,5	-0,188950
14,217000	0,5	-0,188900
14,225333	0,5	-0,195050
14,233667	0,5	-0,196350
14,242000	0,5	-0,186350
14,250333	0,5	-0,177250
14,258667	0,5	-0,169750
14,267000	0,5	-0,161650
14,275333	0,5	-0,151950
14,283667	0,5	-0,142500
14,292000	0,5	-0,133650
14,300333	0,5	-0,128700
14,308667	0,5	-0,126750
14,317000	0,5	-0,123400
14,325333	0,5	-0,108150
14,333667	0,5	-0,112600
14,342000	0,5	-0,102550
14,350333	0,5	-0,089850
14,358667	0,5	-0,081350
14,367000	0,5	-0,074100
14,375333	0,5	-0,071100
14,383667	0,5	-0,062650
14,392000	0,5	-0,046800
14,400333	0,5	-0,036500
14,408667	0,5	-0,021350
14,417000	0,5	-0,005100
14,425333	0,5	0,011050
14,433667	0,5	0,020100
14,442000	0,5	0,039450
14,450333	0,5	0,059250
14,458667	0,5	0,076000
14,467000	0,5	0,099300
14,475333	0,5	0,123800
14,483667	0,5	0,131150
14,492000	0,5	0,161150
14,500333	0,5	0,185850
14,508667	0,5	0,203850
14,517000	0,5	0,222450
14,525333	0,5	0,225600
14,533667	0,5	0,251050
14,542000	0,5	0,271350
14,550333	0,5	0,291650
14,558667	0,5	0,304850
14,567000	0,5	0,330100
14,575333	0,5	0,347500
14,583667	0,5	0,373800
14,592000	0,5	0,395950
14,600333	0,5	0,421150
14,608667	0,5	0,446850
14,617000	0,5	0,475250
14,625333	0,5	0,504750
14,633667	0,5	0,519300
14,642000	0,5	0,548200
14,650333	0,5	0,577650
14,658667	0,5	0,597950
14,667000	0,5	0,616450
14,675333	0,5	0,633800
14,683667	0,5	0,660600
14,692000	0,5	0,685250
14,700333	0,5	0,702400
14,708667	0,5	0,719650
14,717000	0,5	0,737450
14,725333	0,5	0,752150
14,733667	0,5	0,762950
14,742000	0,5	0,776800
14,750333	0,5	0,779900
14,758667	0,5	0,784700
14,767000	0,5	0,791700
14,775333	0,5	0,785300
14,783667	0,5	0,778800
14,792000	0,5	0,777900
14,800333	0,5	0,777900
14,808667	0,5	0,765300
14,817000	0,5	0,756500
14,825333	0,5	0,747550
14,833667	0,5	0,756100
14,842000	0,5	0,749800
14,850333	0,5	0,755500
14,858667	0,5	0,746550
14,867000	0,5	0,746050
14,875333	0,5	0,736000
14,883667	0,5	0,732050
14,892000	0,5	0,724650
14,900333	0,5	0,720250
14,908667	0,5	0,717550
14,917000	0,5	0,718450
14,925333	0,5	0,701650
14,933667	0,5	0,702200
14,942000	0,5	0,704700
14,950333	0,5	0,699350
14,958667	0,5	0,687650
14,967000	0,5	0,674600
14,975333	0,5	0,671950
14,983667	0,5	0,670150
14,992000	0,5	0,668900
15,000333	0,5	0,665250
15,008667	0,5	0,667400
15,017000	0,5	0,660150
15,025333	0,5	0,664250
15,033667	0,5	0,659600
15,042000	0,5	0,660750
15,050333	0,5	0,655450
15,058667	0,5	0,660450
15,067000	0,5	0,652650
15,075333	0,5	0,641350
15,083667	0,5	0,643850
15,092000	0,5	0,642550
15,100333	0,5	0,630700
15,108667	0,5	0,619950
15,117000	0,5	0,598350
15,125333	0,5	0,594150
15,133667	0,5	0,592750
15,142000	0,5	0,592550
15,150333	0,5	0,589500
15,158667	0,5	0,586300
15,167000	0,5	0,584750
15,175333	0,5	0,582700
15,183667	0,5	0,584200
15,192000	0,5	0,581300
15,200333	0,5	0,578050
15,208667	0,5	0,584650
15,217000	0,5	0,573350
15,225333	0,5	0,565150
15,233667	0,5	0,569250
15,242000	0,5	0,560050
15,250333	0,5	0,553800
15,258667	0,5	0,536500
15,267000	0,5	0,526600
15,275333	0,5	0,529500
15,283667	0,5	0,531000
15,292000	0,5	0,524200
15,300333	0,5	0,524350
15,308667	0,5	0,520850
15,317000	0,5	0,521450
15,325333	0,5	0,522850
15,333667	0,5	0,516700
15,342000	0,5	0,519350
15,350333	0,5	0,513250
15,358667	0,5	0,513400
15,367000	0,5	0,495700
15,375333	0,5	0,502000
15,383667	0,5	0,500500
15,392000	0,5	0,497500
15,400333	0,5	0,489000
15,408667	0,5	0,474150
15,417000	0,5	0,469400
15,425333	0,5	0,470450
15,433667	0,5	0,460950
15,442000	0,5	0,457050
15,450333	0,5	0,454400
15,458667	0,5	0,453950
15,467000	0,5	0,448350
15,475333	0,5	0,444600
15,483667	0,5	0,439350
15,492000	0,5	0,432250
15,500333	0,5	0,438600
15,508667	0,5	0,434750
15,517000	0,5	0,420850
15,525333	0,5	0,427250
15,533667	0,5	0,427500
15,542000	0,5	0,416350
15,550333	0,5	0,410400
15,558667	0,5	0,384750
15,567000	0,5	0,394050
15,575333	0,5	0,386000
15,583667	0,5	0,385400
15,592000	0,5	0,375400
15,600333	0,5	0,374900
15,608667	0,5	0,373600
15,617000	0,5	0,367350
15,625333	0,5	0,365550
15,633667	0,5	0,361800
15,642000	0,5	0,359850
15,650333	0,5	0,359200
15,658667	0,5	0,352550
15,667000	0,5	0,343400
15,675333	0,5	0,351450
15,683667	0,5	0,349800
15,692000	0,5	0,342450
15,700333	0,5	0,328350
15,708667	0,5	0,320900
15,717000	0,5	0,320300
15,725333	0,5	0,326200
15,733667	0,5	0,315250
15,742000	0,5	0,317650
15,750333	0,5	0,312250
15,758667	0,5	0,311700
15,767000	0,5	0,308050
15,775333	0,5	0,304750
15,783667	0,5	0,300150
15,792000	0,5	0,297000
15,800333	0,5	0,301150
15,808667	0,5	0,288350
15,817000	0,5	0,287550
15,825333	0,5	0,288500
15,833667	0,5	0,284800
15,842000	0,5	0,271250
15,850333	0,5	0,256600
15,858667	0,5	0,248850
15,867000	0,5	0,258250
15,875333	0,5	0,251200
15,883667	0,5	0,249500
15,892000	0,5	0,244250
15,900333	0,5	0,243950
15,908667	0,5	0,240550
15,917000	0,5	0,242100
15,925333	0,5	0,236300
15,933667	0,5	0,233600
15,942000	0,5	0,241850
15,950333	0,5	0,243200
15,958667	0,5	0,225250
15,967000	0,5	0,231150
15,975333	0,5	0,229550
15,983667	0,5	0,226500
15,992000	0,5	0,211500
16,000333	0,5	0,191000
16,008667	0,5	0,194450
16,017000	0,5	0,190950
16,025333	0,5	0,190750
16,033667	0,5	0,183900
16,042000	0,5	0,183550
16,050333	0,5	0,181350
16,058667	0,5	0,184900
16,067000	0,5	0,180500
16,075333	0,5	0,178000
16,083667	0,5	0,174100
16,092000	0,5	0,181300
16,100333	0,5	0,172200
16,108667	0,5	0,168050
16,117000	0,5	0,176800
16,125333	0,5	0,171000
16,133667	0,5	0,165050
16,142000	0,5	0,151850
16,150333	0,5	0,139550
16,158667	0,5	0,138850
16,167000	0,5	0,135850
16,175333	0,5	0,136700
16,183667	0,5	0,132550
16,192000	0,5	0,129800
16,200333	0,5	0,125450
16,208667	0,5	0,120950
16,217000	0,5	0,121800
16,225333	0,5	0,113900
16,233667	0,5	0,116900
16,242000	0,5	0,110350
16,250333	0,5	0,099650
16,258667	0,5	0,097900
16,267000	0,5	0,108800
16,275333	0,5	0,095900
16,283667	0,5	0,093250
16,292000	0,5	0,071400
16,300333	0,5	0,065500
16,308667	0,5	0,066100
16,317000	0,5	0,066350
16,325333	0,5	0,060350
16,333667	0,5	0,062000
16,342000	0,5	0,055600
16,350333	0,5	0,051650
16,358667	0,5	0,051550
16,367000	0,5	0,042250
16,375333	0,5	0,038750
16,383667	0,5	0,033750
16,392000	0,5	0,037100
16,400333	0,5	0,015950
16,408667	0,5	0,026900
16,417000	0,5	0,026050
16,425333	0,5	0,018000
16,433667	0,5	0,008300
16,442000	0,5	-0,007750
16,450333	0,5	-0,006200
16,458667	0,5	-0,008100
16,467000	0,5	-0,016700
16,475333	0,5	-0,016050
16,483667	0,5	-0,019350
16,492000	0,5	-0,021150
16,500333	0,5	-0,025600
16,508667	0,5	-0,028500
16,517000	0,5	-0,032600
16,525333	0,5	-0,037850
16,533667	0,5	-0,032550
16,542000	0,5	-0,044150
16,550333	0,5	-0,049700
16,558667	0,5	-0,047000
16,567000	0,5	-0,045450
16,575333	0,5	-0,062300
16,583667	0,5	-0,072050
16,592000	0,5	-0,081550
16,600333	0,5	-0,072800
16,608667	0,5	-0,079650
16,617000	0,5	-0,077950
16,625333	0,5	-0,084500
16,633667	0,5	-0,081900
16,642000	0,5	-0,089600
16,650333	0,5	-0,089000
16,658667	0,5	-0,093950
16,667000	0,5	-0,099400
16,675333	0,5	-0,100950
16,683667	0,5	-0,099750
16,692000	0,5	-0,114150
16,700333	0,5	-0,114800
16,708667	0,5	-0,111500
16,717000	0,5	-0,114400
16,725333	0,5	-0,123000
16,733667	0,5	-0,142000
16,742000	0,5	-0,143750
16,750333	0,5	-0,143900
16,758667	0,5	-0,141300
16,767000	0,5	-0,150150
16,775333	0,5	-0,150100
16,783667	0,5	-0,155850
16,792000	0,5	-0,156750
16,800333	0,5	-0,157200
16,808667	0,5	-0,161300
16,817000	0,5	-0,163300
16,825333	0,5	-0,170500
16,833667	0,5	-0,162950
16,842000	0,5	-0,176400
16,850333	0,5	-0,161850
16,858667	0,5	-0,161900
16,867000	0,5	-0,163200
16,875333	0,5	-0,176200
16,883667	0,5	-0,195900
16,892000	0,5	-0,196150
16,900333	0,5	-0,191850
16,908667	0,5	-0,200750
16,917000	0,5	-0,194450
16,925333	0,5	-0,204250
16,933667	0,5	-0,201950
16,942000	0,5	-0,204850
16,950333	0,5	-0,202850
16,958667	0,5	-0,205500
16,967000	0,5	-0,207500
16,975333	0,5	-0,202000
16,983667	0,5	-0,203850
16,992000	0,5	-0,217450
17,000333	0,5	-0,205150
17,008667	0,5	-0,210450
17,017000	0,5	-0,222150
17,025333	0,5	-0,231350
17,033667	0,5	-0,249550
17,042000	0,5	-0,243400
17,050333	0,5	-0,250750
17,058667	0,5	-0,250650
17,067000	0,5	-0,255550
17,075333	0,5	-0,251800
17,083667	0,5	-0,257850
17,092000	0,5	-0,253750
17,100333	0,5	-0,256300
17,108667	0,5	-0,256650
17,117000	0,5	-0,252600
17,125333	0,5	-0,254150
17,133667	0,5	-0,269100
17,142000	0,5	-0,273500
17,150333	0,5	-0,271950
17,158667	0,5	-0,277300
17,167000	0,5	-0,283700
17,175333	0,5	-0,303800
17,183667	0,5	-0,308350
17,192000	0,5	-0,305900
17,200333	0,5	-0,297650
17,208667	0,5	-0,297000
17,217000	0,5	-0,282700
17,225333	0,5	-0,280150
17,233667	0,5	-0,267250
17,242000	0,5	-0,265500
17,250333	0,5	-0,258650
17,258667	0,5	-0,263150
17,267000	0,5	-0,256350
17,275333	0,5	-0,266800
17,283667	0,5	-0,283500
17,292000	0,5	-0,288600
17,300333	0,5	-0,288050
17,308667	0,5	-0,304150
17,317000	0,5	-0,317200
17,325333	0,5	-0,335800
17,333667	0,5	-0,345550
17,342000	0,5	-0,344350
17,350333	0,5	-0,348950
17,358667	0,5	-0,352850
17,367000	0,5	-0,361200
17,375333	0,5	-0,362150
17,383667	0,5	-0,367950
17,392000	0,5	-0,370800
17,400333	0,5	-0,379100
17,408667	0,5	-0,382700
17,417000	0,5	-0,381500
17,425333	0,5	-0,393800
17,433667	0,5	-0,401550
17,442000	0,5	-0,393650
17,450333	0,5	-0,399700
17,458667	0,5	-0,407700
17,467000	0,5	-0,424150
17,475333	0,5	-0,434550
17,483667	0,5	-0,431500
17,492000	0,5	-0,433150
17,500333	0,5	-0,438450
17,508667	0,5	-0,439550
17,517000	0,5	-0,437900
17,525333	0,5	-0,440250
17,533667	0,5	-0,436650
17,542000	0,5	-0,440450
17,550333	0,5	-0,437650
17,558667	0,5	-0,435400
17,567000	0,5	-0,426150
17,575333	0,5	-0,444450
17,583667	0,5	-0,432250
17,592000	0,5	-0,434000
17,600333	0,5	-0,431250
17,608667	0,5	-0,438750
17,617000	0,5	-0,459450
17,625333	0,5	-0,457100
17,633667	0,5	-0,447250
17,642000	0,5	-0,451600
17,650333	0,5	-0,448200
17,658667	0,5	-0,448450
17,667000	0,5	-0,447150
17,675333	0,5	-0,445100
17,683667	0,5	-0,446700
17,692000	0,5	-0,440850
17,700333	0,5	-0,446250
17,708667	0,5	-0,437250
17,717000	0,5	-0,430750
17,725333	0,5	-0,444700
17,733667	0,5	-0,429100
17,742000	0,5	-0,426850
17,750333	0,5	-0,426600
17,758667	0,5	-0,422800
17,767000	0,5	-0,448350
17,775333	0,5	-0,430850
17,783667	0,5	-0,431500
17,792000	0,5	-0,422250
17,800333	0,5	-0,425300
17,808667	0,5	-0,420500
17,817000	0,5	-0,420700
17,825333	0,5	-0,410500
17,833667	0,5	-0,403350
17,842000	0,5	-0,403000
17,850333	0,5	-0,396850
17,858667	0,5	-0,389250
17,867000	0,5	-0,382800
17,875333	0,5	-0,385400
17,883667	0,5	-0,364200
17,892000	0,5	-0,366400
17,900333	0,5	-0,367050
17,908667	0,5	-0,383750
17,917000	0,5	-0,390950
17,925333	0,5	-0,389750
17,933667	0,5	-0,384900
17,942000	0,5	-0,392350
17,950333	0,5	-0,383300
17,958667	0,5	-0,380750
17,967000	0,5	-0,381700
17,975333	0,5	-0,382350
17,983667	0,5	-0,379950
17,992000	0,5	-0,379700
18,000333	0,5	-0,376550
18,008667	0,5	-0,368700
18,017000	0,5	-0,376800
18,025333	0,5	-0,373850
18,033667	0,5	-0,367550
18,042000	0,5	-0,370500
18,050333	0,5	-0,377600
18,058667	0,5	-0,388750
18,067000	0,5	-0,399650
18,075333	0,5	-0,388050
18,083667	0,5	-0,392750
18,092000	0,5	-0,389300
18,100333	0,5	-0,394250
18,108667	0,5	-0,389450
18,117000	0,5	-0,391650
18,125333	0,5	-0,388800
18,133667	0,5	-0,389300
18,142000	0,5	-0,393200
18,150333	0,5	-0,380650
18,158667	0,5	-0,380050
18,167000	0,5	-0,392950
18,175333	0,5	-0,391300
18,183667	0,5	-0,386700
18,192000	0,5	-0,400000
18,200333	0,5	-0,409550
18,208667	0,5	-0,431450
18,217000	0,5	-0,429950
18,225333	0,5	-0,439950
18,233667	0,5	-0,436450
18,242000	0,5	-0,437250
18,250333	0,5	-0,436600
18,258667	0,5	-0,442350
18,267000	0,5	-0,439700
18,275333	0,5	-0,444100
18,283667	0,5	-0,446700
18,292000	0,5	-0,449700
18,300333	0,5	-0,443150
18,308667	0,5	-0,458100
18,317000	0,5	-0,464450
18,325333	0,5	-0,460100
18,333667	0,5	-0,468700
18,342000	0,5	-0,473550
18,350333	0,5	-0,499500
18,358667	0,5	-0,506900
18,367000	0,5	-0,508450
18,375333	0,5	-0,505250
18,383667	0,5	-0,511750
18,392000	0,5	-0,513600
18,400333	0,5	-0,517750
18,408667	0,5	-0,521300
18,417000	0,5	-0,526400
18,425333	0,5	-0,528250
18,433667	0,5	-0,529350
18,442000	0,5	-0,528250
18,450333	0,5	-0,528250
18,458667	0,5	-0,547150
18,467000	0,5	-0,543350
18,475333	0,5	-0,542100
18,483667	0,5	-0,552450
18,492000	0,5	-0,560800
18,500333	0,5	-0,583350
18,508667	0,5	-0,585200
18,517000	0,5	-0,585700
18,525333	0,5	-0,596250
18,533667	0,5	-0,600250
18,542000	0,5	-0,607600
18,550333	0,5	-0,610950
18,558667	0,5	-0,615650
18,567000	0,5	-0,615000
18,575333	0,5	-0,625450
18,583667	0,5	-0,625800
18,592000	0,5	-0,622800
18,600333	0,5	-0,621700
18,608667	0,5	-0,646750
18,617000	0,5	-0,635150
18,625333	0,5	-0,641850
18,633667	0,5	-0,649550
18,642000	0,5	-0,662150
18,650333	0,5	-0,683650
18,658667	0,5	-0,677400
18,667000	0,5	-0,678800
18,675333	0,5	-0,684750
18,683667	0,5	-0,691900
18,692000	0,5	-0,698650
18,700333	0,5	-0,709400
18,708667	0,5	-0,712350
18,717000	0,5	-0,720600
18,725333	0,5	-0,723050
18,733667	0,5	-0,730100
18,742000	0,5	-0,716700
18,750333	0,5	-0,729150
18,758667	0,5	-0,743750
18,767000	0,5	-0,742350
18,775333	0,5	-0,748800
18,783667	0,5	-0,758850
18,792000	0,5	-0,773850
18,800333	0,5	-0,793900
18,808667	0,5	-0,788550
18,817000	0,5	-0,793450
18,825333	0,5	-0,799850
18,833667	0,5	-0,801600
18,842000	0,5	-0,802550
18,850333	0,5	-0,802200
18,858667	0,5	-0,810300
18,867000	0,5	-0,811450
18,875333	0,5	-0,814650
18,883667	0,5	-0,805100
18,892000	0,5	-0,804600
18,900333	0,5	-0,815150
18,908667	0,5	-0,817500
18,917000	0,5	-0,812850
18,925333	0,5	-0,819750
18,933667	0,5	-0,831400
18,942000	0,5	-0,853650
18,950333	0,5	-0,859850
18,958667	0,5	-0,859200
18,967000	0,5	-0,858900
18,975333	0,5	-0,864350
18,983667	0,5	-0,867050
18,992000	0,5	-0,870700
19,000333	0,5	-0,873000
19,008667	0,5	-0,873750
19,017000	0,5	-0,884700
19,025333	0,5	-0,883900
19,033667	0,5	-0,883150
19,042000	0,5	-0,882000
19,050333	0,5	-0,900750
19,058667	0,5	-0,896050
19,067000	0,5	-0,902750
19,075333	0,5	-0,914100
19,083667	0,5	-0,936550
19,092000	0,5	-0,955650
19,100333	0,5	-0,962250
19,108667	0,5	-0,960600
19,117000	0,5	-0,971300
19,125333	0,5	-0,971350
19,133667	0,5	-0,984500
19,142000	0,5	-0,992900
19,150333	0,5	-0,999300
19,158667	0,5	-1,005550
19,167000	0,5	-1,014150
19,175333	0,5	-1,025300
19,183667	0,5	-1,020100
19,192000	0,5	-1,036450
19,200333	0,5	-1,041100
19,208667	0,5	-1,043600
19,217000	0,5	-1,052700
19,225333	0,5	-1,066550
19,233667	0,5	-1,090200
19,242000	0,5	-1,103450
19,250333	0,5	-1,101100
19,258667	0,5	-1,112550
19,267000	0,5	-1,113350
19,275333	0,5	-1,117950
19,283667	0,5	-1,117100
19,292000	0,5	-1,120700
19,300333	0,5	-1,118250
19,308667	0,5	-1,119050
19,317000	0,5	-1,119000
19,325333	0,5	-1,104700
19,333667	0,5	-1,095750
19,342000	0,5	-1,104700
19,350333	0,5	-1,088700
19,358667	0,5	-1,083400
19,367000	0,5	-1,099800
19,375333	0,5	-1,112050
19,383667	0,5	-1,149850
19,392000	0,5	-1,153150
19,400333	0,5	-1,168550
19,408667	0,5	-1,171400
19,417000	0,5	-1,191850
19,425333	0,5	-1,192850
19,433667	0,5	-1,207850
19,442000	0,5	-1,208400
19,450333	0,5	-1,213700
19,458667	0,5	-1,220450
19,467000	0,5	-1,222000
19,475333	0,5	-1,219850
19,483667	0,5	-1,228400
19,492000	0,5	-1,238850
19,500333	0,5	-1,233050
19,508667	0,5	-1,231750
19,517000	0,5	-1,242150
19,525333	0,5	-1,257150
19,533667	0,5	-1,263700
19,542000	0,5	-1,270700
19,550333	0,5	-1,269450
19,558667	0,5	-1,283600
19,567000	0,5	-1,283050
19,575333	0,5	-1,293650
19,583667	0,5	-1,290500
19,592000	0,5	-1,295800
19,600333	0,5	-1,289050
19,608667	0,5	-1,295700
19,617000	0,5	-1,299100
19,625333	0,5	-1,293950
19,633667	0,5	-1,310900
19,642000	0,5	-1,311700
19,650333	0,5	-1,309650
19,658667	0,5	-1,314750
19,667000	0,5	-1,331050
19,675333	0,5	-1,352550
19,683667	0,5	-1,362700
19,692000	0,5	-1,356000
19,700333	0,5	-1,363550
19,708667	0,5	-1,362450
19,717000	0,5	-1,363050
19,725333	0,5	-1,353700
19,733667	0,5	-1,356900
19,742000	0,5	-1,349450
19,750333	0,5	-1,358300
19,758667	0,5	-1,366400
19,767000	0,5	-1,364550
19,775333	0,5	-1,367350
19,783667	0,5	-1,399650
19,792000	0,5	-1,393250
19,800333	0,5	-1,403850
19,808667	0,5	-1,414200
19,817000	0,5	-1,427100
19,825333	0,5	-1,454300
19,833667	0,5	-1,447950
19,842000	0,5	-1,457850
19,850333	0,5	-1,460600
19,858667	0,5	-1,473900
19,867000	0,5	-1,469600
19,875333	0,5	-1,477550
19,883667	0,5	-1,472850
19,892000	0,5	-1,482250
19,900333	0,5	-1,483800
19,908667	0,5	-1,489750
19,917000	0,5	-1,482450
19,925333	0,5	-1,488750
19,933667	0,5	-1,497350
19,942000	0,5	-1,489800
19,950333	0,5	-1,496100
19,958667	0,5	-1,504650
19,967000	0,5	-1,527000
19,975333	0,5	-1,542750
19,983667	0,5	-1,541400
19,992000	0,5	-1,538950
20,000333	0,5	-1,545450
20,008667	0,5	-1,544400
20,017000	0,5	-1,546600
20,025333	0,5	-1,547400
20,033667	0,5	-1,558350
20,042000	0,5	-1,555150
20,050333	0,5	-1,563900
20,058667	0,5	-1,559100
20,067000	0,5	-1,560850
20,075333	0,5	-1,572250
20,083667	0,5	-1,571000
20,092000	0,5	-1,564400
20,100333	0,5	-1,573800
20,108667	0,5	-1,586300
20,117000	0,5	-1,608200
20,125333	0,5	-1,620000
20,133667	0,5	-1,618950
20,142000	0,5	-1,627450
20,150333	0,5	-1,633450
20,158667	0,5	-1,641200
20,167000	0,5	-1,641900
20,175333	0,5	-1,649850
20,183667	0,5	-1,647900
20,192000	0,5	-1,656800
20,200333	0,5	-1,655600
20,208667	0,5	-1,651150
20,217000	0,5	-1,654600
20,225333	0,5	-1,667100
20,233667	0,5	-1,653850
20,242000	0,5	-1,652450
20,250333	0,5	-1,655800
20,258667	0,5	-1,670750
20,267000	0,5	-1,683200
20,275333	0,5	-1,680550
20,283667	0,5	-1,680950
20,292000	0,5	-1,679550
20,300333	0,5	-1,681000
20,308667	0,5	-1,677050
20,317000	0,5	-1,675400
20,325333	0,5	-1,674500
20,333667	0,5	-1,673450
20,342000	0,5	-1,674050
20,350333	0,5	-1,670300
20,358667	0,5	-1,657800
20,367000	0,5	-1,673700
20,375333	0,5	-1,666150
20,383667	0,5	-1,667450
20,392000	0,5	-1,666400
20,400333	0,5	-1,675450
20,408667	0,5	-1,697300
20,417000	0,5	-1,696050
20,425333	0,5	-1,697600
20,433667	0,5	-1,695050
20,442000	0,5	-1,693550
20,450333	0,5	-1,696400
20,458667	0,5	-1,695350
20,467000	0,5	-1,687600
20,475333	0,5	-1,693400
20,483667	0,5	-1,688200
20,492000	0,5	-1,689050
20,500333	0,5	-1,672550
20,508667	0,5	-1,670750
20,517000	0,5	-1,684400
20,525333	0,5	-1,678450
20,533667	0,5	-1,673050
20,542000	0,5	-1,676250
20,550333	0,5	-1,680900
20,558667	0,5	-1,698250
20,567000	0,5	-1,683200
20,575333	0,5	-1,682350
20,583667	0,5	-1,682250
20,592000	0,5	-1,679250
20,600333	0,5	-1,674350
20,608667	0,5	-1,669800
20,617000	0,5	-1,666600
20,625333	0,5	-1,661050
20,633667	0,5	-1,669650
20,642000	0,5	-1,661000
20,650333	0,5	-1,648100
20,658667	0,5	-1,651400
20,667000	0,5	-1,666450
20,675333	0,5	-1,660950
20,683667	0,5	-1,670200
20,692000	0,5	-1,683950
20,700333	0,5	-1,705400
20,708667	0,5	-1,715750
20,717000	0,5	-1,711400
20,725333	0,5	-1,712500
20,733667	0,5	-1,717000
20,742000	0,5	-1,721900
20,750333	0,5	-1,722400
20,758667	0,5	-1,723750
20,767000	0,5	-1,721650
20,775333	0,5	-1,724550
20,783667	0,5	-1,725500
20,792000	0,5	-1,715100
20,800333	0,5	-1,700150
20,808667	0,5	-1,710750
20,817000	0,5	-1,710250
20,825333	0,5	-1,717400
20,833667	0,5	-1,720550
20,842000	0,5	-1,738350
20,850333	0,5	-1,751900
20,858667	0,5	-1,756650
20,867000	0,5	-1,750000
20,875333	0,5	-1,755400
20,883667	0,5	-1,754650
20,892000	0,5	-1,754450
20,900333	0,5	-1,757900
20,908667	0,5	-1,745050
20,917000	0,5	-1,745700
20,925333	0,5	-1,740000
20,933667	0,5	-1,742700
20,942000	0,5	-1,715250
20,950333	0,5	-1,707200
20,958667	0,5	-1,712700
20,967000	0,5	-1,712250
20,975333	0,5	-1,715750
20,983667	0,5	-1,719550
20,992000	0,5	-1,729000
21,000333	0,5	-1,748300
21,008667	0,5	-1,736900
21,017000	0,5	-1,736500
21,025333	0,5	-1,730650
21,033667	0,5	-1,725800
21,042000	0,5	-1,719400
21,050333	0,5	-1,716500
21,058667	0,5	-1,715000
21,067000	0,5	-1,710250
21,075333	0,5	-1,714350
21,083667	0,5	-1,691800
21,092000	0,5	-1,676500
21,100333	0,5	-1,666400
21,108667	0,5	-1,673150
21,117000	0,5	-1,668950
21,125333	0,5	-1,678550
21,133667	0,5	-1,682100
21,142000	0,5	-1,701600
21,150333	0,5	-1,701000
21,158667	0,5	-1,697700
21,167000	0,5	-1,691200
21,175333	0,5	-1,687000
21,183667	0,5	-1,686850
21,192000	0,5	-1,684450
21,200333	0,5	-1,685300
21,208667	0,5	-1,673250
21,217000	0,5	-1,675300
21,225333	0,5	-1,665150
21,233667	0,5	-1,639500
21,242000	0,5	-1,621850
21,250333	0,5	-1,622600
21,258667	0,5	-1,618500
21,267000	0,5	-1,619900
21,275333	0,5	-1,618150
21,283667	0,5	-1,634700
21,292000	0,5	-1,638500
21,300333	0,5	-1,638050
21,308667	0,5	-1,630550
21,317000	0,5	-1,630250
21,325333	0,5	-1,621000
21,333667	0,5	-1,611700
21,342000	0,5	-1,601150
21,350333	0,5	-1,592450
21,358667	0,5	-1,582850
21,367000	0,5	-1,570800
21,375333	0,5	-1,560600
21,383667	0,5	-1,526050
21,392000	0,5	-1,514400
21,400333	0,5	-1,515750
21,408667	0,5	-1,512000
21,417000	0,5	-1,510700
21,425333	0,5	-1,513650
21,433667	0,5	-1,525400
21,442000	0,5	-1,517150
21,450333	0,5	-1,503650
21,458667	0,5	-1,499650
21,467000	0,5	-1,488450
21,475333	0,5	-1,482900
21,483667	0,5	-1,474750
21,492000	0,5	-1,461300
21,500333	0,5	-1,453800
21,508667	0,5	-1,443350
21,517000	0,5	-1,437050
21,525333	0,5	-1,403250
21,533667	0,5	-1,375950
21,542000	0,5	-1,376350
21,550333	0,5	-1,366400
21,558667	0,5	-1,357600
21,567000	0,5	-1,349650
21,575333	0,5	-1,340500
21,583667	0,5	-1,337400
21,592000	0,5	-1,300500
21,600333	0,5	-1,275750
21,608667	0,5	-1,249100
21,617000	0,5	-1,216250
21,625333	0,5	-1,178600
21,633667	0,5	-1,153950
21,642000	0,5	-1,142100
21,650333	0,5	-1,139100
21,658667	0,5	-1,155800
21,667000	0,5	-1,157800
21,675333	0,5	-1,146950
21,683667	0,5	-1,142600
21,692000	0,5	-1,149600
21,700333	0,5	-1,135400
21,708667	0,5	-1,136600
21,717000	0,5	-1,137200
21,725333	0,5	-1,143950
21,733667	0,5	-1,133200
21,742000	0,5	-1,118400
21,750333	0,5	-1,103200
21,758667	0,5	-1,088750
21,767000	0,5	-1,069650
21,775333	0,5	-1,055200
21,783667	0,5	-1,035800
21,792000	0,5	-1,011050
21,800333	0,5	-0,993500
21,808667	0,5	-0,967950
21,817000	0,5	-0,939250
21,825333	0,5	-0,904250
21,833667	0,5	-0,895050
21,842000	0,5	-0,866600
21,850333	0,5	-0,850400
21,858667	0,5	-0,834850
21,867000	0,5	-0,825500
21,875333	0,5	-0,814050
21,883667	0,5	-0,786600
21,892000	0,5	-0,767100
21,900333	0,5	-0,750100
21,908667	0,5	-0,738450
21,917000	0,5	-0,721350
21,925333	0,5	-0,703350
21,933667	0,5	-0,683250
21,942000	0,5	-0,662100
21,950333	0,5	-0,641050
21,958667	0,5	-0,624450
21,967000	0,5	-0,586900
21,975333	0,5	-0,573100
21,983667	0,5	-0,551200
21,992000	0,5	-0,522850
22,000333	0,5	-0,505650
22,008667	0,5	-0,485650
22,017000	0,5	-0,469650
22,025333	0,5	-0,445400
22,033667	0,5	-0,410100
22,042000	0,5	-0,377250
22,050333	0,5	-0,340650
22,058667	0,5	-0,314350
22,067000	0,5	-0,282150
22,075333	0,5	-0,252650
22,083667	0,5	-0,222900
22,092000	0,5	-0,186600
22,100333	0,5	-0,156000
22,108667	0,5	-0,120900
22,117000	0,5	-0,090150
22,125333	0,5	-0,051750
22,133667	0,5	-0,008150
22,142000	0,5	0,044200
22,150333	0,5	0,079950
22,158667	0,5	0,117650
22,167000	0,5	0,156000
22,175333	0,5	0,197000
22,183667	0,5	0,251550
22,192000	0,5	0,303350
22,200333	0,5	0,350600
22,208667	0,5	0,395050
22,217000	0,5	0,443300
22,225333	0,5	0,486250
22,233667	0,5	0,534800
22,242000	0,5	0,573850
22,250333	0,5	0,626150
22,258667	0,5	0,651000
22,267000	0,5	0,697000
22,275333	0,5	0,757550
22,283667	0,5	0,817750
22,292000	0,5	0,864500
22,300333	0,5	0,914700
22,308667	0,5	0,942600
22,317000	0,5	0,992100
22,325333	0,5	1,039950
22,333667	0,5	1,082450
22,342000	0,5	1,122800
22,350333	0,5	1,170950
22,358667	0,5	1,223200
22,367000	0,5	1,273700
22,375333	0,5	1,329550
22,383667	0,5	1,377450
22,392000	0,5	1,432950
22,400333	0,5	1,467050
22,408667	0,5	1,518750
22,417000	0,5	1,571250
22,425333	0,5	1,658000
22,433667	0,5	1,723750
22,442000	0,5	1,786650
22,450333	0,5	1,843250
22,458667	0,5	1,897500
22,467000	0,5	1,975650
22,475333	0,5	2,047650
22,483667	0,5	2,114800
22,492000	0,5	2,185250
22,500333	0,5	2,251350
22,508667	0,5	2,323550
22,517000	0,5	2,397200
22,525333	0,5	2,468300
22,533667	0,5	2,543150
22,542000	0,5	2,609100
22,550333	0,5	2,646450
22,558667	0,5	2,720200
22,567000	0,5	2,813700
22,575333	0,5	2,892650
22,583667	0,5	2,956700
22,592000	0,5	3,005600
22,600333	0,5	3,051000
22,608667	0,5	3,092750
22,617000	0,5	3,147050
22,625333	0,5	3,190100
22,633667	0,5	3,225400
22,642000	0,5	3,262750
22,650333	0,5	3,298750
22,658667	0,5	3,324600
22,667000	0,5	3,346950
22,675333	0,5	3,364000
22,683667	0,5	3,361800
22,692000	0,5	3,331100
22,700333	0,5	3,298200
22,708667	0,5	3,296150
22,717000	0,5	3,286250
22,725333	0,5	3,253150
22,733667	0,5	3,200100
22,742000	0,5	3,134550
22,750333	0,5	3,051600
22,758667	0,5	2,982200
22,767000	0,5	2,902750
22,775333	0,5	2,808100
22,783667	0,5	2,697250
22,792000	0,5	2,589300
22,800333	0,5	2,470750
22,808667	0,5	2,344400
22,817000	0,5	2,216250
22,825333	0,5	2,077350
22,833667	0,5	1,934100
22,842000	0,5	1,719100
22,850333	0,5	1,598900
22,858667	0,5	1,450900
22,867000	0,5	1,305850
22,875333	0,5	1,140100
22,883667	0,5	0,969850
22,892000	0,5	0,805550
22,900333	0,5	0,642600
22,908667	0,5	0,477100
22,917000	0,5	0,314200
22,925333	0,5	0,160100
22,933667	0,5	0,009850
22,942000	0,5	-0,135200
22,950333	0,5	-0,280050
22,958667	0,5	-0,427150
22,967000	0,5	-0,565100
22,975333	0,5	-0,707550
22,983667	0,5	-0,821550
22,992000	0,5	-0,974650
23,000333	0,5	-1,088650
23,008667	0,5	-1,232450
23,017000	0,5	-1,375350
23,025333	0,5	-1,487700
23,033667	0,5	-1,588350
23,042000	0,5	-1,688000
23,050333	0,5	-1,779300
23,058667	0,5	-1,874750
23,067000	0,5	-1,954850
23,075333	0,5	-2,025100
23,083667	0,5	-2,091100
23,092000	0,5	-2,159000
23,100333	0,5	-2,214850
23,108667	0,5	-2,270350
23,117000	0,5	-2,323150
23,125333	0,5	-2,371600
23,133667	0,5	-2,394800
23,142000	0,5	-2,456650
23,150333	0,5	-2,488200
23,158667	0,5	-2,560700
23,167000	0,5	-2,616650
23,175333	0,5	-2,638750
23,183667	0,5	-2,658050
23,192000	0,5	-2,663550
23,200333	0,5	-2,681650
23,208667	0,5	-2,689850
23,217000	0,5	-2,692050
23,225333	0,5	-2,681400
23,233667	0,5	-2,678050
23,242000	0,5	-2,664450
23,250333	0,5	-2,656550
23,258667	0,5	-2,643600
23,267000	0,5	-2,634800
23,275333	0,5	-2,620050
23,283667	0,5	-2,641550
23,292000	0,5	-2,606450
23,300333	0,5	-2,573600
23,308667	0,5	-2,593900
23,317000	0,5	-2,595150
23,325333	0,5	-2,586950
23,333667	0,5	-2,559350
23,342000	0,5	-2,540150
23,350333	0,5	-2,518650
23,358667	0,5	-2,498600
23,367000	0,5	-2,463700
23,375333	0,5	-2,433300
23,383667	0,5	-2,397250
23,392000	0,5	-2,366550
23,400333	0,5	-2,333500
23,408667	0,5	-2,300600
23,417000	0,5	-2,267000
23,425333	0,5	-2,244150
23,433667	0,5	-2,254300
23,442000	0,5	-2,210250
23,450333	0,5	-2,143250
23,458667	0,5	-2,136950
23,467000	0,5	-2,127900
23,475333	0,5	-2,112050
23,483667	0,5	-2,087950
23,492000	0,5	-2,071000
23,500333	0,5	-2,055300
23,508667	0,5	-2,034100
23,517000	0,5	-2,013150
23,525333	0,5	-1,991150
23,533667	0,5	-1,968800
23,542000	0,5	-1,946500
23,550333	0,5	-1,924500
23,558667	0,5	-1,904850
23,567000	0,5	-1,884950
23,575333	0,5	-1,962050
23,583667	0,5	-1,918100
23,592000	0,5	-1,883050
23,600333	0,5	-1,816300
23,608667	0,5	-1,805200
23,617000	0,5	-1,796650
23,625333	0,5	-1,787750
23,633667	0,5	-1,781400
23,642000	0,5	-1,766550
23,650333	0,5	-1,757700
23,658667	0,5	-1,745100
23,667000	0,5	-1,735550
23,675333	0,5	-1,726600
23,683667	0,5	-1,717700
23,692000	0,5	-1,708350
23,700333	0,5	-1,703900
23,708667	0,5	-1,696750
23,717000	0,5	-1,707850
23,725333	0,5	-1,839000
23,733667	0,5	-1,791200
23,742000	0,5	-1,744200
23,750333	0,5	-1,700900
23,758667	0,5	-1,694250
23,767000	0,5	-1,695100
23,775333	0,5	-1,692100
23,783667	0,5	-1,695250
23,792000	0,5	-1,687600
23,800333	0,5	-1,680550
23,808667	0,5	-1,668250
23,817000	0,5	-1,655750
23,825333	0,5	-1,646600
23,833667	0,5	-1,631400
23,842000	0,5	-1,620100
23,850333	0,5	-1,609550
23,858667	0,5	-1,605250
23,867000	0,5	-1,694950
23,875333	0,5	-1,740350
23,883667	0,5	-1,692050
23,892000	0,5	-1,644500
23,900333	0,5	-1,602350
23,908667	0,5	-1,598700
23,917000	0,5	-1,593700
23,925333	0,5	-1,602800
23,933667	0,5	-1,605550
23,942000	0,5	-1,590800
23,950333	0,5	-1,582600
23,958667	0,5	-1,575200
23,967000	0,5	-1,568750
23,975333	0,5	-1,554900
23,983667	0,5	-1,547600
23,992000	0,5	-1,530900
24,000333	0,5	-1,520350
24,008667	0,5	-1,507500
24,017000	0,5	-1,640500
24,025333	0,5	-1,613250
24,033667	0,5	-1,575100
24,042000	0,5	-1,508200
24,050333	0,5	-1,473300
24,058667	0,5	-1,458000
24,067000	0,5	-1,453300
24,075333	0,5	-1,454700
24,083667	0,5	-1,443400
24,092000	0,5	-1,424900
24,100333	0,5	-1,408700
24,108667	0,5	-1,391650
24,117000	0,5	-1,376200
24,125333	0,5	-1,362200
24,133667	0,5	-1,343100
24,142000	0,5	-1,328250
24,150333	0,5	-1,314650
24,158667	0,5	-1,332900
24,167000	0,5	-1,425000
24,175333	0,5	-1,396200
24,183667	0,5	-1,347850
24,192000	0,5	-1,302850
24,200333	0,5	-1,277200
24,208667	0,5	-1,272550
24,217000	0,5	-1,268500
24,225333	0,5	-1,269400
24,233667	0,5	-1,251900
24,242000	0,5	-1,236750
24,250333	0,5	-1,213000
24,258667	0,5	-1,200000
24,267000	0,5	-1,181000
24,275333	0,5	-1,162750
24,283667	0,5	-1,140750
24,292000	0,5	-1,119850
24,300333	0,5	-1,106600
24,308667	0,5	-1,161700
24,317000	0,5	-1,179200
24,325333	0,5	-1,146500
24,333667	0,5	-1,096400
24,342000	0,5	-1,059750
24,350333	0,5	-1,043700
24,358667	0,5	-1,029650
24,367000	0,5	-1,035850
24,375333	0,5	-1,026400
24,383667	0,5	-1,015000
24,392000	0,5	-1,000350
24,400333	0,5	-0,992450
24,408667	0,5	-0,977650
24,417000	0,5	-0,967600
24,425333	0,5	-0,953050
24,433667	0,5	-0,938900
24,442000	0,5	-0,925200
24,450333	0,5	-0,913150
24,458667	0,5	-0,988150
24,467000	0,5	-0,959350
24,475333	0,5	-0,941200
24,483667	0,5	-0,898500
24,492000	0,5	-0,872750
24,500333	0,5	-0,855700
24,508667	0,5	-0,849700
24,517000	0,5	-0,853350
24,525333	0,5	-0,834800
24,533667	0,5	-0,812850
24,542000	0,5	-0,805400
24,550333	0,5	-0,790550
24,558667	0,5	-0,781850
24,567000	0,5	-0,763700
24,575333	0,5	-0,753300
24,583667	0,5	-0,740150
24,592000	0,5	-0,732900
24,600333	0,5	-0,743350
24,608667	0,5	-0,779900
24,617000	0,5	-0,753050
24,625333	0,5	-0,739400
24,633667	0,5	-0,711750
24,642000	0,5	-0,700150
24,650333	0,5	-0,694150
24,658667	0,5	-0,691350
24,667000	0,5	-0,695800
24,675333	0,5	-0,677300
24,683667	0,5	-0,672000
24,692000	0,5	-0,660100
24,700333	0,5	-0,651950
24,708667	0,5	-0,636450
24,717000	0,5	-0,628600
24,725333	0,5	-0,613100
24,733667	0,5	-0,602350
24,742000	0,5	-0,586850
24,750333	0,5	-0,613550
24,758667	0,5	-0,613250
24,767000	0,5	-0,599650
24,775333	0,5	-0,578150
24,783667	0,5	-0,557550
24,792000	0,5	-0,546000
24,800333	0,5	-0,542100
24,808667	0,5	-0,542500
24,817000	0,5	-0,540150
24,825333	0,5	-0,535250
24,833667	0,5	-0,530150
24,842000	0,5	-0,522050
24,850333	0,5	-0,515150
24,858667	0,5	-0,508150
24,867000	0,5	-0,500400
24,875333	0,5	-0,494450
24,883667	0,5	-0,486200
24,892000	0,5	-0,479500
24,900333	0,5	-0,503100
24,908667	0,5	-0,493350
24,917000	0,5	-0,478600
24,925333	0,5	-0,463050
24,933667	0,5	-0,448700
24,942000	0,5	-0,441500
24,950333	0,5	-0,433950
24,958667	0,5	-0,437550
24,967000	0,5	-0,431000
24,975333	0,5	-0,423550
24,983667	0,5	-0,414900
24,992000	0,5	-0,406450
25,000333	0,5	-0,403300
25,008667	0,5	-0,395050
25,017000	0,5	-0,389750
25,025333	0,5	-0,377900
25,033667	0,5	-0,374850
25,042000	0,5	-0,370150
25,050333	0,5	-0,381100
25,058667	0,5	-0,372350
25,067000	0,5	-0,368700
25,075333	0,5	-0,359900
25,083667	0,5	-0,351000
25,092000	0,5	-0,348750
25,100333	0,5	-0,352250
25,108667	0,5	-0,351050
25,117000	0,5	-0,347100
25,125333	0,5	-0,342850
25,133667	0,5	-0,338500
25,142000	0,5	-0,330950
25,150333	0,5	-0,324950
25,158667	0,5	-0,319450
25,167000	0,5	-0,309450
25,175333	0,5	-0,304750
25,183667	0,5	-0,298250
25,192000	0,5	-0,295600
25,200333	0,5	-0,291600
25,208667	0,5	-0,288650
25,217000	0,5	-0,280550
25,225333	0,5	-0,273900
25,233667	0,5	-0,268550
25,242000	0,5	-0,268600
25,250333	0,5	-0,269850
25,258667	0,5	-0,269200
25,267000	0,5	-0,263600
25,275333	0,5	-0,263500
25,283667	0,5	-0,263200
25,292000	0,5	-0,260500
25,300333	0,5	-0,258100
25,308667	0,5	-0,255150
25,317000	0,5	-0,251350
25,325333	0,5	-0,248600
25,333667	0,5	-0,247200
25,342000	0,5	-0,244050
25,350333	0,5	-0,237050
25,358667	0,5	-0,231850
25,367000	0,5	-0,230400
25,375333	0,5	-0,226400
25,383667	0,5	-0,223950
25,392000	0,5	-0,222750
25,400333	0,5	-0,218550
25,408667	0,5	-0,217200
25,417000	0,5	-0,211650
25,425333	0,5	-0,210100
25,433667	0,5	-0,208300
25,442000	0,5	-0,207050
25,450333	0,5	-0,206400
25,458667	0,5	-0,202200
25,467000	0,5	-0,199600
25,475333	0,5	-0,198200
25,483667	0,5	-0,197300
25,492000	0,5	-0,192450
25,500333	0,5	-0,192100
25,508667	0,5	-0,187650
25,517000	0,5	-0,192500
25,525333	0,5	-0,191750
25,533667	0,5	-0,190600
25,542000	0,5	-0,188400
25,550333	0,5	-0,184000
25,558667	0,5	-0,183000
25,567000	0,5	-0,184200
25,575333	0,5	-0,176850
25,583667	0,5	-0,178800
25,592000	0,5	-0,172850
25,600333	0,5	-0,173650
25,608667	0,5	-0,168450
25,617000	0,5	-0,167600
25,625333	0,5	-0,163900
25,633667	0,5	-0,156700
25,642000	0,5	-0,153500
25,650333	0,5	-0,150200
25,658667	0,5	-0,153300
25,667000	0,5	-0,158650
25,675333	0,5	-0,156750
25,683667	0,5	-0,155550
25,692000	0,5	-0,153700
25,700333	0,5	-0,149850
25,708667	0,5	-0,155450
25,717000	0,5	-0,153150
25,725333	0,5	-0,151350
25,733667	0,5	-0,148450
25,742000	0,5	-0,148950
25,750333	0,5	-0,146350
25,758667	0,5	-0,148200
25,767000	0,5	-0,146450
25,775333	0,5	-0,141200
25,783667	0,5	-0,127000
25,792000	0,5	-0,130750
25,800333	0,5	-0,123600
25,808667	0,5	-0,129900
25,817000	0,5	-0,129300
25,825333	0,5	-0,129350
25,833667	0,5	-0,125600
25,842000	0,5	-0,118350
25,850333	0,5	-0,117200
25,858667	0,5	-0,120350
25,867000	0,5	-0,118350
25,875333	0,5	-0,117600
25,883667	0,5	-0,117050
25,892000	0,5	-0,118550
25,900333	0,5	-0,118700
25,908667	0,5	-0,116400
25,917000	0,5	-0,117050
25,925333	0,5	-0,112100
25,933667	0,5	-0,102050
25,942000	0,5	-0,098650
25,950333	0,5	-0,100400
25,958667	0,5	-0,105850
25,967000	0,5	-0,105200
25,975333	0,5	-0,100050
25,983667	0,5	-0,094800
25,992000	0,5	-0,083000
26,000333	0,5	-0,079200
