File Path	chrom://chromeleon01/ikbm_chromeleon/2022/ICS-5000/ED1/Esteban/20220612_Cell_7_4_eg.seq/429.smp/ED_1.channel/ED_1.chm
Channel	ED_1

Injection Information:
Data Vault	ikbm_chromeleon
Injection	CelS2_24h-NT_2
Injection Number	47
Position	RE8
Comment	
Processing Method	Stop sequence after Cell Death
Instrument Method	ICS5000_PA200_FullNative_Ox_26min_ED1
Type	Unknown
Status	Finished
Injection Date	13.06.2022
Injection Time	13:58:23
Injection Volume (µl)	5,0
Dilution Factor	1,0000
Weight	1,0000

Chromatogram Data Information:
Time Min. (min)	0,000167
Time Max. (min)	26,000167
Data Points	3121
Detector	EDet1
Generating Data System	Chromeleon 7.2.9.11323
Exporting Data System	Chromeleon 7.2.9.0
Operator	Instrument Controller
Signal Quantity	
Signal Unit	nC
Signal Min.	-1,857050
Signal Max.	110,548602
Channel	ED_1
Driver Name	DC-5000
Channel Type	Evaluation
Min. Step (s)	0,5
Max. Step (s)	0,5
Average Step (s)	0,5

Signal Parameter Information:
Signal Info	

Chromatogram Data:
Time (min)	Step (s)	Value (nC)
0,000167	n.a.	-0,004850
0,008500	0,5	-0,031600
0,016833	0,5	-0,029100
0,025167	0,5	-0,013500
0,033500	0,5	-0,011650
0,041833	0,5	-0,004600
0,050167	0,5	-0,000500
0,058500	0,5	0,008250
0,066833	0,5	-0,003650
0,075167	0,5	0,004100
0,083500	0,5	0,004600
0,091833	0,5	-0,009250
0,100167	0,5	-0,014550
0,108500	0,5	0,019350
0,116833	0,5	-0,006450
0,125167	0,5	-0,009550
0,133500	0,5	-0,001100
0,141833	0,5	0,005000
0,150167	0,5	0,034550
0,158500	0,5	0,018000
0,166833	0,5	0,017000
0,175167	0,5	0,015000
0,183500	0,5	0,019700
0,191833	0,5	0,012250
0,200167	0,5	0,017500
0,208500	0,5	0,008500
0,216833	0,5	0,011750
0,225167	0,5	0,010600
0,233500	0,5	0,009950
0,241833	0,5	-0,009850
0,250167	0,5	0,003200
0,258500	0,5	0,008950
0,266833	0,5	-0,006450
0,275167	0,5	-0,012800
0,283500	0,5	-0,005850
0,291833	0,5	0,011150
0,300167	0,5	0,039450
0,308500	0,5	0,031750
0,316833	0,5	0,020200
0,325167	0,5	0,008350
0,333500	0,5	0,004750
0,341833	0,5	0,006900
0,350167	0,5	0,005200
0,358500	0,5	0,005350
0,366833	0,5	-0,001850
0,375167	0,5	0,006900
0,383500	0,5	-0,001350
0,391833	0,5	-0,006600
0,400167	0,5	-0,001750
0,408500	0,5	-0,001500
0,416833	0,5	-0,015300
0,425167	0,5	-0,013350
0,433500	0,5	-0,003950
0,441833	0,5	0,014800
0,450167	0,5	0,020550
0,458500	0,5	0,010150
0,466833	0,5	0,005450
0,475167	0,5	0,009500
0,483500	0,5	0,005300
0,491833	0,5	0,005600
0,500167	0,5	0,001550
0,508500	0,5	-0,000950
0,516833	0,5	-0,001350
0,525167	0,5	-0,005350
0,533500	0,5	0,007700
0,541833	0,5	-0,005950
0,550167	0,5	0,009650
0,558500	0,5	-0,006550
0,566833	0,5	-0,008000
0,575167	0,5	-0,010350
0,583500	0,5	0,001900
0,591833	0,5	0,013950
0,600167	0,5	0,023950
0,608500	0,5	0,017250
0,616833	0,5	0,021450
0,625167	0,5	0,019750
0,633500	0,5	0,027700
0,641833	0,5	0,016250
0,650167	0,5	0,017600
0,658500	0,5	0,011350
0,666833	0,5	0,014100
0,675167	0,5	0,015450
0,683500	0,5	0,001050
0,691833	0,5	0,005900
0,700167	0,5	0,021750
0,708500	0,5	0,004350
0,716833	0,5	0,001350
0,725167	0,5	0,009700
0,733500	0,5	0,023800
0,741833	0,5	0,040050
0,750167	0,5	0,036950
0,758500	0,5	0,041450
0,766833	0,5	0,032950
0,775167	0,5	0,034500
0,783500	0,5	0,031250
0,791833	0,5	0,035350
0,800167	0,5	0,026300
0,808500	0,5	0,026850
0,816833	0,5	0,033950
0,825167	0,5	0,031050
0,833500	0,5	0,023600
0,841833	0,5	0,041550
0,850167	0,5	0,035850
0,858500	0,5	0,027200
0,866833	0,5	0,025500
0,875167	0,5	0,030100
0,883500	0,5	0,047200
0,891833	0,5	0,049350
0,900167	0,5	0,058450
0,908500	0,5	0,050300
0,916833	0,5	0,062400
0,925167	0,5	0,052400
0,933500	0,5	0,058500
0,941833	0,5	0,049000
0,950167	0,5	0,051600
0,958500	0,5	0,048050
0,966833	0,5	0,052650
0,975167	0,5	0,053100
0,983500	0,5	0,050950
0,991833	0,5	0,068200
1,000167	0,5	0,054550
1,008500	0,5	0,047400
1,016833	0,5	0,051250
1,025167	0,5	0,049950
1,033500	0,5	0,072900
1,041833	0,5	0,075700
1,050167	0,5	0,064450
1,058500	0,5	0,072000
1,066833	0,5	0,066400
1,075167	0,5	0,068950
1,083500	0,5	0,068500
1,091833	0,5	0,071650
1,100167	0,5	0,069500
1,108500	0,5	0,081300
1,116833	0,5	0,074400
1,125167	0,5	0,072300
1,133500	0,5	0,064450
1,141833	0,5	0,090100
1,150167	0,5	0,067350
1,158500	0,5	0,066500
1,166833	0,5	0,070550
1,175167	0,5	0,075300
1,183500	0,5	0,091650
1,191833	0,5	0,086750
1,200167	0,5	0,087550
1,208500	0,5	0,088000
1,216833	0,5	0,090050
1,225167	0,5	0,087000
1,233500	0,5	0,086700
1,241833	0,5	0,079400
1,250167	0,5	0,081150
1,258500	0,5	0,080850
1,266833	0,5	0,082500
1,275167	0,5	0,072000
1,283500	0,5	0,078350
1,291833	0,5	0,087050
1,300167	0,5	0,072300
1,308500	0,5	0,068100
1,316833	0,5	0,072250
1,325167	0,5	0,079600
1,333500	0,5	0,094300
1,341833	0,5	0,087850
1,350167	0,5	0,087200
1,358500	0,5	0,080300
1,366833	0,5	0,079300
1,375167	0,5	0,074150
1,383500	0,5	0,075100
1,391833	0,5	0,074250
1,400167	0,5	0,070750
1,408500	0,5	0,070550
1,416833	0,5	0,066550
1,425167	0,5	0,059500
1,433500	0,5	0,060650
1,441833	0,5	0,058900
1,450167	0,5	0,042350
1,458500	0,5	0,042100
1,466833	0,5	0,047250
1,475167	0,5	0,060850
1,483500	0,5	0,069150
1,491833	0,5	0,064700
1,500167	0,5	0,048450
1,508500	0,5	0,051300
1,516833	0,5	0,040500
1,525167	0,5	0,039350
1,533500	0,5	0,030250
1,541833	0,5	0,024550
1,550167	0,5	0,014700
1,558500	0,5	-0,019500
1,566833	0,5	-0,152200
1,575167	0,5	-0,527100
1,583500	0,5	-1,106850
1,591833	0,5	-1,528950
1,600167	0,5	-1,314650
1,608500	0,5	-0,356950
1,616833	0,5	1,274900
1,625167	0,5	3,458800
1,633500	0,5	5,627350
1,641833	0,5	6,899800
1,650167	0,5	6,955350
1,658500	0,5	6,181650
1,666833	0,5	5,254300
1,675167	0,5	4,546650
1,683500	0,5	4,168350
1,691833	0,5	4,084950
1,700167	0,5	4,330400
1,708500	0,5	4,856250
1,716833	0,5	5,352450
1,725167	0,5	5,451100
1,733500	0,5	5,113600
1,741833	0,5	4,596700
1,750167	0,5	4,230850
1,758500	0,5	4,187450
1,766833	0,5	4,526500
1,775167	0,5	5,059400
1,783500	0,5	5,500600
1,791833	0,5	5,699750
1,800167	0,5	5,634000
1,808500	0,5	5,394500
1,816833	0,5	5,064050
1,825167	0,5	4,728550
1,833500	0,5	4,383100
1,841833	0,5	4,071200
1,850167	0,5	3,791200
1,858500	0,5	3,569900
1,866833	0,5	3,418650
1,875167	0,5	3,371150
1,883500	0,5	3,315650
1,891833	0,5	3,209900
1,900167	0,5	3,082500
1,908500	0,5	3,045450
1,916833	0,5	3,285050
1,925167	0,5	4,069900
1,933500	0,5	5,810550
1,941833	0,5	8,561050
1,950167	0,5	11,317100
1,958500	0,5	12,601750
1,966833	0,5	12,062650
1,975167	0,5	10,491400
1,983500	0,5	8,719050
1,991833	0,5	7,223800
2,000167	0,5	6,320400
2,008500	0,5	6,144800
2,016833	0,5	6,615650
2,025167	0,5	7,291500
2,033500	0,5	7,642000
2,041833	0,5	7,679200
2,050167	0,5	7,551750
2,058500	0,5	7,203250
2,066833	0,5	6,688250
2,075167	0,5	6,101250
2,083500	0,5	5,512100
2,091833	0,5	4,921650
2,100167	0,5	4,402150
2,108500	0,5	4,010550
2,116833	0,5	3,746850
2,125167	0,5	3,580400
2,133500	0,5	3,477900
2,141833	0,5	3,436950
2,150167	0,5	3,451500
2,158500	0,5	3,506450
2,166833	0,5	3,529000
2,175167	0,5	3,524800
2,183500	0,5	3,443400
2,191833	0,5	3,387050
2,200167	0,5	3,361500
2,208500	0,5	3,386300
2,216833	0,5	3,451800
2,225167	0,5	3,526900
2,233500	0,5	3,625550
2,241833	0,5	3,759800
2,250167	0,5	3,906150
2,258500	0,5	4,080600
2,266833	0,5	4,301900
2,275167	0,5	4,548050
2,283500	0,5	4,747150
2,291833	0,5	4,815850
2,300167	0,5	4,757250
2,308500	0,5	4,644600
2,316833	0,5	4,611350
2,325167	0,5	4,652150
2,333500	0,5	4,709650
2,341833	0,5	4,778300
2,350167	0,5	4,855800
2,358500	0,5	4,960500
2,366833	0,5	5,140850
2,375167	0,5	5,394650
2,383500	0,5	5,847050
2,391833	0,5	6,606700
2,400167	0,5	7,833950
2,408500	0,5	9,426150
2,416833	0,5	10,959250
2,425167	0,5	11,871700
2,433500	0,5	11,988300
2,441833	0,5	11,577700
2,450167	0,5	11,104350
2,458500	0,5	10,983300
2,466833	0,5	11,505850
2,475167	0,5	12,936050
2,483500	0,5	15,941000
2,491833	0,5	22,003400
2,500167	0,5	33,277250
2,508500	0,5	50,935651
2,516833	0,5	71,834651
2,525167	0,5	88,090901
2,533500	0,5	92,401951
2,541833	0,5	84,024851
2,550167	0,5	68,364401
2,558500	0,5	52,066101
2,566833	0,5	39,107701
2,575167	0,5	30,483950
2,583500	0,5	25,433100
2,591833	0,5	22,599850
2,600167	0,5	20,654750
2,608500	0,5	18,738250
2,616833	0,5	16,623250
2,625167	0,5	14,485950
2,633500	0,5	12,606200
2,641833	0,5	11,121350
2,650167	0,5	10,022300
2,658500	0,5	9,223300
2,666833	0,5	8,639350
2,675167	0,5	8,188450
2,683500	0,5	7,846150
2,691833	0,5	7,572500
2,700167	0,5	7,348950
2,708500	0,5	7,148600
2,716833	0,5	6,980350
2,725167	0,5	6,851700
2,733500	0,5	6,790800
2,741833	0,5	6,779850
2,750167	0,5	6,800650
2,758500	0,5	6,791350
2,766833	0,5	6,703850
2,775167	0,5	6,492450
2,783500	0,5	6,230200
2,791833	0,5	5,954850
2,800167	0,5	5,722250
2,808500	0,5	5,537550
2,816833	0,5	5,404450
2,825167	0,5	5,342850
2,833500	0,5	5,366500
2,841833	0,5	5,512550
2,850167	0,5	5,817200
2,858500	0,5	6,269150
2,866833	0,5	6,745650
2,875167	0,5	7,081150
2,883500	0,5	7,103300
2,891833	0,5	6,789000
2,900167	0,5	6,239150
2,908500	0,5	5,646300
2,916833	0,5	5,096350
2,925167	0,5	4,663400
2,933500	0,5	4,333250
2,941833	0,5	4,094550
2,950167	0,5	3,905850
2,958500	0,5	3,737100
2,966833	0,5	3,580100
2,975167	0,5	3,445000
2,983500	0,5	3,316550
2,991833	0,5	3,204050
3,000167	0,5	3,093900
3,008500	0,5	2,996150
3,016833	0,5	2,905500
3,025167	0,5	2,817350
3,033500	0,5	2,736350
3,041833	0,5	2,652600
3,050167	0,5	2,568150
3,058500	0,5	2,512100
3,066833	0,5	2,431700
3,075167	0,5	2,363000
3,083500	0,5	2,304450
3,091833	0,5	2,242900
3,100167	0,5	2,198300
3,108500	0,5	2,125600
3,116833	0,5	2,059900
3,125167	0,5	1,987700
3,133500	0,5	1,928950
3,141833	0,5	1,865550
3,150167	0,5	1,817200
3,158500	0,5	1,767150
3,166833	0,5	1,722500
3,175167	0,5	1,680600
3,183500	0,5	1,642550
3,191833	0,5	1,620350
3,200167	0,5	1,589800
3,208500	0,5	1,596700
3,216833	0,5	1,589900
3,225167	0,5	1,625700
3,233500	0,5	1,719100
3,241833	0,5	1,906150
3,250167	0,5	2,214550
3,258500	0,5	2,630100
3,266833	0,5	3,127000
3,275167	0,5	3,631900
3,283500	0,5	3,988600
3,291833	0,5	4,106250
3,300167	0,5	3,931200
3,308500	0,5	3,530100
3,316833	0,5	3,000650
3,325167	0,5	2,471550
3,333500	0,5	2,021850
3,341833	0,5	1,662850
3,350167	0,5	1,407950
3,358500	0,5	1,234350
3,366833	0,5	1,095550
3,375167	0,5	1,006550
3,383500	0,5	0,946600
3,391833	0,5	0,904900
3,400167	0,5	0,887150
3,408500	0,5	0,850400
3,416833	0,5	0,831950
3,425167	0,5	0,807600
3,433500	0,5	0,793750
3,441833	0,5	0,769850
3,450167	0,5	0,749550
3,458500	0,5	0,719200
3,466833	0,5	0,696750
3,475167	0,5	0,669350
3,483500	0,5	0,639050
3,491833	0,5	0,610500
3,500167	0,5	0,599950
3,508500	0,5	0,575250
3,516833	0,5	0,562200
3,525167	0,5	0,561200
3,533500	0,5	0,568650
3,541833	0,5	0,588750
3,550167	0,5	0,610550
3,558500	0,5	0,630500
3,566833	0,5	0,663550
3,575167	0,5	0,718450
3,583500	0,5	0,804450
3,591833	0,5	0,942150
3,600167	0,5	1,133250
3,608500	0,5	1,403150
3,616833	0,5	1,745750
3,625167	0,5	2,174600
3,633500	0,5	2,692300
3,641833	0,5	3,310800
3,650167	0,5	4,075750
3,658500	0,5	5,079800
3,666833	0,5	6,457850
3,675167	0,5	8,374000
3,683500	0,5	10,894750
3,691833	0,5	13,936000
3,700167	0,5	17,169100
3,708500	0,5	20,098900
3,716833	0,5	22,200200
3,725167	0,5	23,050500
3,733500	0,5	22,501900
3,741833	0,5	20,688900
3,750167	0,5	18,001000
3,758500	0,5	14,907500
3,766833	0,5	11,851400
3,775167	0,5	9,127450
3,783500	0,5	6,897000
3,791833	0,5	5,188750
3,800167	0,5	3,947100
3,808500	0,5	3,057950
3,816833	0,5	2,464350
3,825167	0,5	2,063200
3,833500	0,5	1,807250
3,841833	0,5	1,637200
3,850167	0,5	1,526250
3,858500	0,5	1,463500
3,866833	0,5	1,449550
3,875167	0,5	1,480300
3,883500	0,5	1,564700
3,891833	0,5	1,686200
3,900167	0,5	1,815900
3,908500	0,5	1,941850
3,916833	0,5	2,029350
3,925167	0,5	2,063000
3,933500	0,5	1,999200
3,941833	0,5	1,893850
3,950167	0,5	1,704450
3,958500	0,5	1,486900
3,966833	0,5	1,268750
3,975167	0,5	1,070800
3,983500	0,5	0,904600
3,991833	0,5	0,765100
4,000167	0,5	0,641400
4,008500	0,5	0,552150
4,016833	0,5	0,479400
4,025167	0,5	0,424300
4,033500	0,5	0,374200
4,041833	0,5	0,336550
4,050167	0,5	0,304350
4,058500	0,5	0,277550
4,066833	0,5	0,261300
4,075167	0,5	0,241450
4,083500	0,5	0,227050
4,091833	0,5	0,235800
4,100167	0,5	0,216900
4,108500	0,5	0,207100
4,116833	0,5	0,205900
4,125167	0,5	0,203550
4,133500	0,5	0,215250
4,141833	0,5	0,205900
4,150167	0,5	0,202650
4,158500	0,5	0,196250
4,166833	0,5	0,197000
4,175167	0,5	0,189500
4,183500	0,5	0,192450
4,191833	0,5	0,185700
4,200167	0,5	0,185250
4,208500	0,5	0,185600
4,216833	0,5	0,192450
4,225167	0,5	0,195350
4,233500	0,5	0,193250
4,241833	0,5	0,204050
4,250167	0,5	0,195250
4,258500	0,5	0,194550
4,266833	0,5	0,198550
4,275167	0,5	0,215750
4,283500	0,5	0,243450
4,291833	0,5	0,258000
4,300167	0,5	0,270450
4,308500	0,5	0,303750
4,316833	0,5	0,333200
4,325167	0,5	0,372250
4,333500	0,5	0,409200
4,341833	0,5	0,451600
4,350167	0,5	0,489200
4,358500	0,5	0,543250
4,366833	0,5	0,604800
4,375167	0,5	0,675300
4,383500	0,5	0,775250
4,391833	0,5	0,919400
4,400167	0,5	1,102450
4,408500	0,5	1,382100
4,416833	0,5	1,772650
4,425167	0,5	2,289950
4,433500	0,5	2,931600
4,441833	0,5	3,640900
4,450167	0,5	4,375000
4,458500	0,5	5,041650
4,466833	0,5	5,549350
4,475167	0,5	5,827800
4,483500	0,5	5,846800
4,491833	0,5	5,604700
4,500167	0,5	5,166450
4,508500	0,5	4,592100
4,516833	0,5	3,959650
4,525167	0,5	3,333300
4,533500	0,5	2,770250
4,541833	0,5	2,269400
4,550167	0,5	1,858350
4,558500	0,5	1,534800
4,566833	0,5	1,287750
4,575167	0,5	1,110450
4,583500	0,5	0,974050
4,591833	0,5	0,863550
4,600167	0,5	0,776600
4,608500	0,5	0,719700
4,616833	0,5	0,673450
4,625167	0,5	0,641750
4,633500	0,5	0,616500
4,641833	0,5	0,609350
4,650167	0,5	0,604050
4,658500	0,5	0,608600
4,666833	0,5	0,605150
4,675167	0,5	0,618800
4,683500	0,5	0,625850
4,691833	0,5	0,614350
4,700167	0,5	0,597350
4,708500	0,5	0,576350
4,716833	0,5	0,547500
4,725167	0,5	0,522200
4,733500	0,5	0,486500
4,741833	0,5	0,453600
4,750167	0,5	0,410950
4,758500	0,5	0,376150
4,766833	0,5	0,343300
4,775167	0,5	0,322350
4,783500	0,5	0,298600
4,791833	0,5	0,279050
4,800167	0,5	0,265650
4,808500	0,5	0,257200
4,816833	0,5	0,249200
4,825167	0,5	0,250450
4,833500	0,5	0,254750
4,841833	0,5	0,242100
4,850167	0,5	0,239600
4,858500	0,5	0,240700
4,866833	0,5	0,249750
4,875167	0,5	0,254050
4,883500	0,5	0,252700
4,891833	0,5	0,242200
4,900167	0,5	0,242600
4,908500	0,5	0,231400
4,916833	0,5	0,224950
4,925167	0,5	0,214700
4,933500	0,5	0,207650
4,941833	0,5	0,198850
4,950167	0,5	0,193950
4,958500	0,5	0,188200
4,966833	0,5	0,186400
4,975167	0,5	0,192700
4,983500	0,5	0,184900
4,991833	0,5	0,180000
5,000167	0,5	0,173700
5,008500	0,5	0,177400
5,016833	0,5	0,188550
5,025167	0,5	0,191350
5,033500	0,5	0,190700
5,041833	0,5	0,197250
5,050167	0,5	0,201050
5,058500	0,5	0,209500
5,066833	0,5	0,220350
5,075167	0,5	0,239100
5,083500	0,5	0,256000
5,091833	0,5	0,284700
5,100167	0,5	0,315100
5,108500	0,5	0,353800
5,116833	0,5	0,382450
5,125167	0,5	0,431150
5,133500	0,5	0,439050
5,141833	0,5	0,450350
5,150167	0,5	0,459250
5,158500	0,5	0,459100
5,166833	0,5	0,470200
5,175167	0,5	0,461300
5,183500	0,5	0,452900
5,191833	0,5	0,447400
5,200167	0,5	0,443550
5,208500	0,5	0,430550
5,216833	0,5	0,421300
5,225167	0,5	0,403750
5,233500	0,5	0,383350
5,241833	0,5	0,361100
5,250167	0,5	0,339800
5,258500	0,5	0,314700
5,266833	0,5	0,296400
5,275167	0,5	0,284450
5,283500	0,5	0,258050
5,291833	0,5	0,239550
5,300167	0,5	0,223050
5,308500	0,5	0,217150
5,316833	0,5	0,215550
5,325167	0,5	0,201600
5,333500	0,5	0,190900
5,341833	0,5	0,181100
5,350167	0,5	0,177850
5,358500	0,5	0,176700
5,366833	0,5	0,179300
5,375167	0,5	0,182100
5,383500	0,5	0,180800
5,391833	0,5	0,189100
5,400167	0,5	0,189550
5,408500	0,5	0,195900
5,416833	0,5	0,191750
5,425167	0,5	0,193050
5,433500	0,5	0,177550
5,441833	0,5	0,170200
5,450167	0,5	0,163750
5,458500	0,5	0,165850
5,466833	0,5	0,168950
5,475167	0,5	0,160900
5,483500	0,5	0,152100
5,491833	0,5	0,144900
5,500167	0,5	0,140950
5,508500	0,5	0,134700
5,516833	0,5	0,126450
5,525167	0,5	0,119600
5,533500	0,5	0,112400
5,541833	0,5	0,108750
5,550167	0,5	0,105050
5,558500	0,5	0,099250
5,566833	0,5	0,105550
5,575167	0,5	0,094200
5,583500	0,5	0,087400
5,591833	0,5	0,087850
5,600167	0,5	0,092300
5,608500	0,5	0,099150
5,616833	0,5	0,108800
5,625167	0,5	0,108850
5,633500	0,5	0,115250
5,641833	0,5	0,115450
5,650167	0,5	0,121750
5,658500	0,5	0,131850
5,666833	0,5	0,142150
5,675167	0,5	0,160400
5,683500	0,5	0,177550
5,691833	0,5	0,203000
5,700167	0,5	0,218900
5,708500	0,5	0,239050
5,716833	0,5	0,262300
5,725167	0,5	0,265600
5,733500	0,5	0,261250
5,741833	0,5	0,254100
5,750167	0,5	0,244650
5,758500	0,5	0,236600
5,766833	0,5	0,221800
5,775167	0,5	0,215450
5,783500	0,5	0,201800
5,791833	0,5	0,201900
5,800167	0,5	0,204100
5,808500	0,5	0,212450
5,816833	0,5	0,223500
5,825167	0,5	0,223950
5,833500	0,5	0,278750
5,841833	0,5	0,321650
5,850167	0,5	0,394100
5,858500	0,5	0,502950
5,866833	0,5	0,649300
5,875167	0,5	0,821700
5,883500	0,5	1,022800
5,891833	0,5	1,231800
5,900167	0,5	1,432300
5,908500	0,5	1,573100
5,916833	0,5	1,646000
5,925167	0,5	1,626100
5,933500	0,5	1,534700
5,941833	0,5	1,377700
5,950167	0,5	1,188500
5,958500	0,5	0,989000
5,966833	0,5	0,810600
5,975167	0,5	0,655050
5,983500	0,5	0,545850
5,991833	0,5	0,472850
6,000167	0,5	0,438050
6,008500	0,5	0,452950
6,016833	0,5	0,491600
6,025167	0,5	0,562350
6,033500	0,5	0,665250
6,041833	0,5	0,777200
6,050167	0,5	0,904250
6,058500	0,5	1,012500
6,066833	0,5	1,093650
6,075167	0,5	1,155950
6,083500	0,5	1,194500
6,091833	0,5	1,223150
6,100167	0,5	1,239800
6,108500	0,5	1,258250
6,116833	0,5	1,269600
6,125167	0,5	1,269400
6,133500	0,5	1,243300
6,141833	0,5	1,189900
6,150167	0,5	1,098450
6,158500	0,5	1,002800
6,166833	0,5	0,863200
6,175167	0,5	0,735800
6,183500	0,5	0,612350
6,191833	0,5	0,506950
6,200167	0,5	0,423700
6,208500	0,5	0,348500
6,216833	0,5	0,295550
6,225167	0,5	0,254700
6,233500	0,5	0,222400
6,241833	0,5	0,198100
6,250167	0,5	0,180200
6,258500	0,5	0,163600
6,266833	0,5	0,152400
6,275167	0,5	0,136700
6,283500	0,5	0,130550
6,291833	0,5	0,120550
6,300167	0,5	0,117250
6,308500	0,5	0,114300
6,316833	0,5	0,104850
6,325167	0,5	0,102550
6,333500	0,5	0,099950
6,341833	0,5	0,100950
6,350167	0,5	0,112900
6,358500	0,5	0,111450
6,366833	0,5	0,113100
6,375167	0,5	0,119400
6,383500	0,5	0,123400
6,391833	0,5	0,133550
6,400167	0,5	0,147300
6,408500	0,5	0,167350
6,416833	0,5	0,192450
6,425167	0,5	0,229600
6,433500	0,5	0,267850
6,441833	0,5	0,313050
6,450167	0,5	0,362800
6,458500	0,5	0,399500
6,466833	0,5	0,420150
6,475167	0,5	0,428400
6,483500	0,5	0,427100
6,491833	0,5	0,415100
6,500167	0,5	0,396150
6,508500	0,5	0,374850
6,516833	0,5	0,348150
6,525167	0,5	0,330150
6,533500	0,5	0,316100
6,541833	0,5	0,314900
6,550167	0,5	0,318050
6,558500	0,5	0,327250
6,566833	0,5	0,346450
6,575167	0,5	0,370850
6,583500	0,5	0,400900
6,591833	0,5	0,429100
6,600167	0,5	0,469700
6,608500	0,5	0,497050
6,616833	0,5	0,529850
6,625167	0,5	0,564600
6,633500	0,5	0,607450
6,641833	0,5	0,659150
6,650167	0,5	0,715300
6,658500	0,5	0,764750
6,666833	0,5	0,826700
6,675167	0,5	0,896850
6,683500	0,5	0,975400
6,691833	0,5	1,064350
6,700167	0,5	1,176550
6,708500	0,5	1,305300
6,716833	0,5	1,454800
6,725167	0,5	1,630400
6,733500	0,5	1,833350
6,741833	0,5	2,086100
6,750167	0,5	2,418200
6,758500	0,5	2,859650
6,766833	0,5	3,499900
6,775167	0,5	4,442350
6,783500	0,5	5,828400
6,791833	0,5	7,811700
6,800167	0,5	10,495700
6,808500	0,5	13,913100
6,816833	0,5	17,925900
6,825167	0,5	22,212850
6,833500	0,5	26,270250
6,841833	0,5	29,561050
6,850167	0,5	31,569100
6,858500	0,5	32,036600
6,866833	0,5	30,919850
6,875167	0,5	28,438600
6,883500	0,5	24,990400
6,891833	0,5	21,076100
6,900167	0,5	17,113250
6,908500	0,5	13,459300
6,916833	0,5	10,333500
6,925167	0,5	7,818250
6,933500	0,5	5,900800
6,941833	0,5	4,490800
6,950167	0,5	3,480400
6,958500	0,5	2,768300
6,966833	0,5	2,268000
6,975167	0,5	1,905450
6,983500	0,5	1,645250
6,991833	0,5	1,438750
7,000167	0,5	1,281700
7,008500	0,5	1,154400
7,016833	0,5	1,049000
7,025167	0,5	0,961600
7,033500	0,5	0,886250
7,041833	0,5	0,830600
7,050167	0,5	0,772650
7,058500	0,5	0,723550
7,066833	0,5	0,685000
7,075167	0,5	0,655850
7,083500	0,5	0,639050
7,091833	0,5	0,619950
7,100167	0,5	0,602900
7,108500	0,5	0,591050
7,116833	0,5	0,584050
7,125167	0,5	0,582200
7,133500	0,5	0,589500
7,141833	0,5	0,600100
7,150167	0,5	0,611300
7,158500	0,5	0,641950
7,166833	0,5	0,666750
7,175167	0,5	0,696000
7,183500	0,5	0,717400
7,191833	0,5	0,744350
7,200167	0,5	0,753450
7,208500	0,5	0,768250
7,216833	0,5	0,779200
7,225167	0,5	0,803400
7,233500	0,5	0,843150
7,241833	0,5	0,874450
7,250167	0,5	0,901650
7,258500	0,5	0,909550
7,266833	0,5	0,898800
7,275167	0,5	0,866450
7,283500	0,5	0,811450
7,291833	0,5	0,743600
7,300167	0,5	0,670200
7,308500	0,5	0,604500
7,316833	0,5	0,544500
7,325167	0,5	0,493000
7,333500	0,5	0,458300
7,341833	0,5	0,433950
7,350167	0,5	0,409850
7,358500	0,5	0,397550
7,366833	0,5	0,388750
7,375167	0,5	0,393950
7,383500	0,5	0,404050
7,391833	0,5	0,414450
7,400167	0,5	0,435300
7,408500	0,5	0,463650
7,416833	0,5	0,502300
7,425167	0,5	0,540350
7,433500	0,5	0,584600
7,441833	0,5	0,625000
7,450167	0,5	0,657050
7,458500	0,5	0,681800
7,466833	0,5	0,703500
7,475167	0,5	0,732500
7,483500	0,5	0,776150
7,491833	0,5	0,830900
7,500167	0,5	0,877350
7,508500	0,5	0,913800
7,516833	0,5	0,935200
7,525167	0,5	0,945600
7,533500	0,5	0,954150
7,541833	0,5	0,958750
7,550167	0,5	0,950300
7,558500	0,5	0,932300
7,566833	0,5	0,884200
7,575167	0,5	0,823350
7,583500	0,5	0,747950
7,591833	0,5	0,673450
7,600167	0,5	0,619500
7,608500	0,5	0,579900
7,616833	0,5	0,568100
7,625167	0,5	0,574450
7,633500	0,5	0,598350
7,641833	0,5	0,627800
7,650167	0,5	0,656250
7,658500	0,5	0,687750
7,666833	0,5	0,726650
7,675167	0,5	0,767550
7,683500	0,5	0,816700
7,691833	0,5	0,859200
7,700167	0,5	0,896150
7,708500	0,5	0,911200
7,716833	0,5	0,901200
7,725167	0,5	0,872100
7,733500	0,5	0,827850
7,741833	0,5	0,786050
7,750167	0,5	0,753500
7,758500	0,5	0,745600
7,766833	0,5	0,757300
7,775167	0,5	0,782700
7,783500	0,5	0,813500
7,791833	0,5	0,826100
7,800167	0,5	0,823600
7,808500	0,5	0,799500
7,816833	0,5	0,767050
7,825167	0,5	0,733050
7,833500	0,5	0,699700
7,841833	0,5	0,675500
7,850167	0,5	0,661500
7,858500	0,5	0,660200
7,866833	0,5	0,661450
7,875167	0,5	0,671800
7,883500	0,5	0,676100
7,891833	0,5	0,675850
7,900167	0,5	0,669150
7,908500	0,5	0,663050
7,916833	0,5	0,664750
7,925167	0,5	0,680650
7,933500	0,5	0,716650
7,941833	0,5	0,786500
7,950167	0,5	0,900950
7,958500	0,5	1,064550
7,966833	0,5	1,268550
7,975167	0,5	1,485900
7,983500	0,5	1,671500
7,991833	0,5	1,792550
8,000167	0,5	1,825300
8,008500	0,5	1,768950
8,016833	0,5	1,646950
8,025167	0,5	1,485200
8,033500	0,5	1,312750
8,041833	0,5	1,155600
8,050167	0,5	1,022400
8,058500	0,5	0,922650
8,066833	0,5	0,845300
8,075167	0,5	0,795700
8,083500	0,5	0,762150
8,091833	0,5	0,743600
8,100167	0,5	0,745900
8,108500	0,5	0,765200
8,116833	0,5	0,811300
8,125167	0,5	0,872900
8,133500	0,5	0,944400
8,141833	0,5	1,011100
8,150167	0,5	1,053350
8,158500	0,5	1,063500
8,166833	0,5	1,046450
8,175167	0,5	1,007150
8,183500	0,5	0,967550
8,191833	0,5	0,933500
8,200167	0,5	0,912300
8,208500	0,5	0,899450
8,216833	0,5	0,888900
8,225167	0,5	0,889600
8,233500	0,5	0,888250
8,241833	0,5	0,889100
8,250167	0,5	0,895900
8,258500	0,5	0,904350
8,266833	0,5	0,913550
8,275167	0,5	0,914450
8,283500	0,5	0,912600
8,291833	0,5	0,903200
8,300167	0,5	0,901300
8,308500	0,5	0,899500
8,316833	0,5	0,916150
8,325167	0,5	0,943850
8,333500	0,5	0,987000
8,341833	0,5	1,037400
8,350167	0,5	1,090500
8,358500	0,5	1,133850
8,366833	0,5	1,162450
8,375167	0,5	1,183600
8,383500	0,5	1,196850
8,391833	0,5	1,236200
8,400167	0,5	1,323550
8,408500	0,5	1,485400
8,416833	0,5	1,739800
8,425167	0,5	2,097650
8,433500	0,5	2,543450
8,441833	0,5	3,073100
8,450167	0,5	3,662750
8,458500	0,5	4,311550
8,466833	0,5	5,058150
8,475167	0,5	5,998900
8,483500	0,5	7,365950
8,491833	0,5	9,582700
8,500167	0,5	13,304650
8,508500	0,5	19,298600
8,516833	0,5	28,093800
8,525167	0,5	39,395401
8,533500	0,5	51,816901
8,541833	0,5	63,137101
8,550167	0,5	71,034901
8,558500	0,5	73,984351
8,566833	0,5	71,645901
8,575167	0,5	64,826151
8,583500	0,5	55,075751
8,591833	0,5	44,177551
8,600167	0,5	33,675601
8,608500	0,5	24,639300
8,616833	0,5	17,549350
8,625167	0,5	12,399800
8,633500	0,5	8,891500
8,641833	0,5	6,608900
8,650167	0,5	5,162650
8,658500	0,5	4,252000
8,666833	0,5	3,661550
8,675167	0,5	3,259050
8,683500	0,5	2,969650
8,691833	0,5	2,754600
8,700167	0,5	2,588650
8,708500	0,5	2,465450
8,716833	0,5	2,373600
8,725167	0,5	2,296750
8,733500	0,5	2,231300
8,741833	0,5	2,167600
8,750167	0,5	2,104650
8,758500	0,5	2,039050
8,766833	0,5	1,972450
8,775167	0,5	1,918500
8,783500	0,5	1,879300
8,791833	0,5	1,860650
8,800167	0,5	1,860400
8,808500	0,5	1,871400
8,816833	0,5	1,886500
8,825167	0,5	1,899150
8,833500	0,5	1,900500
8,841833	0,5	1,904600
8,850167	0,5	1,906250
8,858500	0,5	1,909850
8,866833	0,5	1,905700
8,875167	0,5	1,889000
8,883500	0,5	1,858250
8,891833	0,5	1,814800
8,900167	0,5	1,751300
8,908500	0,5	1,681400
8,916833	0,5	1,602800
8,925167	0,5	1,526750
8,933500	0,5	1,462950
8,941833	0,5	1,412450
8,950167	0,5	1,371950
8,958500	0,5	1,347750
8,966833	0,5	1,336000
8,975167	0,5	1,317150
8,983500	0,5	1,292600
8,991833	0,5	1,265650
9,000167	0,5	1,242850
9,008500	0,5	1,218850
9,016833	0,5	1,197950
9,025167	0,5	1,181400
9,033500	0,5	1,171050
9,041833	0,5	1,160150
9,050167	0,5	1,154450
9,058500	0,5	1,146300
9,066833	0,5	1,137600
9,075167	0,5	1,134300
9,083500	0,5	1,135600
9,091833	0,5	1,142250
9,100167	0,5	1,153950
9,108500	0,5	1,169800
9,116833	0,5	1,181700
9,125167	0,5	1,191300
9,133500	0,5	1,192100
9,141833	0,5	1,190950
9,150167	0,5	1,191750
9,158500	0,5	1,203700
9,166833	0,5	1,218200
9,175167	0,5	1,243450
9,183500	0,5	1,271650
9,191833	0,5	1,297800
9,200167	0,5	1,315350
9,208500	0,5	1,322500
9,216833	0,5	1,315250
9,225167	0,5	1,297950
9,233500	0,5	1,280850
9,241833	0,5	1,257400
9,250167	0,5	1,233550
9,258500	0,5	1,210200
9,266833	0,5	1,185550
9,275167	0,5	1,166150
9,283500	0,5	1,143450
9,291833	0,5	1,124400
9,300167	0,5	1,110950
9,308500	0,5	1,098500
9,316833	0,5	1,087850
9,325167	0,5	1,078000
9,333500	0,5	1,070200
9,341833	0,5	1,064450
9,350167	0,5	1,059750
9,358500	0,5	1,063050
9,366833	0,5	1,064000
9,375167	0,5	1,067200
9,383500	0,5	1,079600
9,391833	0,5	1,091500
9,400167	0,5	1,107450
9,408500	0,5	1,123750
9,416833	0,5	1,139450
9,425167	0,5	1,147350
9,433500	0,5	1,150050
9,441833	0,5	1,145700
9,450167	0,5	1,143150
9,458500	0,5	1,141050
9,466833	0,5	1,138750
9,475167	0,5	1,141750
9,483500	0,5	1,150800
9,491833	0,5	1,167550
9,500167	0,5	1,189300
9,508500	0,5	1,213750
9,516833	0,5	1,233500
9,525167	0,5	1,249400
9,533500	0,5	1,259750
9,541833	0,5	1,257100
9,550167	0,5	1,250250
9,558500	0,5	1,235800
9,566833	0,5	1,219600
9,575167	0,5	1,199000
9,583500	0,5	1,184300
9,591833	0,5	1,177700
9,600167	0,5	1,191300
9,608500	0,5	1,210100
9,616833	0,5	1,243500
9,625167	0,5	1,284500
9,633500	0,5	1,334450
9,641833	0,5	1,400900
9,650167	0,5	1,500250
9,658500	0,5	1,653150
9,666833	0,5	1,895200
9,675167	0,5	2,247800
9,683500	0,5	2,728650
9,691833	0,5	3,337050
9,700167	0,5	4,059450
9,708500	0,5	4,876550
9,716833	0,5	5,782700
9,725167	0,5	6,828900
9,733500	0,5	8,179900
9,741833	0,5	10,197500
9,750167	0,5	13,545050
9,758500	0,5	19,262000
9,766833	0,5	28,539600
9,775167	0,5	42,117251
9,783500	0,5	59,428101
9,791833	0,5	78,241501
9,800167	0,5	95,084101
9,808500	0,5	106,560952
9,816833	0,5	110,548602
9,825167	0,5	106,752802
9,833500	0,5	96,570351
9,841833	0,5	82,354801
9,850167	0,5	66,577501
9,858500	0,5	51,317701
9,866833	0,5	37,982151
9,875167	0,5	27,251200
9,883500	0,5	19,189000
9,891833	0,5	13,477500
9,900167	0,5	9,623150
9,908500	0,5	7,112450
9,916833	0,5	5,507650
9,925167	0,5	4,500400
9,933500	0,5	3,849400
9,941833	0,5	3,427150
9,950167	0,5	3,142200
9,958500	0,5	2,938450
9,966833	0,5	2,787750
9,975167	0,5	2,666450
9,983500	0,5	2,559600
9,991833	0,5	2,457700
10,000167	0,5	2,357900
10,008500	0,5	2,267150
10,016833	0,5	2,171350
10,025167	0,5	2,086250
10,033500	0,5	2,005700
10,041833	0,5	1,937100
10,050167	0,5	1,874600
10,058500	0,5	1,813200
10,066833	0,5	1,758400
10,075167	0,5	1,706850
10,083500	0,5	1,666700
10,091833	0,5	1,621100
10,100167	0,5	1,579350
10,108500	0,5	1,538350
10,116833	0,5	1,504800
10,125167	0,5	1,480650
10,133500	0,5	1,454600
10,141833	0,5	1,436850
10,150167	0,5	1,430950
10,158500	0,5	1,420050
10,166833	0,5	1,408650
10,175167	0,5	1,394150
10,183500	0,5	1,372850
10,191833	0,5	1,352450
10,200167	0,5	1,324900
10,208500	0,5	1,298400
10,216833	0,5	1,278950
10,225167	0,5	1,257850
10,233500	0,5	1,235650
10,241833	0,5	1,216750
10,250167	0,5	1,190400
10,258500	0,5	1,174250
10,266833	0,5	1,159900
10,275167	0,5	1,163850
10,283500	0,5	1,187950
10,291833	0,5	1,237450
10,300167	0,5	1,317200
10,308500	0,5	1,413200
10,316833	0,5	1,505650
10,325167	0,5	1,578950
10,333500	0,5	1,615600
10,341833	0,5	1,604350
10,350167	0,5	1,547700
10,358500	0,5	1,463400
10,366833	0,5	1,379450
10,375167	0,5	1,305350
10,383500	0,5	1,253900
10,391833	0,5	1,230300
10,400167	0,5	1,229850
10,408500	0,5	1,246500
10,416833	0,5	1,279700
10,425167	0,5	1,320500
10,433500	0,5	1,363750
10,441833	0,5	1,417200
10,450167	0,5	1,471900
10,458500	0,5	1,529450
10,466833	0,5	1,582150
10,475167	0,5	1,621400
10,483500	0,5	1,649650
10,491833	0,5	1,653300
10,500167	0,5	1,630950
10,508500	0,5	1,595400
10,516833	0,5	1,544800
10,525167	0,5	1,490000
10,533500	0,5	1,434800
10,541833	0,5	1,379750
10,550167	0,5	1,323000
10,558500	0,5	1,265200
10,566833	0,5	1,208500
10,575167	0,5	1,151400
10,583500	0,5	1,095600
10,591833	0,5	1,055900
10,600167	0,5	1,012350
10,608500	0,5	0,979150
10,616833	0,5	0,949350
10,625167	0,5	0,926450
10,633500	0,5	0,905150
10,641833	0,5	0,890500
10,650167	0,5	0,879050
10,658500	0,5	0,875000
10,666833	0,5	0,880550
10,675167	0,5	0,898550
10,683500	0,5	0,940950
10,691833	0,5	1,014650
10,700167	0,5	1,120500
10,708500	0,5	1,257400
10,716833	0,5	1,421950
10,725167	0,5	1,588300
10,733500	0,5	1,752750
10,741833	0,5	1,899450
10,750167	0,5	2,049750
10,758500	0,5	2,231950
10,766833	0,5	2,531450
10,775167	0,5	3,066000
10,783500	0,5	3,993050
10,791833	0,5	5,464050
10,800167	0,5	7,579050
10,808500	0,5	10,263450
10,816833	0,5	13,229450
10,825167	0,5	15,987850
10,833500	0,5	17,990900
10,841833	0,5	18,827100
10,850167	0,5	18,347000
10,858500	0,5	16,701400
10,866833	0,5	14,287650
10,875167	0,5	11,553600
10,883500	0,5	8,918950
10,891833	0,5	6,649650
10,900167	0,5	4,860100
10,908500	0,5	3,556050
10,916833	0,5	2,649750
10,925167	0,5	2,055750
10,933500	0,5	1,668800
10,941833	0,5	1,420550
10,950167	0,5	1,258700
10,958500	0,5	1,149450
10,966833	0,5	1,077050
10,975167	0,5	1,028950
10,983500	0,5	0,999450
10,991833	0,5	0,975400
11,000167	0,5	0,956850
11,008500	0,5	0,951300
11,016833	0,5	0,950100
11,025167	0,5	0,953450
11,033500	0,5	0,988250
11,041833	0,5	1,033650
11,050167	0,5	1,099000
11,058500	0,5	1,186300
11,066833	0,5	1,277800
11,075167	0,5	1,362900
11,083500	0,5	1,412400
11,091833	0,5	1,409450
11,100167	0,5	1,358050
11,108500	0,5	1,267450
11,116833	0,5	1,164050
11,125167	0,5	1,056050
11,133500	0,5	0,964250
11,141833	0,5	0,898050
11,150167	0,5	0,857100
11,158500	0,5	0,836100
11,166833	0,5	0,826850
11,175167	0,5	0,818400
11,183500	0,5	0,812900
11,191833	0,5	0,802750
11,200167	0,5	0,782500
11,208500	0,5	0,761950
11,216833	0,5	0,738300
11,225167	0,5	0,722800
11,233500	0,5	0,710400
11,241833	0,5	0,706100
11,250167	0,5	0,706200
11,258500	0,5	0,712450
11,266833	0,5	0,722400
11,275167	0,5	0,739200
11,283500	0,5	0,752700
11,291833	0,5	0,761700
11,300167	0,5	0,757850
11,308500	0,5	0,758000
11,316833	0,5	0,744450
11,325167	0,5	0,731350
11,333500	0,5	0,722500
11,341833	0,5	0,717050
11,350167	0,5	0,726250
11,358500	0,5	0,743450
11,366833	0,5	0,771450
11,375167	0,5	0,797850
11,383500	0,5	0,813650
11,391833	0,5	0,807550
11,400167	0,5	0,789800
11,408500	0,5	0,756150
11,416833	0,5	0,733550
11,425167	0,5	0,716800
11,433500	0,5	0,716950
11,441833	0,5	0,737650
11,450167	0,5	0,781900
11,458500	0,5	0,846950
11,466833	0,5	0,923200
11,475167	0,5	1,013750
11,483500	0,5	1,121000
11,491833	0,5	1,232900
11,500167	0,5	1,377550
11,508500	0,5	1,578750
11,516833	0,5	1,879550
11,525167	0,5	2,352400
11,533500	0,5	3,078900
11,541833	0,5	4,145550
11,550167	0,5	5,597900
11,558500	0,5	7,366000
11,566833	0,5	9,251250
11,575167	0,5	10,948650
11,583500	0,5	12,112350
11,591833	0,5	12,504450
11,600167	0,5	12,046750
11,608500	0,5	10,874350
11,616833	0,5	9,238450
11,625167	0,5	7,460350
11,633500	0,5	5,780200
11,641833	0,5	4,367700
11,650167	0,5	3,277800
11,658500	0,5	2,489000
11,666833	0,5	1,942900
11,675167	0,5	1,571900
11,683500	0,5	1,314500
11,691833	0,5	1,131000
11,700167	0,5	0,998250
11,708500	0,5	0,902250
11,716833	0,5	0,832800
11,725167	0,5	0,779000
11,733500	0,5	0,739400
11,741833	0,5	0,713400
11,750167	0,5	0,699350
11,758500	0,5	0,681900
11,766833	0,5	0,677900
11,775167	0,5	0,673700
11,783500	0,5	0,667000
11,791833	0,5	0,653200
11,800167	0,5	0,636850
11,808500	0,5	0,619850
11,816833	0,5	0,609300
11,825167	0,5	0,593700
11,833500	0,5	0,583950
11,841833	0,5	0,580050
11,850167	0,5	0,583450
11,858500	0,5	0,591800
11,866833	0,5	0,602350
11,875167	0,5	0,615650
11,883500	0,5	0,617050
11,891833	0,5	0,620900
11,900167	0,5	0,612900
11,908500	0,5	0,594150
11,916833	0,5	0,584600
11,925167	0,5	0,569150
11,933500	0,5	0,548400
11,941833	0,5	0,537050
11,950167	0,5	0,518550
11,958500	0,5	0,516650
11,966833	0,5	0,508600
11,975167	0,5	0,503050
11,983500	0,5	0,491500
11,991833	0,5	0,480650
12,000167	0,5	0,472550
12,008500	0,5	0,477050
12,016833	0,5	0,478700
12,025167	0,5	0,487800
12,033500	0,5	0,496150
12,041833	0,5	0,496850
12,050167	0,5	0,502100
12,058500	0,5	0,497300
12,066833	0,5	0,497750
12,075167	0,5	0,490200
12,083500	0,5	0,477850
12,091833	0,5	0,466750
12,100167	0,5	0,456800
12,108500	0,5	0,459600
12,116833	0,5	0,465650
12,125167	0,5	0,473850
12,133500	0,5	0,496950
12,141833	0,5	0,533000
12,150167	0,5	0,584950
12,158500	0,5	0,639350
12,166833	0,5	0,703850
12,175167	0,5	0,770950
12,183500	0,5	0,837300
12,191833	0,5	0,915400
12,200167	0,5	1,003950
12,208500	0,5	1,093750
12,216833	0,5	1,191000
12,225167	0,5	1,252300
12,233500	0,5	1,265550
12,241833	0,5	1,222200
12,250167	0,5	1,146400
12,258500	0,5	1,077550
12,266833	0,5	1,007200
12,275167	0,5	0,915950
12,283500	0,5	0,754300
12,291833	0,5	0,532600
12,300167	0,5	0,321300
12,308500	0,5	0,161050
12,316833	0,5	0,040800
12,325167	0,5	-0,038100
12,333500	0,5	-0,089050
12,341833	0,5	-0,116550
12,350167	0,5	-0,148900
12,358500	0,5	-0,160550
12,366833	0,5	-0,174400
12,375167	0,5	-0,188350
12,383500	0,5	-0,201550
12,391833	0,5	-0,216050
12,400167	0,5	-0,217350
12,408500	0,5	-0,213600
12,416833	0,5	-0,212250
12,425167	0,5	-0,211950
12,433500	0,5	-0,206650
12,441833	0,5	-0,202200
12,450167	0,5	-0,195550
12,458500	0,5	-0,192950
12,466833	0,5	-0,189450
12,475167	0,5	-0,185050
12,483500	0,5	-0,181050
12,491833	0,5	-0,183550
12,500167	0,5	-0,179900
12,508500	0,5	-0,175400
12,516833	0,5	-0,176500
12,525167	0,5	-0,178250
12,533500	0,5	-0,182600
12,541833	0,5	-0,193350
12,550167	0,5	-0,196650
12,558500	0,5	-0,197550
12,566833	0,5	-0,200650
12,575167	0,5	-0,205050
12,583500	0,5	-0,210950
12,591833	0,5	-0,220350
12,600167	0,5	-0,223000
12,608500	0,5	-0,221450
12,616833	0,5	-0,227700
12,625167	0,5	-0,230050
12,633500	0,5	-0,231100
12,641833	0,5	-0,233750
12,650167	0,5	-0,235250
12,658500	0,5	-0,226650
12,666833	0,5	-0,229100
12,675167	0,5	-0,232950
12,683500	0,5	-0,241650
12,691833	0,5	-0,244950
12,700167	0,5	-0,246750
12,708500	0,5	-0,244850
12,716833	0,5	-0,246750
12,725167	0,5	-0,246250
12,733500	0,5	-0,247950
12,741833	0,5	-0,248000
12,750167	0,5	-0,246100
12,758500	0,5	-0,245750
12,766833	0,5	-0,245250
12,775167	0,5	-0,237600
12,783500	0,5	-0,231650
12,791833	0,5	-0,230000
12,800167	0,5	-0,219800
12,808500	0,5	-0,208150
12,816833	0,5	-0,193500
12,825167	0,5	-0,187950
12,833500	0,5	-0,179750
12,841833	0,5	-0,171700
12,850167	0,5	-0,155850
12,858500	0,5	-0,150650
12,866833	0,5	-0,138500
12,875167	0,5	-0,132250
12,883500	0,5	-0,128100
12,891833	0,5	-0,120600
12,900167	0,5	-0,112400
12,908500	0,5	-0,106650
12,916833	0,5	-0,103150
12,925167	0,5	-0,090950
12,933500	0,5	-0,087550
12,941833	0,5	-0,083750
12,950167	0,5	-0,065800
12,958500	0,5	-0,055850
12,966833	0,5	-0,050600
12,975167	0,5	-0,045100
12,983500	0,5	-0,046900
12,991833	0,5	-0,033750
13,000167	0,5	-0,018850
13,008500	0,5	-0,007750
13,016833	0,5	0,005650
13,025167	0,5	0,019550
13,033500	0,5	0,026800
13,041833	0,5	0,038100
13,050167	0,5	0,044250
13,058500	0,5	0,044800
13,066833	0,5	0,051250
13,075167	0,5	0,057700
13,083500	0,5	0,057050
13,091833	0,5	0,057750
13,100167	0,5	0,079200
13,108500	0,5	0,088100
13,116833	0,5	0,094350
13,125167	0,5	0,102400
13,133500	0,5	0,109500
13,141833	0,5	0,121650
13,150167	0,5	0,129950
13,158500	0,5	0,139800
13,166833	0,5	0,143300
13,175167	0,5	0,151050
13,183500	0,5	0,158150
13,191833	0,5	0,163850
13,200167	0,5	0,173200
13,208500	0,5	0,174200
13,216833	0,5	0,178300
13,225167	0,5	0,179750
13,233500	0,5	0,176700
13,241833	0,5	0,176400
13,250167	0,5	0,178850
13,258500	0,5	0,175250
13,266833	0,5	0,165350
13,275167	0,5	0,156850
13,283500	0,5	0,150400
13,291833	0,5	0,156200
13,300167	0,5	0,162500
13,308500	0,5	0,173400
13,316833	0,5	0,188350
13,325167	0,5	0,220250
13,333500	0,5	0,254700
13,341833	0,5	0,301500
13,350167	0,5	0,340700
13,358500	0,5	0,371750
13,366833	0,5	0,390850
13,375167	0,5	0,392500
13,383500	0,5	0,363200
13,391833	0,5	0,345500
13,400167	0,5	0,312050
13,408500	0,5	0,276150
13,416833	0,5	0,240250
13,425167	0,5	0,211950
13,433500	0,5	0,192400
13,441833	0,5	0,183750
13,450167	0,5	0,180800
13,458500	0,5	0,176350
13,466833	0,5	0,172750
13,475167	0,5	0,172900
13,483500	0,5	0,173900
13,491833	0,5	0,178650
13,500167	0,5	0,192000
13,508500	0,5	0,204550
13,516833	0,5	0,235050
13,525167	0,5	0,263750
13,533500	0,5	0,292250
13,541833	0,5	0,332650
13,550167	0,5	0,355350
13,558500	0,5	0,369000
13,566833	0,5	0,363250
13,575167	0,5	0,337100
13,583500	0,5	0,315050
13,591833	0,5	0,284400
13,600167	0,5	0,253500
13,608500	0,5	0,224450
13,616833	0,5	0,200450
13,625167	0,5	0,183450
13,633500	0,5	0,173500
13,641833	0,5	0,169050
13,650167	0,5	0,170100
13,658500	0,5	0,190300
13,666833	0,5	0,214500
13,675167	0,5	0,234350
13,683500	0,5	0,272350
13,691833	0,5	0,312150
13,700167	0,5	0,348800
13,708500	0,5	0,380900
13,716833	0,5	0,399400
13,725167	0,5	0,413050
13,733500	0,5	0,412150
13,741833	0,5	0,405200
13,750167	0,5	0,381000
13,758500	0,5	0,354650
13,766833	0,5	0,324550
13,775167	0,5	0,299500
13,783500	0,5	0,290450
13,791833	0,5	0,291300
13,800167	0,5	0,302750
13,808500	0,5	0,315150
13,816833	0,5	0,325000
13,825167	0,5	0,322750
13,833500	0,5	0,334850
13,841833	0,5	0,344750
13,850167	0,5	0,350800
13,858500	0,5	0,360700
13,866833	0,5	0,364950
13,875167	0,5	0,362300
13,883500	0,5	0,357400
13,891833	0,5	0,331500
13,900167	0,5	0,306450
13,908500	0,5	0,273050
13,916833	0,5	0,241650
13,925167	0,5	0,204950
13,933500	0,5	0,173500
13,941833	0,5	0,146700
13,950167	0,5	0,125400
13,958500	0,5	0,122850
13,966833	0,5	0,121400
13,975167	0,5	0,125450
13,983500	0,5	0,155850
13,991833	0,5	0,186000
14,000167	0,5	0,208950
14,008500	0,5	0,225350
14,016833	0,5	0,220000
14,025167	0,5	0,218550
14,033500	0,5	0,200550
14,041833	0,5	0,177150
14,050167	0,5	0,144250
14,058500	0,5	0,116250
14,066833	0,5	0,089150
14,075167	0,5	0,070600
14,083500	0,5	0,062700
14,091833	0,5	0,062450
14,100167	0,5	0,071850
14,108500	0,5	0,088650
14,116833	0,5	0,094250
14,125167	0,5	0,102350
14,133500	0,5	0,112550
14,141833	0,5	0,112400
14,150167	0,5	0,108500
14,158500	0,5	0,094650
14,166833	0,5	0,084100
14,175167	0,5	0,075300
14,183500	0,5	0,072250
14,191833	0,5	0,065250
14,200167	0,5	0,064600
14,208500	0,5	0,066150
14,216833	0,5	0,074650
14,225167	0,5	0,071100
14,233500	0,5	0,073650
14,241833	0,5	0,055950
14,250167	0,5	0,045000
14,258500	0,5	0,033300
14,266833	0,5	0,008600
14,275167	0,5	-0,002450
14,283500	0,5	-0,010750
14,291833	0,5	-0,020650
14,300167	0,5	-0,033500
14,308500	0,5	-0,043250
14,316833	0,5	-0,049900
14,325167	0,5	-0,046950
14,333500	0,5	-0,050950
14,341833	0,5	-0,053950
14,350167	0,5	-0,057550
14,358500	0,5	-0,061000
14,366833	0,5	-0,073850
14,375167	0,5	-0,074500
14,383500	0,5	-0,080950
14,391833	0,5	-0,083050
14,400167	0,5	-0,086400
14,408500	0,5	-0,084850
14,416833	0,5	-0,093850
14,425167	0,5	-0,084450
14,433500	0,5	-0,081000
14,441833	0,5	-0,072000
14,450167	0,5	-0,062050
14,458500	0,5	-0,052400
14,466833	0,5	-0,029500
14,475167	0,5	-0,010050
14,483500	0,5	0,006600
14,491833	0,5	0,009800
14,500167	0,5	0,006350
14,508500	0,5	-0,015200
14,516833	0,5	-0,034400
14,525167	0,5	-0,061850
14,533500	0,5	-0,084000
14,541833	0,5	-0,104650
14,550167	0,5	-0,112900
14,558500	0,5	-0,127500
14,566833	0,5	-0,136400
14,575167	0,5	-0,132850
14,583500	0,5	-0,132800
14,591833	0,5	-0,134400
14,600167	0,5	-0,139300
14,608500	0,5	-0,143100
14,616833	0,5	-0,139300
14,625167	0,5	-0,135600
14,633500	0,5	-0,130250
14,641833	0,5	-0,134200
14,650167	0,5	-0,132400
14,658500	0,5	-0,134000
14,666833	0,5	-0,136850
14,675167	0,5	-0,136200
14,683500	0,5	-0,137100
14,691833	0,5	-0,131550
14,700167	0,5	-0,131100
14,708500	0,5	-0,140900
14,716833	0,5	-0,139300
14,725167	0,5	-0,141500
14,733500	0,5	-0,156650
14,741833	0,5	-0,166450
14,750167	0,5	-0,193300
14,758500	0,5	-0,200950
14,766833	0,5	-0,208900
14,775167	0,5	-0,212400
14,783500	0,5	-0,220700
14,791833	0,5	-0,218300
14,800167	0,5	-0,220900
14,808500	0,5	-0,222350
14,816833	0,5	-0,222350
14,825167	0,5	-0,225750
14,833500	0,5	-0,224900
14,841833	0,5	-0,218800
14,850167	0,5	-0,214950
14,858500	0,5	-0,219650
14,866833	0,5	-0,208000
14,875167	0,5	-0,201600
14,883500	0,5	-0,197350
14,891833	0,5	-0,201150
14,900167	0,5	-0,205950
14,908500	0,5	-0,206250
14,916833	0,5	-0,203600
14,925167	0,5	-0,211550
14,933500	0,5	-0,209750
14,941833	0,5	-0,211050
14,950167	0,5	-0,204150
14,958500	0,5	-0,202250
14,966833	0,5	-0,202650
14,975167	0,5	-0,199600
14,983500	0,5	-0,202150
14,991833	0,5	-0,199200
15,000167	0,5	-0,211650
15,008500	0,5	-0,221850
15,016833	0,5	-0,222450
15,025167	0,5	-0,231850
15,033500	0,5	-0,241900
15,041833	0,5	-0,251450
15,050167	0,5	-0,258650
15,058500	0,5	-0,248650
15,066833	0,5	-0,254950
15,075167	0,5	-0,249400
15,083500	0,5	-0,249850
15,091833	0,5	-0,248950
15,100167	0,5	-0,250850
15,108500	0,5	-0,245550
15,116833	0,5	-0,248150
15,125167	0,5	-0,254200
15,133500	0,5	-0,251900
15,141833	0,5	-0,252150
15,150167	0,5	-0,263500
15,158500	0,5	-0,265700
15,166833	0,5	-0,264800
15,175167	0,5	-0,267450
15,183500	0,5	-0,275600
15,191833	0,5	-0,288700
15,200167	0,5	-0,287300
15,208500	0,5	-0,287350
15,216833	0,5	-0,290350
15,225167	0,5	-0,293800
15,233500	0,5	-0,293200
15,241833	0,5	-0,298950
15,250167	0,5	-0,295900
15,258500	0,5	-0,300650
15,266833	0,5	-0,301750
15,275167	0,5	-0,304850
15,283500	0,5	-0,301400
15,291833	0,5	-0,298450
15,300167	0,5	-0,306650
15,308500	0,5	-0,299550
15,316833	0,5	-0,295150
15,325167	0,5	-0,288850
15,333500	0,5	-0,284100
15,341833	0,5	-0,280150
15,350167	0,5	-0,260950
15,358500	0,5	-0,251000
15,366833	0,5	-0,245250
15,375167	0,5	-0,239300
15,383500	0,5	-0,245000
15,391833	0,5	-0,250900
15,400167	0,5	-0,266400
15,408500	0,5	-0,274800
15,416833	0,5	-0,286150
15,425167	0,5	-0,289250
15,433500	0,5	-0,287200
15,441833	0,5	-0,282500
15,450167	0,5	-0,286250
15,458500	0,5	-0,277900
15,466833	0,5	-0,282700
15,475167	0,5	-0,281100
15,483500	0,5	-0,288550
15,491833	0,5	-0,298250
15,500167	0,5	-0,292300
15,508500	0,5	-0,292000
15,516833	0,5	-0,289800
15,525167	0,5	-0,289400
15,533500	0,5	-0,284350
15,541833	0,5	-0,284900
15,550167	0,5	-0,285950
15,558500	0,5	-0,298600
15,566833	0,5	-0,305050
15,575167	0,5	-0,311900
15,583500	0,5	-0,317900
15,591833	0,5	-0,334800
15,600167	0,5	-0,333450
15,608500	0,5	-0,336700
15,616833	0,5	-0,338300
15,625167	0,5	-0,341450
15,633500	0,5	-0,353400
15,641833	0,5	-0,360450
15,650167	0,5	-0,359800
15,658500	0,5	-0,367450
15,666833	0,5	-0,367100
15,675167	0,5	-0,366700
15,683500	0,5	-0,363950
15,691833	0,5	-0,361000
15,700167	0,5	-0,362200
15,708500	0,5	-0,356800
15,716833	0,5	-0,358800
15,725167	0,5	-0,349750
15,733500	0,5	-0,353150
15,741833	0,5	-0,356700
15,750167	0,5	-0,346100
15,758500	0,5	-0,346600
15,766833	0,5	-0,347900
15,775167	0,5	-0,350600
15,783500	0,5	-0,359200
15,791833	0,5	-0,351400
15,800167	0,5	-0,351600
15,808500	0,5	-0,350800
15,816833	0,5	-0,358300
15,825167	0,5	-0,364950
15,833500	0,5	-0,375250
15,841833	0,5	-0,383150
15,850167	0,5	-0,391700
15,858500	0,5	-0,407350
15,866833	0,5	-0,408050
15,875167	0,5	-0,406500
15,883500	0,5	-0,417700
15,891833	0,5	-0,422000
15,900167	0,5	-0,415700
15,908500	0,5	-0,417600
15,916833	0,5	-0,421650
15,925167	0,5	-0,434600
15,933500	0,5	-0,437200
15,941833	0,5	-0,442400
15,950167	0,5	-0,445050
15,958500	0,5	-0,453550
15,966833	0,5	-0,452600
15,975167	0,5	-0,451750
15,983500	0,5	-0,447850
15,991833	0,5	-0,450250
16,000167	0,5	-0,444200
16,008500	0,5	-0,448950
16,016833	0,5	-0,445350
16,025167	0,5	-0,433800
16,033500	0,5	-0,438300
16,041833	0,5	-0,424800
16,050167	0,5	-0,421700
16,058500	0,5	-0,425600
16,066833	0,5	-0,426100
16,075167	0,5	-0,435400
16,083500	0,5	-0,436750
16,091833	0,5	-0,431150
16,100167	0,5	-0,437100
16,108500	0,5	-0,437400
16,116833	0,5	-0,438650
16,125167	0,5	-0,442150
16,133500	0,5	-0,448750
16,141833	0,5	-0,450400
16,150167	0,5	-0,456950
16,158500	0,5	-0,462400
16,166833	0,5	-0,457700
16,175167	0,5	-0,453550
16,183500	0,5	-0,464050
16,191833	0,5	-0,454250
16,200167	0,5	-0,452800
16,208500	0,5	-0,459100
16,216833	0,5	-0,463100
16,225167	0,5	-0,475650
16,233500	0,5	-0,465250
16,241833	0,5	-0,462750
16,250167	0,5	-0,462750
16,258500	0,5	-0,465900
16,266833	0,5	-0,460200
16,275167	0,5	-0,463850
16,283500	0,5	-0,458700
16,291833	0,5	-0,464050
16,300167	0,5	-0,465650
16,308500	0,5	-0,466100
16,316833	0,5	-0,465500
16,325167	0,5	-0,469200
16,333500	0,5	-0,474900
16,341833	0,5	-0,468350
16,350167	0,5	-0,472150
16,358500	0,5	-0,476700
16,366833	0,5	-0,481850
16,375167	0,5	-0,490100
16,383500	0,5	-0,487350
16,391833	0,5	-0,479350
16,400167	0,5	-0,483100
16,408500	0,5	-0,481200
16,416833	0,5	-0,484300
16,425167	0,5	-0,477050
16,433500	0,5	-0,477350
16,441833	0,5	-0,476750
16,450167	0,5	-0,482100
16,458500	0,5	-0,478900
16,466833	0,5	-0,474550
16,475167	0,5	-0,476700
16,483500	0,5	-0,472500
16,491833	0,5	-0,464700
16,500167	0,5	-0,472800
16,508500	0,5	-0,473900
16,516833	0,5	-0,480100
16,525167	0,5	-0,483250
16,533500	0,5	-0,476450
16,541833	0,5	-0,472400
16,550167	0,5	-0,471900
16,558500	0,5	-0,472750
16,566833	0,5	-0,464650
16,575167	0,5	-0,463600
16,583500	0,5	-0,460650
16,591833	0,5	-0,461750
16,600167	0,5	-0,456800
16,608500	0,5	-0,457800
16,616833	0,5	-0,453250
16,625167	0,5	-0,459650
16,633500	0,5	-0,444150
16,641833	0,5	-0,440100
16,650167	0,5	-0,442400
16,658500	0,5	-0,448650
16,666833	0,5	-0,449050
16,675167	0,5	-0,448800
16,683500	0,5	-0,442250
16,691833	0,5	-0,438050
16,700167	0,5	-0,440350
16,708500	0,5	-0,441350
16,716833	0,5	-0,442150
16,725167	0,5	-0,439350
16,733500	0,5	-0,440400
16,741833	0,5	-0,439950
16,750167	0,5	-0,443050
16,758500	0,5	-0,432050
16,766833	0,5	-0,441950
16,775167	0,5	-0,434250
16,783500	0,5	-0,427100
16,791833	0,5	-0,424700
16,800167	0,5	-0,425250
16,808500	0,5	-0,432650
16,816833	0,5	-0,432200
16,825167	0,5	-0,428000
16,833500	0,5	-0,423650
16,841833	0,5	-0,414750
16,850167	0,5	-0,410100
16,858500	0,5	-0,403100
16,866833	0,5	-0,392950
16,875167	0,5	-0,385950
16,883500	0,5	-0,377350
16,891833	0,5	-0,377750
16,900167	0,5	-0,369400
16,908500	0,5	-0,364500
16,916833	0,5	-0,377800
16,925167	0,5	-0,368200
16,933500	0,5	-0,361650
16,941833	0,5	-0,363950
16,950167	0,5	-0,365550
16,958500	0,5	-0,375650
16,966833	0,5	-0,363950
16,975167	0,5	-0,359550
16,983500	0,5	-0,351300
16,991833	0,5	-0,350350
17,000167	0,5	-0,340650
17,008500	0,5	-0,341100
17,016833	0,5	-0,335800
17,025167	0,5	-0,331150
17,033500	0,5	-0,331950
17,041833	0,5	-0,334050
17,050167	0,5	-0,333550
17,058500	0,5	-0,324900
17,066833	0,5	-0,334950
17,075167	0,5	-0,316200
17,083500	0,5	-0,313500
17,091833	0,5	-0,313100
17,100167	0,5	-0,317900
17,108500	0,5	-0,326450
17,116833	0,5	-0,318550
17,125167	0,5	-0,311900
17,133500	0,5	-0,313350
17,141833	0,5	-0,313750
17,150167	0,5	-0,315450
17,158500	0,5	-0,310800
17,166833	0,5	-0,310950
17,175167	0,5	-0,312650
17,183500	0,5	-0,312900
17,191833	0,5	-0,312900
17,200167	0,5	-0,307600
17,208500	0,5	-0,310850
17,216833	0,5	-0,313850
17,225167	0,5	-0,301350
17,233500	0,5	-0,305200
17,241833	0,5	-0,311850
17,250167	0,5	-0,316650
17,258500	0,5	-0,323450
17,266833	0,5	-0,310650
17,275167	0,5	-0,319100
17,283500	0,5	-0,316850
17,291833	0,5	-0,323350
17,300167	0,5	-0,318550
17,308500	0,5	-0,324300
17,316833	0,5	-0,319100
17,325167	0,5	-0,324750
17,333500	0,5	-0,324900
17,341833	0,5	-0,326800
17,350167	0,5	-0,324100
17,358500	0,5	-0,332400
17,366833	0,5	-0,325750
17,375167	0,5	-0,326250
17,383500	0,5	-0,330550
17,391833	0,5	-0,339750
17,400167	0,5	-0,351250
17,408500	0,5	-0,354950
17,416833	0,5	-0,357450
17,425167	0,5	-0,352700
17,433500	0,5	-0,357750
17,441833	0,5	-0,358950
17,450167	0,5	-0,358000
17,458500	0,5	-0,353600
17,466833	0,5	-0,359900
17,475167	0,5	-0,360600
17,483500	0,5	-0,367250
17,491833	0,5	-0,362850
17,500167	0,5	-0,366150
17,508500	0,5	-0,370900
17,516833	0,5	-0,364550
17,525167	0,5	-0,366700
17,533500	0,5	-0,370850
17,541833	0,5	-0,386900
17,550167	0,5	-0,394200
17,558500	0,5	-0,397950
17,566833	0,5	-0,393700
17,575167	0,5	-0,394850
17,583500	0,5	-0,393200
17,591833	0,5	-0,400150
17,600167	0,5	-0,400500
17,608500	0,5	-0,401100
17,616833	0,5	-0,398100
17,625167	0,5	-0,406700
17,633500	0,5	-0,406950
17,641833	0,5	-0,412550
17,650167	0,5	-0,417850
17,658500	0,5	-0,419100
17,666833	0,5	-0,413400
17,675167	0,5	-0,418600
17,683500	0,5	-0,417550
17,691833	0,5	-0,436600
17,700167	0,5	-0,444400
17,708500	0,5	-0,445200
17,716833	0,5	-0,447600
17,725167	0,5	-0,446650
17,733500	0,5	-0,452250
17,741833	0,5	-0,456000
17,750167	0,5	-0,459200
17,758500	0,5	-0,458100
17,766833	0,5	-0,464600
17,775167	0,5	-0,465300
17,783500	0,5	-0,464800
17,791833	0,5	-0,462700
17,800167	0,5	-0,481200
17,808500	0,5	-0,473450
17,816833	0,5	-0,469950
17,825167	0,5	-0,477300
17,833500	0,5	-0,489150
17,841833	0,5	-0,511300
17,850167	0,5	-0,509500
17,858500	0,5	-0,513600
17,866833	0,5	-0,515600
17,875167	0,5	-0,521400
17,883500	0,5	-0,524400
17,891833	0,5	-0,524300
17,900167	0,5	-0,531400
17,908500	0,5	-0,534300
17,916833	0,5	-0,534100
17,925167	0,5	-0,542800
17,933500	0,5	-0,536450
17,941833	0,5	-0,544450
17,950167	0,5	-0,552900
17,958500	0,5	-0,549450
17,966833	0,5	-0,547350
17,975167	0,5	-0,556150
17,983500	0,5	-0,567750
17,991833	0,5	-0,580350
18,000167	0,5	-0,575250
18,008500	0,5	-0,577250
18,016833	0,5	-0,577400
18,025167	0,5	-0,581050
18,033500	0,5	-0,588300
18,041833	0,5	-0,587900
18,050167	0,5	-0,585800
18,058500	0,5	-0,588000
18,066833	0,5	-0,593050
18,075167	0,5	-0,594650
18,083500	0,5	-0,592250
18,091833	0,5	-0,597600
18,100167	0,5	-0,600850
18,108500	0,5	-0,589900
18,116833	0,5	-0,596000
18,125167	0,5	-0,599550
18,133500	0,5	-0,620900
18,141833	0,5	-0,623400
18,150167	0,5	-0,619150
18,158500	0,5	-0,619650
18,166833	0,5	-0,625250
18,175167	0,5	-0,623850
18,183500	0,5	-0,625850
18,191833	0,5	-0,627950
18,200167	0,5	-0,630800
18,208500	0,5	-0,636050
18,216833	0,5	-0,633650
18,225167	0,5	-0,640400
18,233500	0,5	-0,635900
18,241833	0,5	-0,651800
18,250167	0,5	-0,641850
18,258500	0,5	-0,647100
18,266833	0,5	-0,648450
18,275167	0,5	-0,662850
18,283500	0,5	-0,678550
18,291833	0,5	-0,679500
18,300167	0,5	-0,671700
18,308500	0,5	-0,681750
18,316833	0,5	-0,678950
18,325167	0,5	-0,681350
18,333500	0,5	-0,685650
18,341833	0,5	-0,688350
18,350167	0,5	-0,687150
18,358500	0,5	-0,689900
18,366833	0,5	-0,690500
18,375167	0,5	-0,687800
18,383500	0,5	-0,695800
18,391833	0,5	-0,706750
18,400167	0,5	-0,702750
18,408500	0,5	-0,705900
18,416833	0,5	-0,714350
18,425167	0,5	-0,726200
18,433500	0,5	-0,746100
18,441833	0,5	-0,741400
18,450167	0,5	-0,740400
18,458500	0,5	-0,739200
18,466833	0,5	-0,742300
18,475167	0,5	-0,738750
18,483500	0,5	-0,740800
18,491833	0,5	-0,743700
18,500167	0,5	-0,741050
18,508500	0,5	-0,745400
18,516833	0,5	-0,739250
18,525167	0,5	-0,739150
18,533500	0,5	-0,747050
18,541833	0,5	-0,743000
18,550167	0,5	-0,734950
18,558500	0,5	-0,740800
18,566833	0,5	-0,742800
18,575167	0,5	-0,751750
18,583500	0,5	-0,755300
18,591833	0,5	-0,753850
18,600167	0,5	-0,742600
18,608500	0,5	-0,740800
18,616833	0,5	-0,730700
18,625167	0,5	-0,737250
18,633500	0,5	-0,722550
18,641833	0,5	-0,719350
18,650167	0,5	-0,712300
18,658500	0,5	-0,713250
18,666833	0,5	-0,710500
18,675167	0,5	-0,716750
18,683500	0,5	-0,728300
18,691833	0,5	-0,722950
18,700167	0,5	-0,720150
18,708500	0,5	-0,726100
18,716833	0,5	-0,738700
18,725167	0,5	-0,755550
18,733500	0,5	-0,759250
18,741833	0,5	-0,754850
18,750167	0,5	-0,762900
18,758500	0,5	-0,760850
18,766833	0,5	-0,766950
18,775167	0,5	-0,763250
18,783500	0,5	-0,766450
18,791833	0,5	-0,763050
18,800167	0,5	-0,767650
18,808500	0,5	-0,768100
18,816833	0,5	-0,764550
18,825167	0,5	-0,775100
18,833500	0,5	-0,779300
18,841833	0,5	-0,768250
18,850167	0,5	-0,767500
18,858500	0,5	-0,772550
18,866833	0,5	-0,786100
18,875167	0,5	-0,790800
18,883500	0,5	-0,784250
18,891833	0,5	-0,781800
18,900167	0,5	-0,782150
18,908500	0,5	-0,785000
18,916833	0,5	-0,780700
18,925167	0,5	-0,791900
18,933500	0,5	-0,785900
18,941833	0,5	-0,791800
18,950167	0,5	-0,789900
18,958500	0,5	-0,785500
18,966833	0,5	-0,773250
18,975167	0,5	-0,789700
18,983500	0,5	-0,775200
18,991833	0,5	-0,775000
19,000167	0,5	-0,772350
19,008500	0,5	-0,779650
19,016833	0,5	-0,801300
19,025167	0,5	-0,801750
19,033500	0,5	-0,804450
19,041833	0,5	-0,805450
19,050167	0,5	-0,815700
19,058500	0,5	-0,822500
19,066833	0,5	-0,828950
19,075167	0,5	-0,829900
19,083500	0,5	-0,838350
19,091833	0,5	-0,837550
19,100167	0,5	-0,841600
19,108500	0,5	-0,837500
19,116833	0,5	-0,835600
19,125167	0,5	-0,849550
19,133500	0,5	-0,835250
19,141833	0,5	-0,832100
19,150167	0,5	-0,836700
19,158500	0,5	-0,841550
19,166833	0,5	-0,865000
19,175167	0,5	-0,863550
19,183500	0,5	-0,867150
19,191833	0,5	-0,867650
19,200167	0,5	-0,872300
19,208500	0,5	-0,869050
19,216833	0,5	-0,869300
19,225167	0,5	-0,872850
19,233500	0,5	-0,861100
19,241833	0,5	-0,852850
19,250167	0,5	-0,834400
19,258500	0,5	-0,817350
19,266833	0,5	-0,803200
19,275167	0,5	-0,808300
19,283500	0,5	-0,800950
19,291833	0,5	-0,815600
19,300167	0,5	-0,824950
19,308500	0,5	-0,841100
19,316833	0,5	-0,857550
19,325167	0,5	-0,852100
19,333500	0,5	-0,847950
19,341833	0,5	-0,859100
19,350167	0,5	-0,876700
19,358500	0,5	-0,889800
19,366833	0,5	-0,902450
19,375167	0,5	-0,906400
19,383500	0,5	-0,910500
19,391833	0,5	-0,909600
19,400167	0,5	-0,899850
19,408500	0,5	-0,891250
19,416833	0,5	-0,890450
19,425167	0,5	-0,870600
19,433500	0,5	-0,841650
19,441833	0,5	-0,827600
19,450167	0,5	-0,828850
19,458500	0,5	-0,836300
19,466833	0,5	-0,856300
19,475167	0,5	-0,867150
19,483500	0,5	-0,884650
19,491833	0,5	-0,900650
19,500167	0,5	-0,914400
19,508500	0,5	-0,928700
19,516833	0,5	-0,939750
19,525167	0,5	-0,941650
19,533500	0,5	-0,938750
19,541833	0,5	-0,944400
19,550167	0,5	-0,931600
19,558500	0,5	-0,931750
19,566833	0,5	-0,940150
19,575167	0,5	-0,936400
19,583500	0,5	-0,935700
19,591833	0,5	-0,942900
19,600167	0,5	-0,953850
19,608500	0,5	-0,966500
19,616833	0,5	-0,970350
19,625167	0,5	-0,961300
19,633500	0,5	-0,950800
19,641833	0,5	-0,944500
19,650167	0,5	-0,930600
19,658500	0,5	-0,917550
19,666833	0,5	-0,904850
19,675167	0,5	-0,897650
19,683500	0,5	-0,896200
19,691833	0,5	-0,890650
19,700167	0,5	-0,892900
19,708500	0,5	-0,911800
19,716833	0,5	-0,929350
19,725167	0,5	-0,930700
19,733500	0,5	-0,940650
19,741833	0,5	-0,940500
19,750167	0,5	-0,963850
19,758500	0,5	-0,967300
19,766833	0,5	-0,967150
19,775167	0,5	-0,962650
19,783500	0,5	-0,965550
19,791833	0,5	-0,964950
19,800167	0,5	-0,968450
19,808500	0,5	-0,963200
19,816833	0,5	-0,965250
19,825167	0,5	-0,963050
19,833500	0,5	-0,962550
19,841833	0,5	-0,951600
19,850167	0,5	-0,946550
19,858500	0,5	-0,965050
19,866833	0,5	-0,952150
19,875167	0,5	-0,951600
19,883500	0,5	-0,953650
19,891833	0,5	-0,959100
19,900167	0,5	-0,972300
19,908500	0,5	-0,972900
19,916833	0,5	-0,969100
19,925167	0,5	-0,967000
19,933500	0,5	-0,962450
19,941833	0,5	-0,966050
19,950167	0,5	-0,962800
19,958500	0,5	-0,966250
19,966833	0,5	-0,963250
19,975167	0,5	-0,962000
19,983500	0,5	-0,963250
19,991833	0,5	-0,949100
20,000167	0,5	-0,949200
20,008500	0,5	-0,960750
20,016833	0,5	-0,952100
20,025167	0,5	-0,945950
20,033500	0,5	-0,955300
20,041833	0,5	-0,960000
20,050167	0,5	-0,970600
20,058500	0,5	-0,953700
20,066833	0,5	-0,957100
20,075167	0,5	-0,951200
20,083500	0,5	-0,953250
20,091833	0,5	-0,949650
20,100167	0,5	-0,950350
20,108500	0,5	-0,944000
20,116833	0,5	-0,945750
20,125167	0,5	-0,937450
20,133500	0,5	-0,933250
20,141833	0,5	-0,923450
20,150167	0,5	-0,933250
20,158500	0,5	-0,920650
20,166833	0,5	-0,922800
20,175167	0,5	-0,925900
20,183500	0,5	-0,930250
20,191833	0,5	-0,949400
20,200167	0,5	-0,946250
20,208500	0,5	-0,951800
20,216833	0,5	-0,946250
20,225167	0,5	-0,949400
20,233500	0,5	-0,947200
20,241833	0,5	-0,951200
20,250167	0,5	-0,944800
20,258500	0,5	-0,945800
20,266833	0,5	-0,945100
20,275167	0,5	-0,945500
20,283500	0,5	-0,935950
20,291833	0,5	-0,934000
20,300167	0,5	-0,941900
20,308500	0,5	-0,939300
20,316833	0,5	-0,943300
20,325167	0,5	-0,945900
20,333500	0,5	-0,955450
20,341833	0,5	-0,968550
20,350167	0,5	-0,964200
20,358500	0,5	-0,958300
20,366833	0,5	-0,959750
20,375167	0,5	-0,957100
20,383500	0,5	-0,958150
20,391833	0,5	-0,955150
20,400167	0,5	-0,958800
20,408500	0,5	-0,959500
20,416833	0,5	-0,963400
20,425167	0,5	-0,955600
20,433500	0,5	-0,950850
20,441833	0,5	-0,951200
20,450167	0,5	-0,957050
20,458500	0,5	-0,948400
20,466833	0,5	-0,950650
20,475167	0,5	-0,956650
20,483500	0,5	-0,968400
20,491833	0,5	-0,977800
20,500167	0,5	-0,968900
20,508500	0,5	-0,974550
20,516833	0,5	-0,968200
20,525167	0,5	-0,969050
20,533500	0,5	-0,962150
20,541833	0,5	-0,960600
20,550167	0,5	-0,958650
20,558500	0,5	-0,958800
20,566833	0,5	-0,959250
20,575167	0,5	-0,945300
20,583500	0,5	-0,933600
20,591833	0,5	-0,940950
20,600167	0,5	-0,941150
20,608500	0,5	-0,936200
20,616833	0,5	-0,943950
20,625167	0,5	-0,946150
20,633500	0,5	-0,961000
20,641833	0,5	-0,957350
20,650167	0,5	-0,959150
20,658500	0,5	-0,951450
20,666833	0,5	-0,947700
20,675167	0,5	-0,943400
20,683500	0,5	-0,947400
20,691833	0,5	-0,933950
20,700167	0,5	-0,938800
20,708500	0,5	-0,940300
20,716833	0,5	-0,934850
20,725167	0,5	-0,914200
20,733500	0,5	-0,912100
20,741833	0,5	-0,916650
20,750167	0,5	-0,913350
20,758500	0,5	-0,914400
20,766833	0,5	-0,915400
20,775167	0,5	-0,932000
20,783500	0,5	-0,930150
20,791833	0,5	-0,928300
20,800167	0,5	-0,925600
20,808500	0,5	-0,928700
20,816833	0,5	-0,918300
20,825167	0,5	-0,914700
20,833500	0,5	-0,906750
20,841833	0,5	-0,902050
20,850167	0,5	-0,897500
20,858500	0,5	-0,894750
20,866833	0,5	-0,878700
20,875167	0,5	-0,861750
20,883500	0,5	-0,863400
20,891833	0,5	-0,863450
20,900167	0,5	-0,864200
20,908500	0,5	-0,868950
20,916833	0,5	-0,870100
20,925167	0,5	-0,884400
20,933500	0,5	-0,875700
20,941833	0,5	-0,865350
20,950167	0,5	-0,865150
20,958500	0,5	-0,856300
20,966833	0,5	-0,852000
20,975167	0,5	-0,842500
20,983500	0,5	-0,839450
20,991833	0,5	-0,829650
21,000167	0,5	-0,835050
21,008500	0,5	-0,827400
21,016833	0,5	-0,801650
21,025167	0,5	-0,787750
21,033500	0,5	-0,798500
21,041833	0,5	-0,797000
21,050167	0,5	-0,798400
21,058500	0,5	-0,799200
21,066833	0,5	-0,812150
21,075167	0,5	-0,816550
21,083500	0,5	-0,799500
21,091833	0,5	-0,801100
21,100167	0,5	-0,796200
21,108500	0,5	-0,796000
21,116833	0,5	-0,784850
21,125167	0,5	-0,785050
21,133500	0,5	-0,779000
21,141833	0,5	-0,772250
21,150167	0,5	-0,764500
21,158500	0,5	-0,750450
21,166833	0,5	-0,729450
21,175167	0,5	-0,722450
21,183500	0,5	-0,722250
21,191833	0,5	-0,719200
21,200167	0,5	-0,719350
21,208500	0,5	-0,727150
21,216833	0,5	-0,730950
21,225167	0,5	-0,729500
21,233500	0,5	-0,721400
21,241833	0,5	-0,709850
21,250167	0,5	-0,706850
21,258500	0,5	-0,693000
21,266833	0,5	-0,692100
21,275167	0,5	-0,683500
21,283500	0,5	-0,680150
21,291833	0,5	-0,664950
21,300167	0,5	-0,662200
21,308500	0,5	-0,633150
21,316833	0,5	-0,609700
21,325167	0,5	-0,606100
21,333500	0,5	-0,593800
21,341833	0,5	-0,585650
21,350167	0,5	-0,577450
21,358500	0,5	-0,567850
21,366833	0,5	-0,559150
21,375167	0,5	-0,534400
21,383500	0,5	-0,496400
21,391833	0,5	-0,471250
21,400167	0,5	-0,449700
21,408500	0,5	-0,442150
21,416833	0,5	-0,439050
21,425167	0,5	-0,444400
21,433500	0,5	-0,447000
21,441833	0,5	-0,452050
21,450167	0,5	-0,438050
21,458500	0,5	-0,416550
21,466833	0,5	-0,403750
21,475167	0,5	-0,405750
21,483500	0,5	-0,396200
21,491833	0,5	-0,405550
21,500167	0,5	-0,418300
21,508500	0,5	-0,423650
21,516833	0,5	-0,426250
21,525167	0,5	-0,415650
21,533500	0,5	-0,408300
21,541833	0,5	-0,396000
21,550167	0,5	-0,387350
21,558500	0,5	-0,374200
21,566833	0,5	-0,364350
21,575167	0,5	-0,342600
21,583500	0,5	-0,331600
21,591833	0,5	-0,316100
21,600167	0,5	-0,284550
21,608500	0,5	-0,260150
21,616833	0,5	-0,250500
21,625167	0,5	-0,240050
21,633500	0,5	-0,229350
21,641833	0,5	-0,224000
21,650167	0,5	-0,228000
21,658500	0,5	-0,221950
21,666833	0,5	-0,205250
21,675167	0,5	-0,192900
21,683500	0,5	-0,171900
21,691833	0,5	-0,160500
21,700167	0,5	-0,141050
21,708500	0,5	-0,128400
21,716833	0,5	-0,109700
21,725167	0,5	-0,099000
21,733500	0,5	-0,082900
21,741833	0,5	-0,059000
21,750167	0,5	-0,030300
21,758500	0,5	-0,016650
21,766833	0,5	-0,005100
21,775167	0,5	0,004950
21,783500	0,5	0,020700
21,791833	0,5	0,023550
21,800167	0,5	0,027750
21,808500	0,5	0,051250
21,816833	0,5	0,068150
21,825167	0,5	0,090600
21,833500	0,5	0,109350
21,841833	0,5	0,133250
21,850167	0,5	0,151500
21,858500	0,5	0,175300
21,866833	0,5	0,199900
21,875167	0,5	0,229650
21,883500	0,5	0,254400
21,891833	0,5	0,291550
21,900167	0,5	0,317650
21,908500	0,5	0,338150
21,916833	0,5	0,373050
21,925167	0,5	0,403350
21,933500	0,5	0,425400
21,941833	0,5	0,450500
21,950167	0,5	0,464600
21,958500	0,5	0,497450
21,966833	0,5	0,526500
21,975167	0,5	0,547500
21,983500	0,5	0,571700
21,991833	0,5	0,582400
22,000167	0,5	0,611100
22,008500	0,5	0,625550
22,016833	0,5	0,648750
22,025167	0,5	0,661050
22,033500	0,5	0,686100
22,041833	0,5	0,716300
22,050167	0,5	0,735750
22,058500	0,5	0,760300
22,066833	0,5	0,791650
22,075167	0,5	0,812750
22,083500	0,5	0,832700
22,091833	0,5	0,844300
22,100167	0,5	0,876050
22,108500	0,5	0,916450
22,116833	0,5	0,943300
22,125167	0,5	0,974950
22,133500	0,5	1,005600
22,141833	0,5	1,039800
22,150167	0,5	1,070100
22,158500	0,5	1,107750
22,166833	0,5	1,143000
22,175167	0,5	1,175850
22,183500	0,5	1,203900
22,191833	0,5	1,242000
22,200167	0,5	1,263200
22,208500	0,5	1,319850
22,216833	0,5	1,356200
22,225167	0,5	1,399250
22,233500	0,5	1,436350
22,241833	0,5	1,469150
22,250167	0,5	1,525300
22,258500	0,5	1,569200
22,266833	0,5	1,614900
22,275167	0,5	1,655900
22,283500	0,5	1,696350
22,291833	0,5	1,733550
22,300167	0,5	1,781750
22,308500	0,5	1,821400
22,316833	0,5	1,862900
22,325167	0,5	1,904100
22,333500	0,5	1,942500
22,341833	0,5	1,986350
22,350167	0,5	2,043750
22,358500	0,5	2,107250
22,366833	0,5	2,157450
22,375167	0,5	2,208450
22,383500	0,5	2,245600
22,391833	0,5	2,300350
22,400167	0,5	2,359950
22,408500	0,5	2,422900
22,416833	0,5	2,478300
22,425167	0,5	2,539200
22,433500	0,5	2,593650
22,441833	0,5	2,656400
22,450167	0,5	2,709950
22,458500	0,5	2,768650
22,466833	0,5	2,818450
22,475167	0,5	2,818800
22,483500	0,5	2,903850
22,491833	0,5	2,968150
22,500167	0,5	3,034500
22,508500	0,5	3,090900
22,516833	0,5	3,137100
22,525167	0,5	3,181400
22,533500	0,5	3,222500
22,541833	0,5	3,270800
22,550167	0,5	3,325400
22,558500	0,5	3,377200
22,566833	0,5	3,430050
22,575167	0,5	3,471900
22,583500	0,5	3,526400
22,591833	0,5	3,573550
22,600167	0,5	3,616900
22,608500	0,5	3,645100
22,616833	0,5	3,671600
22,625167	0,5	3,657100
22,633500	0,5	3,672400
22,641833	0,5	3,692150
22,650167	0,5	3,692400
22,658500	0,5	3,674300
22,666833	0,5	3,643450
22,675167	0,5	3,590250
22,683500	0,5	3,544750
22,691833	0,5	3,503400
22,700167	0,5	3,446350
22,708500	0,5	3,391250
22,716833	0,5	3,330750
22,725167	0,5	3,270950
22,733500	0,5	3,198300
22,741833	0,5	3,129800
22,750167	0,5	3,053500
22,758500	0,5	2,973500
22,766833	0,5	2,854550
22,775167	0,5	2,762950
22,783500	0,5	2,667750
22,791833	0,5	2,594450
22,800167	0,5	2,491000
22,808500	0,5	2,383400
22,816833	0,5	2,268650
22,825167	0,5	2,154050
22,833500	0,5	2,039800
22,841833	0,5	1,928900
22,850167	0,5	1,814950
22,858500	0,5	1,702200
22,866833	0,5	1,587800
22,875167	0,5	1,484000
22,883500	0,5	1,366650
22,891833	0,5	1,254650
22,900167	0,5	1,140150
22,908500	0,5	1,026350
22,916833	0,5	0,900450
22,925167	0,5	0,777250
22,933500	0,5	0,666450
22,941833	0,5	0,525100
22,950167	0,5	0,394100
22,958500	0,5	0,279200
22,966833	0,5	0,163700
22,975167	0,5	0,053300
22,983500	0,5	-0,060050
22,991833	0,5	-0,162500
23,000167	0,5	-0,257200
23,008500	0,5	-0,354050
23,016833	0,5	-0,441850
23,025167	0,5	-0,525100
23,033500	0,5	-0,604800
23,041833	0,5	-0,687550
23,050167	0,5	-0,756850
23,058500	0,5	-0,813150
23,066833	0,5	-0,895450
23,075167	0,5	-0,963100
23,083500	0,5	-1,058750
23,091833	0,5	-1,142900
23,100167	0,5	-1,209150
23,108500	0,5	-1,262750
23,116833	0,5	-1,308100
23,125167	0,5	-1,362350
23,133500	0,5	-1,415800
23,141833	0,5	-1,457800
23,150167	0,5	-1,487300
23,158500	0,5	-1,518500
23,166833	0,5	-1,550900
23,175167	0,5	-1,576550
23,183500	0,5	-1,606300
23,191833	0,5	-1,623950
23,200167	0,5	-1,659150
23,208500	0,5	-1,664400
23,216833	0,5	-1,679800
23,225167	0,5	-1,702800
23,233500	0,5	-1,756550
23,241833	0,5	-1,786650
23,250167	0,5	-1,813550
23,258500	0,5	-1,820900
23,266833	0,5	-1,833150
23,275167	0,5	-1,842200
23,283500	0,5	-1,852300
23,291833	0,5	-1,856350
23,300167	0,5	-1,857050
23,308500	0,5	-1,856200
23,316833	0,5	-1,852400
23,325167	0,5	-1,847850
23,333500	0,5	-1,843100
23,341833	0,5	-1,836300
23,350167	0,5	-1,820900
23,358500	0,5	-1,854700
23,366833	0,5	-1,824600
23,375167	0,5	-1,801400
23,383500	0,5	-1,821450
23,391833	0,5	-1,835850
23,400167	0,5	-1,837950
23,408500	0,5	-1,830800
23,416833	0,5	-1,824700
23,425167	0,5	-1,827950
23,433500	0,5	-1,820100
23,441833	0,5	-1,818650
23,450167	0,5	-1,804300
23,458500	0,5	-1,797400
23,466833	0,5	-1,783900
23,475167	0,5	-1,768900
23,483500	0,5	-1,752350
23,491833	0,5	-1,737400
23,500167	0,5	-1,730750
23,508500	0,5	-1,764850
23,516833	0,5	-1,721700
23,525167	0,5	-1,680850
23,533500	0,5	-1,681450
23,541833	0,5	-1,677300
23,550167	0,5	-1,676900
23,558500	0,5	-1,663700
23,566833	0,5	-1,659500
23,575167	0,5	-1,651200
23,583500	0,5	-1,647800
23,591833	0,5	-1,638250
23,600167	0,5	-1,628950
23,608500	0,5	-1,616950
23,616833	0,5	-1,611500
23,625167	0,5	-1,601250
23,633500	0,5	-1,585300
23,641833	0,5	-1,575850
23,650167	0,5	-1,658450
23,658500	0,5	-1,621450
23,666833	0,5	-1,582150
23,675167	0,5	-1,535500
23,683500	0,5	-1,517150
23,691833	0,5	-1,511400
23,700167	0,5	-1,499200
23,708500	0,5	-1,488300
23,716833	0,5	-1,478700
23,725167	0,5	-1,464000
23,733500	0,5	-1,452000
23,741833	0,5	-1,436450
23,750167	0,5	-1,423600
23,758500	0,5	-1,410350
23,766833	0,5	-1,397300
23,775167	0,5	-1,381400
23,783500	0,5	-1,368700
23,791833	0,5	-1,374800
23,800167	0,5	-1,455650
23,808500	0,5	-1,421700
23,816833	0,5	-1,380900
23,825167	0,5	-1,329550
23,833500	0,5	-1,313400
23,841833	0,5	-1,308550
23,850167	0,5	-1,303700
23,858500	0,5	-1,294450
23,866833	0,5	-1,270500
23,875167	0,5	-1,255700
23,883500	0,5	-1,236750
23,891833	0,5	-1,223100
23,900167	0,5	-1,205100
23,908500	0,5	-1,191150
23,916833	0,5	-1,169050
23,925167	0,5	-1,151150
23,933500	0,5	-1,138400
23,941833	0,5	-1,217750
23,950167	0,5	-1,209450
23,958500	0,5	-1,192550
23,966833	0,5	-1,127700
23,975167	0,5	-1,088800
23,983500	0,5	-1,064850
23,991833	0,5	-1,058500
24,000167	0,5	-1,056750
24,008500	0,5	-1,044500
24,016833	0,5	-1,025150
24,025167	0,5	-1,012600
24,033500	0,5	-1,005000
24,041833	0,5	-0,984800
24,050167	0,5	-0,969800
24,058500	0,5	-0,950650
24,066833	0,5	-0,937300
24,075167	0,5	-0,918850
24,083500	0,5	-0,908550
24,091833	0,5	-1,006000
24,100167	0,5	-0,968550
24,108500	0,5	-0,933250
24,116833	0,5	-0,878150
24,125167	0,5	-0,851200
24,133500	0,5	-0,840150
24,141833	0,5	-0,825150
24,150167	0,5	-0,824200
24,158500	0,5	-0,807700
24,166833	0,5	-0,787750
24,175167	0,5	-0,768950
24,183500	0,5	-0,752600
24,191833	0,5	-0,742500
24,200167	0,5	-0,728650
24,208500	0,5	-0,710500
24,216833	0,5	-0,697650
24,225167	0,5	-0,689450
24,233500	0,5	-0,706950
24,241833	0,5	-0,769200
24,250167	0,5	-0,724700
24,258500	0,5	-0,705800
24,266833	0,5	-0,656900
24,275167	0,5	-0,643600
24,283500	0,5	-0,625050
24,291833	0,5	-0,620900
24,300167	0,5	-0,617400
24,308500	0,5	-0,602700
24,316833	0,5	-0,585300
24,325167	0,5	-0,577200
24,333500	0,5	-0,562150
24,341833	0,5	-0,546000
24,350167	0,5	-0,530900
24,358500	0,5	-0,514750
24,366833	0,5	-0,501400
24,375167	0,5	-0,486550
24,383500	0,5	-0,537500
24,391833	0,5	-0,539950
24,400167	0,5	-0,519950
24,408500	0,5	-0,486350
24,416833	0,5	-0,455000
24,425167	0,5	-0,444950
24,433500	0,5	-0,442400
24,441833	0,5	-0,444050
24,450167	0,5	-0,442450
24,458500	0,5	-0,427950
24,466833	0,5	-0,419250
24,475167	0,5	-0,406800
24,483500	0,5	-0,398300
24,491833	0,5	-0,382900
24,500167	0,5	-0,374350
24,508500	0,5	-0,361900
24,516833	0,5	-0,352050
24,525167	0,5	-0,351600
24,533500	0,5	-0,386600
24,541833	0,5	-0,373750
24,550167	0,5	-0,359250
24,558500	0,5	-0,331350
24,566833	0,5	-0,308000
24,575167	0,5	-0,305750
24,583500	0,5	-0,302050
24,591833	0,5	-0,302800
24,600167	0,5	-0,297050
24,608500	0,5	-0,293600
24,616833	0,5	-0,281550
24,625167	0,5	-0,278450
24,633500	0,5	-0,267000
24,641833	0,5	-0,263550
24,650167	0,5	-0,253100
24,658500	0,5	-0,247650
24,666833	0,5	-0,240400
24,675167	0,5	-0,244750
24,683500	0,5	-0,266550
24,691833	0,5	-0,254900
24,700167	0,5	-0,239450
24,708500	0,5	-0,219100
24,716833	0,5	-0,210600
24,725167	0,5	-0,206100
24,733500	0,5	-0,204300
24,741833	0,5	-0,205300
24,750167	0,5	-0,197700
24,758500	0,5	-0,187600
24,766833	0,5	-0,184950
24,775167	0,5	-0,177000
24,783500	0,5	-0,172800
24,791833	0,5	-0,165750
24,800167	0,5	-0,161400
24,808500	0,5	-0,154900
24,816833	0,5	-0,156650
24,825167	0,5	-0,172550
24,833500	0,5	-0,168550
24,841833	0,5	-0,163550
24,850167	0,5	-0,151250
24,858500	0,5	-0,138600
24,866833	0,5	-0,132300
24,875167	0,5	-0,129100
24,883500	0,5	-0,135750
24,891833	0,5	-0,129850
24,900167	0,5	-0,124000
24,908500	0,5	-0,120100
24,916833	0,5	-0,119950
24,925167	0,5	-0,113950
24,933500	0,5	-0,106550
24,941833	0,5	-0,104750
24,950167	0,5	-0,096950
24,958500	0,5	-0,096850
24,966833	0,5	-0,091550
24,975167	0,5	-0,109250
24,983500	0,5	-0,096200
24,991833	0,5	-0,098250
25,000167	0,5	-0,085700
25,008500	0,5	-0,083800
25,016833	0,5	-0,077550
25,025167	0,5	-0,081450
25,033500	0,5	-0,084650
25,041833	0,5	-0,079700
25,050167	0,5	-0,076350
25,058500	0,5	-0,076900
25,066833	0,5	-0,074200
25,075167	0,5	-0,069800
25,083500	0,5	-0,068300
25,091833	0,5	-0,066500
25,100167	0,5	-0,061400
25,108500	0,5	-0,062500
25,116833	0,5	-0,065300
25,125167	0,5	-0,067900
25,133500	0,5	-0,060500
25,141833	0,5	-0,056750
25,150167	0,5	-0,050400
25,158500	0,5	-0,049850
25,166833	0,5	-0,048450
25,175167	0,5	-0,047500
25,183500	0,5	-0,051400
25,191833	0,5	-0,049000
25,200167	0,5	-0,045250
25,208500	0,5	-0,049100
25,216833	0,5	-0,049250
25,225167	0,5	-0,049250
25,233500	0,5	-0,047550
25,241833	0,5	-0,046750
25,250167	0,5	-0,043700
25,258500	0,5	-0,043800
25,266833	0,5	-0,044550
25,275167	0,5	-0,042250
25,283500	0,5	-0,040550
25,291833	0,5	-0,038000
25,300167	0,5	-0,038250
25,308500	0,5	-0,036200
25,316833	0,5	-0,036100
25,325167	0,5	-0,032300
25,333500	0,5	-0,035300
25,341833	0,5	-0,034300
25,350167	0,5	-0,033750
25,358500	0,5	-0,031900
25,366833	0,5	-0,032700
25,375167	0,5	-0,031500
25,383500	0,5	-0,032700
25,391833	0,5	-0,032750
25,400167	0,5	-0,032250
25,408500	0,5	-0,035150
25,416833	0,5	-0,033650
25,425167	0,5	-0,031700
25,433500	0,5	-0,028800
25,441833	0,5	-0,031500
25,450167	0,5	-0,031150
25,458500	0,5	-0,030800
25,466833	0,5	-0,030700
25,475167	0,5	-0,029550
25,483500	0,5	-0,027050
25,491833	0,5	-0,026600
25,500167	0,5	-0,026700
25,508500	0,5	-0,027300
25,516833	0,5	-0,025200
25,525167	0,5	-0,027650
25,533500	0,5	-0,026950
25,541833	0,5	-0,028350
25,550167	0,5	-0,029500
25,558500	0,5	-0,026600
25,566833	0,5	-0,028000
25,575167	0,5	-0,025700
25,583500	0,5	-0,025050
25,591833	0,5	-0,027750
25,600167	0,5	-0,031000
25,608500	0,5	-0,029650
25,616833	0,5	-0,029800
25,625167	0,5	-0,026050
25,633500	0,5	-0,025750
25,641833	0,5	-0,025550
25,650167	0,5	-0,025650
25,658500	0,5	-0,025700
25,666833	0,5	-0,025350
25,675167	0,5	-0,023750
25,683500	0,5	-0,028900
25,691833	0,5	-0,024450
25,700167	0,5	-0,024550
25,708500	0,5	-0,023500
25,716833	0,5	-0,022350
25,725167	0,5	-0,016500
25,733500	0,5	-0,021700
25,741833	0,5	-0,024100
25,750167	0,5	-0,026700
25,758500	0,5	-0,026700
25,766833	0,5	-0,019750
25,775167	0,5	-0,023300
25,783500	0,5	-0,023000
25,791833	0,5	-0,021950
25,800167	0,5	-0,019950
25,808500	0,5	-0,022450
25,816833	0,5	-0,021050
25,825167	0,5	-0,022950
25,833500	0,5	-0,021450
25,841833	0,5	-0,020350
25,850167	0,5	-0,020350
25,858500	0,5	-0,017200
25,866833	0,5	-0,019600
25,875167	0,5	-0,016400
25,883500	0,5	-0,018150
25,891833	0,5	-0,020000
25,900167	0,5	-0,019050
25,908500	0,5	-0,020200
25,916833	0,5	-0,012750
25,925167	0,5	-0,016400
25,933500	0,5	-0,017150
25,941833	0,5	-0,015500
25,950167	0,5	-0,010900
25,958500	0,5	-0,012850
25,966833	0,5	-0,009700
25,975167	0,5	-0,010400
25,983500	0,5	-0,010550
25,991833	0,5	-0,006150
26,000167	0,5	-0,006100
