File Path	chrom://chromeleon01/ikbm_chromeleon/2022/ICS-5000/ED1/Esteban/20220612_Cell_7_4_eg.seq/962.smp/ED_1.channel/ED_1.chm
Channel	ED_1

Injection Information:
Data Vault	ikbm_chromeleon
Injection	CelS2_24h-EGI_2
Injection Number	65
Position	GB5
Comment	
Processing Method	Stop sequence after Cell Death
Instrument Method	ICS5000_PA200_FullNative_Ox_26min_ED1
Type	Unknown
Status	Finished
Injection Date	13.06.2022
Injection Time	22:32:44
Injection Volume (µl)	5,0
Dilution Factor	1,0000
Weight	1,0000

Chromatogram Data Information:
Time Min. (min)	0,000167
Time Max. (min)	26,000167
Data Points	3121
Detector	EDet1
Generating Data System	Chromeleon 7.2.9.11323
Exporting Data System	Chromeleon 7.2.9.0
Operator	Instrument Controller
Signal Quantity	
Signal Unit	nC
Signal Min.	-2,252500
Signal Max.	561,003258
Channel	ED_1
Driver Name	DC-5000
Channel Type	Evaluation
Min. Step (s)	0,5
Max. Step (s)	0,5
Average Step (s)	0,5

Signal Parameter Information:
Signal Info	

Chromatogram Data:
Time (min)	Step (s)	Value (nC)
0,000167	n.a.	-0,039650
0,008500	0,5	-0,079400
0,016833	0,5	-0,065750
0,025167	0,5	-0,061800
0,033500	0,5	-0,050650
0,041833	0,5	-0,048050
0,050167	0,5	-0,039700
0,058500	0,5	-0,022250
0,066833	0,5	-0,034000
0,075167	0,5	-0,027900
0,083500	0,5	-0,019300
0,091833	0,5	-0,050250
0,100167	0,5	-0,050950
0,108500	0,5	-0,046200
0,116833	0,5	-0,033800
0,125167	0,5	-0,008600
0,133500	0,5	-0,029650
0,141833	0,5	-0,020900
0,150167	0,5	-0,027250
0,158500	0,5	-0,020850
0,166833	0,5	-0,032100
0,175167	0,5	-0,020800
0,183500	0,5	-0,038150
0,191833	0,5	-0,037750
0,200167	0,5	-0,041800
0,208500	0,5	-0,037300
0,216833	0,5	-0,051800
0,225167	0,5	-0,033600
0,233500	0,5	-0,046750
0,241833	0,5	-0,060600
0,250167	0,5	-0,059500
0,258500	0,5	-0,053700
0,266833	0,5	-0,035600
0,275167	0,5	-0,021050
0,283500	0,5	-0,023150
0,291833	0,5	-0,030550
0,300167	0,5	-0,020500
0,308500	0,5	-0,023600
0,316833	0,5	-0,039000
0,325167	0,5	-0,055250
0,333500	0,5	-0,058450
0,341833	0,5	-0,060600
0,350167	0,5	-0,058950
0,358500	0,5	-0,064800
0,366833	0,5	-0,053100
0,375167	0,5	-0,050900
0,383500	0,5	-0,066100
0,391833	0,5	-0,077550
0,400167	0,5	-0,074800
0,408500	0,5	-0,063750
0,416833	0,5	-0,046000
0,425167	0,5	-0,040600
0,433500	0,5	-0,048250
0,441833	0,5	-0,052400
0,450167	0,5	-0,054850
0,458500	0,5	-0,054350
0,466833	0,5	-0,053800
0,475167	0,5	-0,058900
0,483500	0,5	-0,065050
0,491833	0,5	-0,064100
0,500167	0,5	-0,066950
0,508500	0,5	-0,064150
0,516833	0,5	-0,060550
0,525167	0,5	-0,052650
0,533500	0,5	-0,080900
0,541833	0,5	-0,081150
0,550167	0,5	-0,083800
0,558500	0,5	-0,058550
0,566833	0,5	-0,047300
0,575167	0,5	-0,043500
0,583500	0,5	-0,052700
0,591833	0,5	-0,051200
0,600167	0,5	-0,053000
0,608500	0,5	-0,054550
0,616833	0,5	-0,059100
0,625167	0,5	-0,064800
0,633500	0,5	-0,065150
0,641833	0,5	-0,065000
0,650167	0,5	-0,055350
0,658500	0,5	-0,067250
0,666833	0,5	-0,048250
0,675167	0,5	-0,062400
0,683500	0,5	-0,071600
0,691833	0,5	-0,077000
0,700167	0,5	-0,072000
0,708500	0,5	-0,055100
0,716833	0,5	-0,044250
0,725167	0,5	-0,052000
0,733500	0,5	-0,045900
0,741833	0,5	-0,055950
0,750167	0,5	-0,044550
0,758500	0,5	-0,050650
0,766833	0,5	-0,049000
0,775167	0,5	-0,051050
0,783500	0,5	-0,053250
0,791833	0,5	-0,052500
0,800167	0,5	-0,061200
0,808500	0,5	-0,064000
0,816833	0,5	-0,037200
0,825167	0,5	-0,062000
0,833500	0,5	-0,065500
0,841833	0,5	-0,061350
0,850167	0,5	-0,055750
0,858500	0,5	-0,029350
0,866833	0,5	-0,038000
0,875167	0,5	-0,037900
0,883500	0,5	-0,038850
0,891833	0,5	-0,030900
0,900167	0,5	-0,037950
0,908500	0,5	-0,034550
0,916833	0,5	-0,044450
0,925167	0,5	-0,043150
0,933500	0,5	-0,045950
0,941833	0,5	-0,035400
0,950167	0,5	-0,039700
0,958500	0,5	-0,043050
0,966833	0,5	-0,022300
0,975167	0,5	-0,045250
0,983500	0,5	-0,049800
0,991833	0,5	-0,044950
1,000167	0,5	-0,036150
1,008500	0,5	-0,014800
1,016833	0,5	-0,018350
1,025167	0,5	-0,027950
1,033500	0,5	-0,019200
1,041833	0,5	-0,023150
1,050167	0,5	-0,020500
1,058500	0,5	-0,028850
1,066833	0,5	-0,023500
1,075167	0,5	-0,027300
1,083500	0,5	-0,022800
1,091833	0,5	-0,020700
1,100167	0,5	-0,025850
1,108500	0,5	-0,024000
1,116833	0,5	-0,016050
1,125167	0,5	-0,036250
1,133500	0,5	-0,027400
1,141833	0,5	-0,023450
1,150167	0,5	-0,010550
1,158500	0,5	0,004300
1,166833	0,5	-0,007050
1,175167	0,5	-0,005550
1,183500	0,5	-0,003900
1,191833	0,5	-0,001450
1,200167	0,5	-0,006900
1,208500	0,5	-0,003300
1,216833	0,5	-0,012000
1,225167	0,5	-0,001350
1,233500	0,5	-0,006900
1,241833	0,5	-0,009950
1,250167	0,5	-0,023450
1,258500	0,5	-0,007000
1,266833	0,5	-0,013800
1,275167	0,5	-0,022000
1,283500	0,5	-0,021850
1,291833	0,5	-0,012000
1,300167	0,5	0,000300
1,308500	0,5	0,013250
1,316833	0,5	0,007850
1,325167	0,5	0,016100
1,333500	0,5	0,010950
1,341833	0,5	0,006600
1,350167	0,5	-0,000550
1,358500	0,5	-0,007000
1,366833	0,5	-0,004800
1,375167	0,5	-0,006950
1,383500	0,5	-0,005500
1,391833	0,5	-0,025300
1,400167	0,5	-0,024000
1,408500	0,5	-0,016150
1,416833	0,5	-0,026350
1,425167	0,5	-0,037500
1,433500	0,5	-0,037100
1,441833	0,5	-0,033950
1,450167	0,5	-0,014200
1,458500	0,5	-0,007500
1,466833	0,5	-0,009000
1,475167	0,5	-0,021500
1,483500	0,5	-0,022050
1,491833	0,5	-0,028750
1,500167	0,5	-0,029850
1,508500	0,5	-0,040200
1,516833	0,5	-0,044600
1,525167	0,5	-0,048600
1,533500	0,5	-0,063100
1,541833	0,5	-0,075800
1,550167	0,5	-0,076500
1,558500	0,5	-0,095350
1,566833	0,5	-0,212900
1,575167	0,5	-0,514350
1,583500	0,5	-0,930300
1,591833	0,5	-0,595350
1,600167	0,5	2,769050
1,608500	0,5	14,855650
1,616833	0,5	47,941301
1,625167	0,5	112,560552
1,633500	0,5	191,103903
1,641833	0,5	239,591854
1,650167	0,5	232,900203
1,658500	0,5	188,976903
1,666833	0,5	139,000952
1,675167	0,5	99,109801
1,683500	0,5	71,489051
1,691833	0,5	53,416301
1,700167	0,5	42,071351
1,708500	0,5	35,343601
1,716833	0,5	31,377300
1,725167	0,5	28,270900
1,733500	0,5	24,976150
1,741833	0,5	21,691750
1,750167	0,5	18,954300
1,758500	0,5	16,993900
1,766833	0,5	15,844150
1,775167	0,5	15,352900
1,783500	0,5	15,325950
1,791833	0,5	15,519100
1,800167	0,5	15,797350
1,808500	0,5	15,977400
1,816833	0,5	15,940450
1,825167	0,5	15,519850
1,833500	0,5	14,727200
1,841833	0,5	13,785100
1,850167	0,5	12,931650
1,858500	0,5	12,140850
1,866833	0,5	11,497700
1,875167	0,5	10,991400
1,883500	0,5	10,614000
1,891833	0,5	10,411950
1,900167	0,5	10,344200
1,908500	0,5	10,378450
1,916833	0,5	10,338350
1,925167	0,5	10,286500
1,933500	0,5	10,684100
1,941833	0,5	12,393500
1,950167	0,5	16,884800
1,958500	0,5	27,688250
1,966833	0,5	50,845501
1,975167	0,5	87,488251
1,983500	0,5	121,676352
1,991833	0,5	130,561902
2,000167	0,5	111,854402
2,008500	0,5	83,130851
2,016833	0,5	58,904501
2,025167	0,5	42,359751
2,033500	0,5	31,785350
2,041833	0,5	25,336050
2,050167	0,5	21,878550
2,058500	0,5	20,823500
2,066833	0,5	21,250950
2,075167	0,5	21,548650
2,083500	0,5	20,609100
2,091833	0,5	18,712050
2,100167	0,5	16,661150
2,108500	0,5	14,916000
2,116833	0,5	13,632350
2,125167	0,5	12,785700
2,133500	0,5	12,271350
2,141833	0,5	11,952800
2,150167	0,5	11,769150
2,158500	0,5	11,598250
2,166833	0,5	11,384900
2,175167	0,5	11,091550
2,183500	0,5	10,799850
2,191833	0,5	10,523200
2,200167	0,5	10,276650
2,208500	0,5	10,113150
2,216833	0,5	10,048200
2,225167	0,5	10,031650
2,233500	0,5	9,999300
2,241833	0,5	9,929150
2,250167	0,5	9,851850
2,258500	0,5	9,816800
2,266833	0,5	9,805700
2,275167	0,5	9,831400
2,283500	0,5	9,845050
2,291833	0,5	9,892950
2,300167	0,5	9,955950
2,308500	0,5	10,051150
2,316833	0,5	10,186350
2,325167	0,5	10,342850
2,333500	0,5	10,529950
2,341833	0,5	10,775050
2,350167	0,5	11,053200
2,358500	0,5	11,344150
2,366833	0,5	11,525050
2,375167	0,5	11,616500
2,383500	0,5	11,725850
2,391833	0,5	11,981100
2,400167	0,5	12,368200
2,408500	0,5	12,782400
2,416833	0,5	13,143450
2,425167	0,5	13,358850
2,433500	0,5	13,449600
2,441833	0,5	13,425750
2,450167	0,5	13,304500
2,458500	0,5	13,169200
2,466833	0,5	13,082450
2,475167	0,5	13,116850
2,483500	0,5	13,384250
2,491833	0,5	13,927950
2,500167	0,5	14,651150
2,508500	0,5	15,207800
2,516833	0,5	15,385550
2,525167	0,5	15,308700
2,533500	0,5	15,562000
2,541833	0,5	16,895200
2,550167	0,5	20,067250
2,558500	0,5	25,624200
2,566833	0,5	34,120301
2,575167	0,5	47,222301
2,583500	0,5	70,537851
2,591833	0,5	117,421002
2,600167	0,5	207,592103
2,608500	0,5	343,565455
2,616833	0,5	482,059507
2,625167	0,5	561,003258
2,633500	0,5	556,216908
2,641833	0,5	487,484807
2,650167	0,5	390,331206
2,658500	0,5	294,628704
2,666833	0,5	215,954153
2,675167	0,5	158,004402
2,683500	0,5	118,027052
2,691833	0,5	91,528151
2,700167	0,5	74,278501
2,708500	0,5	62,978951
2,716833	0,5	55,183001
2,725167	0,5	49,204901
2,733500	0,5	44,088201
2,741833	0,5	39,341451
2,750167	0,5	34,924751
2,758500	0,5	30,992750
2,766833	0,5	27,649350
2,775167	0,5	24,925350
2,783500	0,5	22,747000
2,791833	0,5	20,998350
2,800167	0,5	19,596200
2,808500	0,5	18,422000
2,816833	0,5	17,424700
2,825167	0,5	16,546500
2,833500	0,5	15,779900
2,841833	0,5	15,089050
2,850167	0,5	14,495750
2,858500	0,5	13,989750
2,866833	0,5	13,577500
2,875167	0,5	13,237500
2,883500	0,5	12,991450
2,891833	0,5	12,701600
2,900167	0,5	12,382700
2,908500	0,5	11,995100
2,916833	0,5	11,550350
2,925167	0,5	11,104550
2,933500	0,5	10,656400
2,941833	0,5	10,264500
2,950167	0,5	9,948550
2,958500	0,5	9,690400
2,966833	0,5	9,503200
2,975167	0,5	9,403450
2,983500	0,5	9,426550
2,991833	0,5	9,608100
3,000167	0,5	9,965550
3,008500	0,5	10,431850
3,016833	0,5	10,827150
3,025167	0,5	10,987200
3,033500	0,5	10,801550
3,041833	0,5	10,257500
3,050167	0,5	9,546350
3,058500	0,5	8,827200
3,066833	0,5	8,218400
3,075167	0,5	7,763700
3,083500	0,5	7,409950
3,091833	0,5	7,150050
3,100167	0,5	6,943750
3,108500	0,5	6,766200
3,116833	0,5	6,597850
3,125167	0,5	6,439850
3,133500	0,5	6,283950
3,141833	0,5	6,134050
3,150167	0,5	6,003800
3,158500	0,5	5,875550
3,166833	0,5	5,769550
3,175167	0,5	5,675000
3,183500	0,5	5,598400
3,191833	0,5	5,499450
3,200167	0,5	5,423850
3,208500	0,5	5,331450
3,216833	0,5	5,252800
3,225167	0,5	5,170250
3,233500	0,5	5,089000
3,241833	0,5	5,000450
3,250167	0,5	4,933750
3,258500	0,5	4,869250
3,266833	0,5	4,820350
3,275167	0,5	4,779100
3,283500	0,5	4,740800
3,291833	0,5	4,712450
3,300167	0,5	4,693300
3,308500	0,5	4,687600
3,316833	0,5	4,679650
3,325167	0,5	4,676850
3,333500	0,5	4,651600
3,341833	0,5	4,601500
3,350167	0,5	4,550000
3,358500	0,5	4,487150
3,366833	0,5	4,428100
3,375167	0,5	4,375900
3,383500	0,5	4,319800
3,391833	0,5	4,292700
3,400167	0,5	4,275850
3,408500	0,5	4,294100
3,416833	0,5	4,328700
3,425167	0,5	4,413500
3,433500	0,5	4,539550
3,441833	0,5	4,757900
3,450167	0,5	5,073250
3,458500	0,5	5,505600
3,466833	0,5	6,032650
3,475167	0,5	6,585400
3,483500	0,5	7,024000
3,491833	0,5	7,263600
3,500167	0,5	7,236100
3,508500	0,5	6,943700
3,516833	0,5	6,465100
3,525167	0,5	5,888750
3,533500	0,5	5,327250
3,541833	0,5	4,834300
3,550167	0,5	4,456650
3,558500	0,5	4,162600
3,566833	0,5	3,959100
3,575167	0,5	3,795950
3,583500	0,5	3,682000
3,591833	0,5	3,597400
3,600167	0,5	3,538250
3,608500	0,5	3,481250
3,616833	0,5	3,469950
3,625167	0,5	3,440000
3,633500	0,5	3,408900
3,641833	0,5	3,391200
3,650167	0,5	3,385600
3,658500	0,5	3,382950
3,666833	0,5	3,379000
3,675167	0,5	3,368550
3,683500	0,5	3,353300
3,691833	0,5	3,342400
3,700167	0,5	3,325000
3,708500	0,5	3,312100
3,716833	0,5	3,294150
3,725167	0,5	3,282100
3,733500	0,5	3,264650
3,741833	0,5	3,255050
3,750167	0,5	3,251500
3,758500	0,5	3,244200
3,766833	0,5	3,252350
3,775167	0,5	3,234900
3,783500	0,5	3,214550
3,791833	0,5	3,195100
3,800167	0,5	3,172750
3,808500	0,5	3,162650
3,816833	0,5	3,143600
3,825167	0,5	3,123850
3,833500	0,5	3,117000
3,841833	0,5	3,135850
3,850167	0,5	3,176800
3,858500	0,5	3,252450
3,866833	0,5	3,373700
3,875167	0,5	3,537500
3,883500	0,5	3,759150
3,891833	0,5	4,017850
3,900167	0,5	4,320200
3,908500	0,5	4,629400
3,916833	0,5	4,951100
3,925167	0,5	5,233350
3,933500	0,5	5,545850
3,941833	0,5	5,902150
3,950167	0,5	6,348450
3,958500	0,5	6,902250
3,966833	0,5	7,525700
3,975167	0,5	8,161600
3,983500	0,5	8,724400
3,991833	0,5	9,098250
4,000167	0,5	9,198650
4,008500	0,5	9,003000
4,016833	0,5	8,529150
4,025167	0,5	7,852400
4,033500	0,5	7,068600
4,041833	0,5	6,285200
4,050167	0,5	5,562900
4,058500	0,5	4,963250
4,066833	0,5	4,522800
4,075167	0,5	4,200800
4,083500	0,5	4,019900
4,091833	0,5	3,949250
4,100167	0,5	3,952350
4,108500	0,5	4,009200
4,116833	0,5	4,030750
4,125167	0,5	4,032500
4,133500	0,5	3,987150
4,141833	0,5	3,918950
4,150167	0,5	3,823500
4,158500	0,5	3,739700
4,166833	0,5	3,680550
4,175167	0,5	3,677600
4,183500	0,5	3,728650
4,191833	0,5	3,823850
4,200167	0,5	3,962200
4,208500	0,5	4,099300
4,216833	0,5	4,207100
4,225167	0,5	4,234500
4,233500	0,5	4,201400
4,241833	0,5	4,085750
4,250167	0,5	3,920250
4,258500	0,5	3,700500
4,266833	0,5	3,462600
4,275167	0,5	3,220100
4,283500	0,5	3,012150
4,291833	0,5	2,828050
4,300167	0,5	2,699200
4,308500	0,5	2,592250
4,316833	0,5	2,517550
4,325167	0,5	2,459650
4,333500	0,5	2,421600
4,341833	0,5	2,389200
4,350167	0,5	2,367750
4,358500	0,5	2,354050
4,366833	0,5	2,331250
4,375167	0,5	2,301750
4,383500	0,5	2,283850
4,391833	0,5	2,271900
4,400167	0,5	2,267750
4,408500	0,5	2,264650
4,416833	0,5	2,242900
4,425167	0,5	2,230800
4,433500	0,5	2,222200
4,441833	0,5	2,215900
4,450167	0,5	2,205100
4,458500	0,5	2,205050
4,466833	0,5	2,204050
4,475167	0,5	2,215200
4,483500	0,5	2,224200
4,491833	0,5	2,228050
4,500167	0,5	2,238200
4,508500	0,5	2,255550
4,516833	0,5	2,248550
4,525167	0,5	2,243300
4,533500	0,5	2,238550
4,541833	0,5	2,234300
4,550167	0,5	2,229250
4,558500	0,5	2,215350
4,566833	0,5	2,196800
4,575167	0,5	2,178100
4,583500	0,5	2,167200
4,591833	0,5	2,160250
4,600167	0,5	2,165750
4,608500	0,5	2,167950
4,616833	0,5	2,184800
4,625167	0,5	2,209950
4,633500	0,5	2,251900
4,641833	0,5	2,298450
4,650167	0,5	2,382050
4,658500	0,5	2,484150
4,666833	0,5	2,618050
4,675167	0,5	2,811850
4,683500	0,5	3,082850
4,691833	0,5	3,446250
4,700167	0,5	3,897900
4,708500	0,5	4,411000
4,716833	0,5	4,971750
4,725167	0,5	5,516100
4,733500	0,5	5,987350
4,741833	0,5	6,316200
4,750167	0,5	6,463450
4,758500	0,5	6,418450
4,766833	0,5	6,197800
4,775167	0,5	5,847650
4,783500	0,5	5,405800
4,791833	0,5	4,936100
4,800167	0,5	4,487900
4,808500	0,5	4,057150
4,816833	0,5	3,678700
4,825167	0,5	3,366000
4,833500	0,5	3,109300
4,841833	0,5	2,915450
4,850167	0,5	2,750950
4,858500	0,5	2,618650
4,866833	0,5	2,512550
4,875167	0,5	2,437850
4,883500	0,5	2,385600
4,891833	0,5	2,347950
4,900167	0,5	2,328800
4,908500	0,5	2,318500
4,916833	0,5	2,329200
4,925167	0,5	2,344550
4,933500	0,5	2,380150
4,941833	0,5	2,392350
4,950167	0,5	2,423950
4,958500	0,5	2,417800
4,966833	0,5	2,411800
4,975167	0,5	2,390900
4,983500	0,5	2,371450
4,991833	0,5	2,340500
5,000167	0,5	2,293750
5,008500	0,5	2,240100
5,016833	0,5	2,196050
5,025167	0,5	2,146550
5,033500	0,5	2,102650
5,041833	0,5	2,054500
5,050167	0,5	2,014200
5,058500	0,5	1,968000
5,066833	0,5	1,927250
5,075167	0,5	1,895250
5,083500	0,5	1,865000
5,091833	0,5	1,834750
5,100167	0,5	1,823650
5,108500	0,5	1,784550
5,116833	0,5	1,763950
5,125167	0,5	1,752250
5,133500	0,5	1,748300
5,141833	0,5	1,755200
5,150167	0,5	1,745450
5,158500	0,5	1,746200
5,166833	0,5	1,736600
5,175167	0,5	1,737650
5,183500	0,5	1,735750
5,191833	0,5	1,734900
5,200167	0,5	1,728850
5,208500	0,5	1,727000
5,216833	0,5	1,721050
5,225167	0,5	1,712850
5,233500	0,5	1,702450
5,241833	0,5	1,697400
5,250167	0,5	1,678900
5,258500	0,5	1,655250
5,266833	0,5	1,642300
5,275167	0,5	1,631300
5,283500	0,5	1,626800
5,291833	0,5	1,628950
5,300167	0,5	1,618900
5,308500	0,5	1,606300
5,316833	0,5	1,596650
5,325167	0,5	1,593200
5,333500	0,5	1,592150
5,341833	0,5	1,585600
5,350167	0,5	1,589150
5,358500	0,5	1,586200
5,366833	0,5	1,590550
5,375167	0,5	1,595300
5,383500	0,5	1,598550
5,391833	0,5	1,606000
5,400167	0,5	1,611400
5,408500	0,5	1,616900
5,416833	0,5	1,638000
5,425167	0,5	1,664800
5,433500	0,5	1,704800
5,441833	0,5	1,744150
5,450167	0,5	1,771000
5,458500	0,5	1,785900
5,466833	0,5	1,792300
5,475167	0,5	1,789950
5,483500	0,5	1,773200
5,491833	0,5	1,756000
5,500167	0,5	1,732800
5,508500	0,5	1,727750
5,516833	0,5	1,723200
5,525167	0,5	1,727350
5,533500	0,5	1,733950
5,541833	0,5	1,746650
5,550167	0,5	1,736350
5,558500	0,5	1,728850
5,566833	0,5	1,723650
5,575167	0,5	1,725850
5,583500	0,5	1,735150
5,591833	0,5	1,733400
5,600167	0,5	1,734600
5,608500	0,5	1,728150
5,616833	0,5	1,714550
5,625167	0,5	1,686000
5,633500	0,5	1,643400
5,641833	0,5	1,593000
5,650167	0,5	1,531200
5,658500	0,5	1,476350
5,666833	0,5	1,429100
5,675167	0,5	1,379450
5,683500	0,5	1,355700
5,691833	0,5	1,331850
5,700167	0,5	1,311750
5,708500	0,5	1,297650
5,716833	0,5	1,292400
5,725167	0,5	1,299050
5,733500	0,5	1,302200
5,741833	0,5	1,289550
5,750167	0,5	1,290750
5,758500	0,5	1,280950
5,766833	0,5	1,282050
5,775167	0,5	1,275250
5,783500	0,5	1,275400
5,791833	0,5	1,272000
5,800167	0,5	1,269950
5,808500	0,5	1,271100
5,816833	0,5	1,266050
5,825167	0,5	1,254900
5,833500	0,5	1,254400
5,841833	0,5	1,235550
5,850167	0,5	1,216000
5,858500	0,5	1,198300
5,866833	0,5	1,191350
5,875167	0,5	1,186250
5,883500	0,5	1,174300
5,891833	0,5	1,158650
5,900167	0,5	1,148550
5,908500	0,5	1,139800
5,916833	0,5	1,129300
5,925167	0,5	1,126200
5,933500	0,5	1,118600
5,941833	0,5	1,121950
5,950167	0,5	1,133100
5,958500	0,5	1,146450
5,966833	0,5	1,178600
5,975167	0,5	1,203400
5,983500	0,5	1,251000
5,991833	0,5	1,276650
6,000167	0,5	1,303350
6,008500	0,5	1,321250
6,016833	0,5	1,329350
6,025167	0,5	1,326650
6,033500	0,5	1,302350
6,041833	0,5	1,260250
6,050167	0,5	1,224050
6,058500	0,5	1,180500
6,066833	0,5	1,143900
6,075167	0,5	1,106500
6,083500	0,5	1,079800
6,091833	0,5	1,054250
6,100167	0,5	1,040150
6,108500	0,5	1,031600
6,116833	0,5	1,025550
6,125167	0,5	1,024500
6,133500	0,5	1,034750
6,141833	0,5	1,026700
6,150167	0,5	1,033550
6,158500	0,5	1,038200
6,166833	0,5	1,050000
6,175167	0,5	1,065800
6,183500	0,5	1,068600
6,191833	0,5	1,075700
6,200167	0,5	1,078950
6,208500	0,5	1,088800
6,216833	0,5	1,093250
6,225167	0,5	1,098200
6,233500	0,5	1,097050
6,241833	0,5	1,092150
6,250167	0,5	1,086700
6,258500	0,5	1,066800
6,266833	0,5	1,051100
6,275167	0,5	1,035200
6,283500	0,5	1,015350
6,291833	0,5	0,997400
6,300167	0,5	0,982850
6,308500	0,5	0,978850
6,316833	0,5	0,984500
6,325167	0,5	1,002200
6,333500	0,5	1,027200
6,341833	0,5	1,065050
6,350167	0,5	1,118600
6,358500	0,5	1,193750
6,366833	0,5	1,287450
6,375167	0,5	1,394750
6,383500	0,5	1,502300
6,391833	0,5	1,597200
6,400167	0,5	1,671300
6,408500	0,5	1,706150
6,416833	0,5	1,707150
6,425167	0,5	1,672000
6,433500	0,5	1,606850
6,441833	0,5	1,519700
6,450167	0,5	1,436200
6,458500	0,5	1,354500
6,466833	0,5	1,289450
6,475167	0,5	1,224900
6,483500	0,5	1,163750
6,491833	0,5	1,111600
6,500167	0,5	1,064350
6,508500	0,5	1,022100
6,516833	0,5	0,989150
6,525167	0,5	0,960750
6,533500	0,5	0,939550
6,541833	0,5	0,925250
6,550167	0,5	0,911950
6,558500	0,5	0,904000
6,566833	0,5	0,898700
6,575167	0,5	0,898550
6,583500	0,5	0,889800
6,591833	0,5	0,886450
6,600167	0,5	0,889900
6,608500	0,5	0,901950
6,616833	0,5	0,922800
6,625167	0,5	0,952050
6,633500	0,5	0,992350
6,641833	0,5	1,041000
6,650167	0,5	1,092600
6,658500	0,5	1,159950
6,666833	0,5	1,219250
6,675167	0,5	1,269450
6,683500	0,5	1,297250
6,691833	0,5	1,311150
6,700167	0,5	1,299550
6,708500	0,5	1,260600
6,716833	0,5	1,220650
6,725167	0,5	1,169250
6,733500	0,5	1,116200
6,741833	0,5	1,070200
6,750167	0,5	1,041800
6,758500	0,5	1,030550
6,766833	0,5	1,033000
6,775167	0,5	1,030450
6,783500	0,5	1,042250
6,791833	0,5	1,052400
6,800167	0,5	1,068500
6,808500	0,5	1,082850
6,816833	0,5	1,100150
6,825167	0,5	1,129000
6,833500	0,5	1,180350
6,841833	0,5	1,249750
6,850167	0,5	1,345400
6,858500	0,5	1,465500
6,866833	0,5	1,619100
6,875167	0,5	1,772200
6,883500	0,5	1,918950
6,891833	0,5	2,049000
6,900167	0,5	2,149800
6,908500	0,5	2,232000
6,916833	0,5	2,267550
6,925167	0,5	2,278900
6,933500	0,5	2,287650
6,941833	0,5	2,316400
6,950167	0,5	2,388100
6,958500	0,5	2,522600
6,966833	0,5	2,736300
6,975167	0,5	3,030250
6,983500	0,5	3,397800
6,991833	0,5	3,833400
7,000167	0,5	4,316150
7,008500	0,5	4,836250
7,016833	0,5	5,413900
7,025167	0,5	6,056300
7,033500	0,5	6,834150
7,041833	0,5	7,852950
7,050167	0,5	9,321750
7,058500	0,5	11,598200
7,066833	0,5	15,177350
7,075167	0,5	20,795500
7,083500	0,5	29,181350
7,091833	0,5	40,688351
7,100167	0,5	54,772701
7,108500	0,5	69,742951
7,116833	0,5	83,127251
7,125167	0,5	92,464901
7,133500	0,5	96,296751
7,141833	0,5	94,473601
7,150167	0,5	88,056001
7,158500	0,5	78,619751
7,166833	0,5	67,724801
7,175167	0,5	56,466801
7,183500	0,5	45,659351
7,191833	0,5	35,805701
7,200167	0,5	27,338800
7,208500	0,5	20,493350
7,216833	0,5	15,253150
7,225167	0,5	11,428150
7,233500	0,5	8,732050
7,241833	0,5	6,859900
7,250167	0,5	5,563150
7,258500	0,5	4,665350
7,266833	0,5	4,023750
7,275167	0,5	3,565250
7,283500	0,5	3,234750
7,291833	0,5	2,989950
7,300167	0,5	2,805750
7,308500	0,5	2,682100
7,316833	0,5	2,587250
7,325167	0,5	2,513450
7,333500	0,5	2,448150
7,341833	0,5	2,390250
7,350167	0,5	2,330650
7,358500	0,5	2,275450
7,366833	0,5	2,217350
7,375167	0,5	2,178300
7,383500	0,5	2,164100
7,391833	0,5	2,178600
7,400167	0,5	2,205850
7,408500	0,5	2,228750
7,416833	0,5	2,220050
7,425167	0,5	2,174950
7,433500	0,5	2,080800
7,441833	0,5	1,949850
7,450167	0,5	1,806150
7,458500	0,5	1,675150
7,466833	0,5	1,554200
7,475167	0,5	1,457250
7,483500	0,5	1,382300
7,491833	0,5	1,329050
7,500167	0,5	1,302900
7,508500	0,5	1,292950
7,516833	0,5	1,297600
7,525167	0,5	1,318850
7,533500	0,5	1,366400
7,541833	0,5	1,423450
7,550167	0,5	1,489950
7,558500	0,5	1,541950
7,566833	0,5	1,574700
7,575167	0,5	1,585250
7,583500	0,5	1,566850
7,591833	0,5	1,536450
7,600167	0,5	1,510050
7,608500	0,5	1,510100
7,616833	0,5	1,491000
7,625167	0,5	1,500650
7,633500	0,5	1,521600
7,641833	0,5	1,554000
7,650167	0,5	1,585000
7,658500	0,5	1,602300
7,666833	0,5	1,595050
7,675167	0,5	1,563900
7,683500	0,5	1,513200
7,691833	0,5	1,460450
7,700167	0,5	1,416200
7,708500	0,5	1,384750
7,716833	0,5	1,356650
7,725167	0,5	1,332900
7,733500	0,5	1,306850
7,741833	0,5	1,271050
7,750167	0,5	1,234400
7,758500	0,5	1,204350
7,766833	0,5	1,174100
7,775167	0,5	1,142750
7,783500	0,5	1,119400
7,791833	0,5	1,101700
7,800167	0,5	1,087900
7,808500	0,5	1,081650
7,816833	0,5	1,100350
7,825167	0,5	1,138450
7,833500	0,5	1,194600
7,841833	0,5	1,242100
7,850167	0,5	1,272300
7,858500	0,5	1,265250
7,866833	0,5	1,227100
7,875167	0,5	1,168000
7,883500	0,5	1,111100
7,891833	0,5	1,055200
7,900167	0,5	1,020300
7,908500	0,5	0,996300
7,916833	0,5	0,974450
7,925167	0,5	0,965050
7,933500	0,5	0,954400
7,941833	0,5	0,948800
7,950167	0,5	0,950750
7,958500	0,5	0,948300
7,966833	0,5	0,958800
7,975167	0,5	0,980800
7,983500	0,5	1,026600
7,991833	0,5	1,101050
8,000167	0,5	1,193000
8,008500	0,5	1,309650
8,016833	0,5	1,427000
8,025167	0,5	1,532300
8,033500	0,5	1,600450
8,041833	0,5	1,620950
8,050167	0,5	1,598050
8,058500	0,5	1,539500
8,066833	0,5	1,461450
8,075167	0,5	1,380900
8,083500	0,5	1,312900
8,091833	0,5	1,261350
8,100167	0,5	1,225350
8,108500	0,5	1,197800
8,116833	0,5	1,185250
8,125167	0,5	1,194650
8,133500	0,5	1,212150
8,141833	0,5	1,232450
8,150167	0,5	1,237700
8,158500	0,5	1,215850
8,166833	0,5	1,169100
8,175167	0,5	1,114350
8,183500	0,5	1,063800
8,191833	0,5	1,027250
8,200167	0,5	1,002350
8,208500	0,5	0,985350
8,216833	0,5	0,976550
8,225167	0,5	0,966500
8,233500	0,5	0,962700
8,241833	0,5	0,957750
8,250167	0,5	0,960600
8,258500	0,5	0,966750
8,266833	0,5	0,979400
8,275167	0,5	0,992850
8,283500	0,5	1,002600
8,291833	0,5	1,010500
8,300167	0,5	1,011250
8,308500	0,5	1,002850
8,316833	0,5	0,995150
8,325167	0,5	0,982100
8,333500	0,5	0,972100
8,341833	0,5	0,966800
8,350167	0,5	0,973450
8,358500	0,5	0,980300
8,366833	0,5	1,002950
8,375167	0,5	1,035500
8,383500	0,5	1,083000
8,391833	0,5	1,131050
8,400167	0,5	1,177800
8,408500	0,5	1,214600
8,416833	0,5	1,231150
8,425167	0,5	1,234300
8,433500	0,5	1,220700
8,441833	0,5	1,200350
8,450167	0,5	1,182200
8,458500	0,5	1,172500
8,466833	0,5	1,178900
8,475167	0,5	1,206400
8,483500	0,5	1,243600
8,491833	0,5	1,304050
8,500167	0,5	1,379450
8,508500	0,5	1,483550
8,516833	0,5	1,642100
8,525167	0,5	1,887950
8,533500	0,5	2,255100
8,541833	0,5	2,751450
8,550167	0,5	3,378300
8,558500	0,5	4,123200
8,566833	0,5	4,968750
8,575167	0,5	5,927200
8,583500	0,5	7,064450
8,591833	0,5	8,548600
8,600167	0,5	10,755900
8,608500	0,5	14,395650
8,616833	0,5	20,545500
8,625167	0,5	30,407900
8,633500	0,5	44,600001
8,641833	0,5	62,177351
8,650167	0,5	80,301101
8,658500	0,5	95,267801
8,666833	0,5	103,953702
8,675167	0,5	104,778852
8,683500	0,5	98,033601
8,691833	0,5	85,499501
8,700167	0,5	69,849201
8,708500	0,5	53,858001
8,716833	0,5	39,582551
8,725167	0,5	28,104900
8,733500	0,5	19,622150
8,741833	0,5	13,757050
8,750167	0,5	9,897650
8,758500	0,5	7,437050
8,766833	0,5	5,881850
8,775167	0,5	4,881450
8,783500	0,5	4,221900
8,791833	0,5	3,766950
8,800167	0,5	3,436850
8,808500	0,5	3,189600
8,816833	0,5	3,004100
8,825167	0,5	2,871650
8,833500	0,5	2,779400
8,841833	0,5	2,702900
8,850167	0,5	2,632650
8,858500	0,5	2,555800
8,866833	0,5	2,478300
8,875167	0,5	2,393200
8,883500	0,5	2,311450
8,891833	0,5	2,242000
8,900167	0,5	2,172300
8,908500	0,5	2,101400
8,916833	0,5	2,020250
8,925167	0,5	1,943100
8,933500	0,5	1,861350
8,941833	0,5	1,791100
8,950167	0,5	1,730150
8,958500	0,5	1,676600
8,966833	0,5	1,629950
8,975167	0,5	1,592100
8,983500	0,5	1,556900
8,991833	0,5	1,525900
9,000167	0,5	1,499750
9,008500	0,5	1,479950
9,016833	0,5	1,465300
9,025167	0,5	1,456850
9,033500	0,5	1,440750
9,041833	0,5	1,424200
9,050167	0,5	1,405000
9,058500	0,5	1,383050
9,066833	0,5	1,357150
9,075167	0,5	1,329200
9,083500	0,5	1,305550
9,091833	0,5	1,282500
9,100167	0,5	1,265300
9,108500	0,5	1,247150
9,116833	0,5	1,232500
9,125167	0,5	1,230600
9,133500	0,5	1,222300
9,141833	0,5	1,216900
9,150167	0,5	1,209350
9,158500	0,5	1,208700
9,166833	0,5	1,211200
9,175167	0,5	1,214600
9,183500	0,5	1,229150
9,191833	0,5	1,252800
9,200167	0,5	1,289550
9,208500	0,5	1,334350
9,216833	0,5	1,381900
9,225167	0,5	1,422650
9,233500	0,5	1,461200
9,241833	0,5	1,477450
9,250167	0,5	1,479900
9,258500	0,5	1,468600
9,266833	0,5	1,447450
9,275167	0,5	1,418350
9,283500	0,5	1,378850
9,291833	0,5	1,334500
9,300167	0,5	1,285400
9,308500	0,5	1,240050
9,316833	0,5	1,197550
9,325167	0,5	1,163200
9,333500	0,5	1,135000
9,341833	0,5	1,115500
9,350167	0,5	1,100000
9,358500	0,5	1,089400
9,366833	0,5	1,081600
9,375167	0,5	1,077450
9,383500	0,5	1,079200
9,391833	0,5	1,081200
9,400167	0,5	1,085450
9,408500	0,5	1,087050
9,416833	0,5	1,093200
9,425167	0,5	1,096150
9,433500	0,5	1,103050
9,441833	0,5	1,098900
9,450167	0,5	1,102300
9,458500	0,5	1,095900
9,466833	0,5	1,087350
9,475167	0,5	1,080850
9,483500	0,5	1,072450
9,491833	0,5	1,063150
9,500167	0,5	1,058850
9,508500	0,5	1,056950
9,516833	0,5	1,057650
9,525167	0,5	1,056750
9,533500	0,5	1,059450
9,541833	0,5	1,060000
9,550167	0,5	1,062550
9,558500	0,5	1,065150
9,566833	0,5	1,068750
9,575167	0,5	1,070700
9,583500	0,5	1,073050
9,591833	0,5	1,069400
9,600167	0,5	1,067100
9,608500	0,5	1,064150
9,616833	0,5	1,060450
9,625167	0,5	1,060150
9,633500	0,5	1,055700
9,641833	0,5	1,054200
9,650167	0,5	1,047750
9,658500	0,5	1,042850
9,666833	0,5	1,030950
9,675167	0,5	1,027800
9,683500	0,5	1,021550
9,691833	0,5	1,018150
9,700167	0,5	1,014750
9,708500	0,5	1,020950
9,716833	0,5	1,038300
9,725167	0,5	1,060250
9,733500	0,5	1,094600
9,741833	0,5	1,138550
9,750167	0,5	1,196450
9,758500	0,5	1,263350
9,766833	0,5	1,336850
9,775167	0,5	1,407700
9,783500	0,5	1,459300
9,791833	0,5	1,479900
9,800167	0,5	1,455500
9,808500	0,5	1,399900
9,816833	0,5	1,317600
9,825167	0,5	1,226900
9,833500	0,5	1,146700
9,841833	0,5	1,074350
9,850167	0,5	1,023900
9,858500	0,5	0,985450
9,866833	0,5	0,966050
9,875167	0,5	0,949800
9,883500	0,5	0,944150
9,891833	0,5	0,933250
9,900167	0,5	0,931450
9,908500	0,5	0,929050
9,916833	0,5	0,927850
9,925167	0,5	0,930350
9,933500	0,5	0,934850
9,941833	0,5	0,936350
9,950167	0,5	0,942900
9,958500	0,5	0,943400
9,966833	0,5	0,937850
9,975167	0,5	0,942100
9,983500	0,5	0,940650
9,991833	0,5	0,942500
10,000167	0,5	0,948450
10,008500	0,5	0,962550
10,016833	0,5	0,981650
10,025167	0,5	1,001750
10,033500	0,5	1,015450
10,041833	0,5	1,026400
10,050167	0,5	1,030700
10,058500	0,5	1,035350
10,066833	0,5	1,041100
10,075167	0,5	1,047250
10,083500	0,5	1,056350
10,091833	0,5	1,066200
10,100167	0,5	1,072650
10,108500	0,5	1,071350
10,116833	0,5	1,060400
10,125167	0,5	1,046950
10,133500	0,5	1,025600
10,141833	0,5	1,001700
10,150167	0,5	0,993100
10,158500	0,5	0,991700
10,166833	0,5	1,008300
10,175167	0,5	1,033900
10,183500	0,5	1,071350
10,191833	0,5	1,109400
10,200167	0,5	1,141650
10,208500	0,5	1,166400
10,216833	0,5	1,190300
10,225167	0,5	1,221850
10,233500	0,5	1,272600
10,241833	0,5	1,338900
10,250167	0,5	1,414100
10,258500	0,5	1,480900
10,266833	0,5	1,520400
10,275167	0,5	1,509650
10,283500	0,5	1,444700
10,291833	0,5	1,341000
10,300167	0,5	1,219950
10,308500	0,5	1,109050
10,316833	0,5	1,010550
10,325167	0,5	0,941250
10,333500	0,5	0,896000
10,341833	0,5	0,869100
10,350167	0,5	0,855750
10,358500	0,5	0,853650
10,366833	0,5	0,853400
10,375167	0,5	0,854400
10,383500	0,5	0,855850
10,391833	0,5	0,855150
10,400167	0,5	0,848650
10,408500	0,5	0,842000
10,416833	0,5	0,831400
10,425167	0,5	0,823250
10,433500	0,5	0,813150
10,441833	0,5	0,808700
10,450167	0,5	0,802600
10,458500	0,5	0,800650
10,466833	0,5	0,800900
10,475167	0,5	0,801200
10,483500	0,5	0,804800
10,491833	0,5	0,807950
10,500167	0,5	0,817500
10,508500	0,5	0,834850
10,516833	0,5	0,844850
10,525167	0,5	0,864550
10,533500	0,5	0,889900
10,541833	0,5	0,913450
10,550167	0,5	0,929350
10,558500	0,5	0,934450
10,566833	0,5	0,939550
10,575167	0,5	0,927500
10,583500	0,5	0,910900
10,591833	0,5	0,902650
10,600167	0,5	0,901750
10,608500	0,5	0,911550
10,616833	0,5	0,940700
10,625167	0,5	0,993800
10,633500	0,5	1,067900
10,641833	0,5	1,166700
10,650167	0,5	1,269350
10,658500	0,5	1,369600
10,666833	0,5	1,440100
10,675167	0,5	1,477600
10,683500	0,5	1,477600
10,691833	0,5	1,458650
10,700167	0,5	1,415050
10,708500	0,5	1,372350
10,716833	0,5	1,320000
10,725167	0,5	1,265900
10,733500	0,5	1,203750
10,741833	0,5	1,134450
10,750167	0,5	1,070800
10,758500	0,5	1,010200
10,766833	0,5	0,959450
10,775167	0,5	0,917050
10,783500	0,5	0,890700
10,791833	0,5	0,869600
10,800167	0,5	0,855650
10,808500	0,5	0,851200
10,816833	0,5	0,855850
10,825167	0,5	0,872400
10,833500	0,5	0,900400
10,841833	0,5	0,944150
10,850167	0,5	0,993100
10,858500	0,5	1,056700
10,866833	0,5	1,126850
10,875167	0,5	1,197550
10,883500	0,5	1,255650
10,891833	0,5	1,303650
10,900167	0,5	1,345800
10,908500	0,5	1,368300
10,916833	0,5	1,374950
10,925167	0,5	1,359050
10,933500	0,5	1,330600
10,941833	0,5	1,302000
10,950167	0,5	1,276200
10,958500	0,5	1,266350
10,966833	0,5	1,281000
10,975167	0,5	1,308950
10,983500	0,5	1,349000
10,991833	0,5	1,374300
11,000167	0,5	1,370350
11,008500	0,5	1,336300
11,016833	0,5	1,262250
11,025167	0,5	1,168450
11,033500	0,5	1,066450
11,041833	0,5	0,973150
11,050167	0,5	0,900100
11,058500	0,5	0,840350
11,066833	0,5	0,792700
11,075167	0,5	0,758650
11,083500	0,5	0,726600
11,091833	0,5	0,701200
11,100167	0,5	0,686900
11,108500	0,5	0,666350
11,116833	0,5	0,660050
11,125167	0,5	0,659350
11,133500	0,5	0,671350
11,141833	0,5	0,681800
11,150167	0,5	0,698100
11,158500	0,5	0,715300
11,166833	0,5	0,721250
11,175167	0,5	0,724100
11,183500	0,5	0,719600
11,191833	0,5	0,708850
11,200167	0,5	0,699050
11,208500	0,5	0,682500
11,216833	0,5	0,673200
11,225167	0,5	0,656100
11,233500	0,5	0,648450
11,241833	0,5	0,639550
11,250167	0,5	0,650400
11,258500	0,5	0,670200
11,266833	0,5	0,702350
11,275167	0,5	0,738500
11,283500	0,5	0,774300
11,291833	0,5	0,794450
11,300167	0,5	0,799500
11,308500	0,5	0,790050
11,316833	0,5	0,761500
11,325167	0,5	0,725850
11,333500	0,5	0,685800
11,341833	0,5	0,657800
11,350167	0,5	0,635450
11,358500	0,5	0,617200
11,366833	0,5	0,604700
11,375167	0,5	0,602600
11,383500	0,5	0,595150
11,391833	0,5	0,599350
11,400167	0,5	0,595550
11,408500	0,5	0,597600
11,416833	0,5	0,596800
11,425167	0,5	0,599950
11,433500	0,5	0,592000
11,441833	0,5	0,585650
11,450167	0,5	0,591250
11,458500	0,5	0,589300
11,466833	0,5	0,593450
11,475167	0,5	0,601200
11,483500	0,5	0,608450
11,491833	0,5	0,617600
11,500167	0,5	0,626850
11,508500	0,5	0,634050
11,516833	0,5	0,645100
11,525167	0,5	0,649700
11,533500	0,5	0,648800
11,541833	0,5	0,645500
11,550167	0,5	0,635250
11,558500	0,5	0,613800
11,566833	0,5	0,588650
11,575167	0,5	0,560200
11,583500	0,5	0,531200
11,591833	0,5	0,509900
11,600167	0,5	0,497850
11,608500	0,5	0,490200
11,616833	0,5	0,487350
11,625167	0,5	0,491650
11,633500	0,5	0,502950
11,641833	0,5	0,515900
11,650167	0,5	0,521850
11,658500	0,5	0,530450
11,666833	0,5	0,531000
11,675167	0,5	0,531200
11,683500	0,5	0,530850
11,691833	0,5	0,532400
11,700167	0,5	0,535450
11,708500	0,5	0,556000
11,716833	0,5	0,584550
11,725167	0,5	0,630100
11,733500	0,5	0,678600
11,741833	0,5	0,748700
11,750167	0,5	0,812650
11,758500	0,5	0,863000
11,766833	0,5	0,885050
11,775167	0,5	0,877100
11,783500	0,5	0,850200
11,791833	0,5	0,804200
11,800167	0,5	0,738200
11,808500	0,5	0,677800
11,816833	0,5	0,624100
11,825167	0,5	0,580350
11,833500	0,5	0,546300
11,841833	0,5	0,525300
11,850167	0,5	0,507950
11,858500	0,5	0,497650
11,866833	0,5	0,498350
11,875167	0,5	0,499550
11,883500	0,5	0,496800
11,891833	0,5	0,502700
11,900167	0,5	0,502850
11,908500	0,5	0,508750
11,916833	0,5	0,511250
11,925167	0,5	0,518450
11,933500	0,5	0,533850
11,941833	0,5	0,558150
11,950167	0,5	0,586300
11,958500	0,5	0,609450
11,966833	0,5	0,636450
11,975167	0,5	0,654350
11,983500	0,5	0,666400
11,991833	0,5	0,664400
12,000167	0,5	0,650300
12,008500	0,5	0,635050
12,016833	0,5	0,619800
12,025167	0,5	0,603700
12,033500	0,5	0,582150
12,041833	0,5	0,574550
12,050167	0,5	0,553800
12,058500	0,5	0,528650
12,066833	0,5	0,503100
12,075167	0,5	0,475500
12,083500	0,5	0,455400
12,091833	0,5	0,434650
12,100167	0,5	0,412250
12,108500	0,5	0,404750
12,116833	0,5	0,390450
12,125167	0,5	0,386400
12,133500	0,5	0,376950
12,141833	0,5	0,374200
12,150167	0,5	0,364550
12,158500	0,5	0,359150
12,166833	0,5	0,354850
12,175167	0,5	0,348850
12,183500	0,5	0,344650
12,191833	0,5	0,351300
12,200167	0,5	0,354700
12,208500	0,5	0,362550
12,216833	0,5	0,367600
12,225167	0,5	0,370000
12,233500	0,5	0,379350
12,241833	0,5	0,378150
12,250167	0,5	0,376200
12,258500	0,5	0,359500
12,266833	0,5	0,346200
12,275167	0,5	0,331350
12,283500	0,5	0,325400
12,291833	0,5	0,307600
12,300167	0,5	0,299050
12,308500	0,5	0,301900
12,316833	0,5	0,296650
12,325167	0,5	0,287900
12,333500	0,5	0,289000
12,341833	0,5	0,290900
12,350167	0,5	0,284300
12,358500	0,5	0,281950
12,366833	0,5	0,276000
12,375167	0,5	0,272700
12,383500	0,5	0,276450
12,391833	0,5	0,280650
12,400167	0,5	0,281800
12,408500	0,5	0,291750
12,416833	0,5	0,301850
12,425167	0,5	0,307700
12,433500	0,5	0,310800
12,441833	0,5	0,306800
12,450167	0,5	0,295500
12,458500	0,5	0,284400
12,466833	0,5	0,270350
12,475167	0,5	0,253000
12,483500	0,5	0,242300
12,491833	0,5	0,231200
12,500167	0,5	0,223650
12,508500	0,5	0,216600
12,516833	0,5	0,209050
12,525167	0,5	0,213100
12,533500	0,5	0,213850
12,541833	0,5	0,214900
12,550167	0,5	0,216100
12,558500	0,5	0,215450
12,566833	0,5	0,215450
12,575167	0,5	0,213250
12,583500	0,5	0,212600
12,591833	0,5	0,208950
12,600167	0,5	0,210750
12,608500	0,5	0,216500
12,616833	0,5	0,218250
12,625167	0,5	0,225950
12,633500	0,5	0,241650
12,641833	0,5	0,255850
12,650167	0,5	0,274700
12,658500	0,5	0,283500
12,666833	0,5	0,297000
12,675167	0,5	0,310700
12,683500	0,5	0,318250
12,691833	0,5	0,321900
12,700167	0,5	0,330950
12,708500	0,5	0,335100
12,716833	0,5	0,331000
12,725167	0,5	0,330900
12,733500	0,5	0,317100
12,741833	0,5	0,296150
12,750167	0,5	0,263550
12,758500	0,5	0,238050
12,766833	0,5	0,198950
12,775167	0,5	0,183100
12,783500	0,5	0,175300
12,791833	0,5	0,178250
12,800167	0,5	0,191950
12,808500	0,5	0,182650
12,816833	0,5	0,107750
12,825167	0,5	-0,051950
12,833500	0,5	-0,243300
12,841833	0,5	-0,404350
12,850167	0,5	-0,525750
12,858500	0,5	-0,603200
12,866833	0,5	-0,649950
12,875167	0,5	-0,683000
12,883500	0,5	-0,706800
12,891833	0,5	-0,730000
12,900167	0,5	-0,740400
12,908500	0,5	-0,753350
12,916833	0,5	-0,774200
12,925167	0,5	-0,774750
12,933500	0,5	-0,783050
12,941833	0,5	-0,787550
12,950167	0,5	-0,794550
12,958500	0,5	-0,804150
12,966833	0,5	-0,798750
12,975167	0,5	-0,796650
12,983500	0,5	-0,796600
12,991833	0,5	-0,801500
13,000167	0,5	-0,794600
13,008500	0,5	-0,792500
13,016833	0,5	-0,787250
13,025167	0,5	-0,781800
13,033500	0,5	-0,779800
13,041833	0,5	-0,766850
13,050167	0,5	-0,761200
13,058500	0,5	-0,752150
13,066833	0,5	-0,739500
13,075167	0,5	-0,717350
13,083500	0,5	-0,700900
13,091833	0,5	-0,677100
13,100167	0,5	-0,653600
13,108500	0,5	-0,624600
13,116833	0,5	-0,588200
13,125167	0,5	-0,549800
13,133500	0,5	-0,515700
13,141833	0,5	-0,480450
13,150167	0,5	-0,456250
13,158500	0,5	-0,429200
13,166833	0,5	-0,412000
13,175167	0,5	-0,399350
13,183500	0,5	-0,392250
13,191833	0,5	-0,386800
13,200167	0,5	-0,375100
13,208500	0,5	-0,373500
13,216833	0,5	-0,365500
13,225167	0,5	-0,351500
13,233500	0,5	-0,340000
13,241833	0,5	-0,332650
13,250167	0,5	-0,325550
13,258500	0,5	-0,313900
13,266833	0,5	-0,296150
13,275167	0,5	-0,279900
13,283500	0,5	-0,267350
13,291833	0,5	-0,258100
13,300167	0,5	-0,246350
13,308500	0,5	-0,242750
13,316833	0,5	-0,235850
13,325167	0,5	-0,229150
13,333500	0,5	-0,219150
13,341833	0,5	-0,205400
13,350167	0,5	-0,189200
13,358500	0,5	-0,174350
13,366833	0,5	-0,143350
13,375167	0,5	-0,117750
13,383500	0,5	-0,098150
13,391833	0,5	-0,079600
13,400167	0,5	-0,069500
13,408500	0,5	-0,057400
13,416833	0,5	-0,052400
13,425167	0,5	-0,054950
13,433500	0,5	-0,066300
13,441833	0,5	-0,075500
13,450167	0,5	-0,091500
13,458500	0,5	-0,098400
13,466833	0,5	-0,108250
13,475167	0,5	-0,108550
13,483500	0,5	-0,111350
13,491833	0,5	-0,097350
13,500167	0,5	-0,090700
13,508500	0,5	-0,068550
13,516833	0,5	-0,037000
13,525167	0,5	-0,000500
13,533500	0,5	0,036750
13,541833	0,5	0,077450
13,550167	0,5	0,118650
13,558500	0,5	0,153050
13,566833	0,5	0,182200
13,575167	0,5	0,199350
13,583500	0,5	0,198650
13,591833	0,5	0,192950
13,600167	0,5	0,189650
13,608500	0,5	0,176450
13,616833	0,5	0,160150
13,625167	0,5	0,143700
13,633500	0,5	0,143800
13,641833	0,5	0,150700
13,650167	0,5	0,161850
13,658500	0,5	0,198150
13,666833	0,5	0,235200
13,675167	0,5	0,277950
13,683500	0,5	0,303250
13,691833	0,5	0,318100
13,700167	0,5	0,339000
13,708500	0,5	0,339850
13,716833	0,5	0,334100
13,725167	0,5	0,321150
13,733500	0,5	0,307200
13,741833	0,5	0,289900
13,750167	0,5	0,277650
13,758500	0,5	0,269150
13,766833	0,5	0,261400
13,775167	0,5	0,261650
13,783500	0,5	0,260450
13,791833	0,5	0,279450
13,800167	0,5	0,281650
13,808500	0,5	0,302550
13,816833	0,5	0,304050
13,825167	0,5	0,301550
13,833500	0,5	0,287600
13,841833	0,5	0,267900
13,850167	0,5	0,259250
13,858500	0,5	0,252100
13,866833	0,5	0,236950
13,875167	0,5	0,224400
13,883500	0,5	0,212900
13,891833	0,5	0,214800
13,900167	0,5	0,217450
13,908500	0,5	0,217150
13,916833	0,5	0,214600
13,925167	0,5	0,208850
13,933500	0,5	0,206650
13,941833	0,5	0,202250
13,950167	0,5	0,187300
13,958500	0,5	0,184900
13,966833	0,5	0,178750
13,975167	0,5	0,160150
13,983500	0,5	0,148550
13,991833	0,5	0,134100
14,000167	0,5	0,137650
14,008500	0,5	0,134550
14,016833	0,5	0,132300
14,025167	0,5	0,127750
14,033500	0,5	0,126300
14,041833	0,5	0,120350
14,050167	0,5	0,118150
14,058500	0,5	0,116250
14,066833	0,5	0,106150
14,075167	0,5	0,102250
14,083500	0,5	0,100300
14,091833	0,5	0,091050
14,100167	0,5	0,090750
14,108500	0,5	0,091350
14,116833	0,5	0,086000
14,125167	0,5	0,079400
14,133500	0,5	0,069750
14,141833	0,5	0,062350
14,150167	0,5	0,058300
14,158500	0,5	0,058850
14,166833	0,5	0,050450
14,175167	0,5	0,047350
14,183500	0,5	0,040750
14,191833	0,5	0,043000
14,200167	0,5	0,037850
14,208500	0,5	0,036400
14,216833	0,5	0,028350
14,225167	0,5	0,023150
14,233500	0,5	0,020600
14,241833	0,5	0,016200
14,250167	0,5	0,016300
14,258500	0,5	0,018900
14,266833	0,5	0,013800
14,275167	0,5	0,005750
14,283500	0,5	-0,000300
14,291833	0,5	-0,004550
14,300167	0,5	-0,001700
14,308500	0,5	-0,003650
14,316833	0,5	-0,002300
14,325167	0,5	-0,002950
14,333500	0,5	-0,005650
14,341833	0,5	-0,009750
14,350167	0,5	-0,009000
14,358500	0,5	-0,017550
14,366833	0,5	-0,020550
14,375167	0,5	-0,029250
14,383500	0,5	-0,037150
14,391833	0,5	-0,049900
14,400167	0,5	-0,041500
14,408500	0,5	-0,045350
14,416833	0,5	-0,049400
14,425167	0,5	-0,060600
14,433500	0,5	-0,066300
14,441833	0,5	-0,061800
14,450167	0,5	-0,064550
14,458500	0,5	-0,062850
14,466833	0,5	-0,069000
14,475167	0,5	-0,072250
14,483500	0,5	-0,074600
14,491833	0,5	-0,070550
14,500167	0,5	-0,077500
14,508500	0,5	-0,081200
14,516833	0,5	-0,091300
14,525167	0,5	-0,089600
14,533500	0,5	-0,109400
14,541833	0,5	-0,102750
14,550167	0,5	-0,100650
14,558500	0,5	-0,100350
14,566833	0,5	-0,104450
14,575167	0,5	-0,119750
14,583500	0,5	-0,118700
14,591833	0,5	-0,122600
14,600167	0,5	-0,126150
14,608500	0,5	-0,131600
14,616833	0,5	-0,134350
14,625167	0,5	-0,137850
14,633500	0,5	-0,140300
14,641833	0,5	-0,145200
14,650167	0,5	-0,149600
14,658500	0,5	-0,157600
14,666833	0,5	-0,163600
14,675167	0,5	-0,164400
14,683500	0,5	-0,170000
14,691833	0,5	-0,164850
14,700167	0,5	-0,161950
14,708500	0,5	-0,170100
14,716833	0,5	-0,177250
14,725167	0,5	-0,191500
14,733500	0,5	-0,190350
14,741833	0,5	-0,188700
14,750167	0,5	-0,188150
14,758500	0,5	-0,195800
14,766833	0,5	-0,201950
14,775167	0,5	-0,204250
14,783500	0,5	-0,199950
14,791833	0,5	-0,205900
14,800167	0,5	-0,209800
14,808500	0,5	-0,208500
14,816833	0,5	-0,212000
14,825167	0,5	-0,211500
14,833500	0,5	-0,223300
14,841833	0,5	-0,213650
14,850167	0,5	-0,220650
14,858500	0,5	-0,224200
14,866833	0,5	-0,237250
14,875167	0,5	-0,246950
14,883500	0,5	-0,243000
14,891833	0,5	-0,243400
14,900167	0,5	-0,247300
14,908500	0,5	-0,248600
14,916833	0,5	-0,250800
14,925167	0,5	-0,253550
14,933500	0,5	-0,250250
14,941833	0,5	-0,254500
14,950167	0,5	-0,256800
14,958500	0,5	-0,259100
14,966833	0,5	-0,260200
14,975167	0,5	-0,266700
14,983500	0,5	-0,266200
14,991833	0,5	-0,262500
15,000167	0,5	-0,265900
15,008500	0,5	-0,272450
15,016833	0,5	-0,279400
15,025167	0,5	-0,283100
15,033500	0,5	-0,271950
15,041833	0,5	-0,271750
15,050167	0,5	-0,260250
15,058500	0,5	-0,256900
15,066833	0,5	-0,249250
15,075167	0,5	-0,247750
15,083500	0,5	-0,242150
15,091833	0,5	-0,240000
15,100167	0,5	-0,245300
15,108500	0,5	-0,241450
15,116833	0,5	-0,249450
15,125167	0,5	-0,267850
15,133500	0,5	-0,272500
15,141833	0,5	-0,278500
15,150167	0,5	-0,284500
15,158500	0,5	-0,291800
15,166833	0,5	-0,309550
15,175167	0,5	-0,311200
15,183500	0,5	-0,309150
15,191833	0,5	-0,304350
15,200167	0,5	-0,311350
15,208500	0,5	-0,313900
15,216833	0,5	-0,317750
15,225167	0,5	-0,322350
15,233500	0,5	-0,329800
15,241833	0,5	-0,333650
15,250167	0,5	-0,337200
15,258500	0,5	-0,333500
15,266833	0,5	-0,342800
15,275167	0,5	-0,348250
15,283500	0,5	-0,337550
15,291833	0,5	-0,336950
15,300167	0,5	-0,336200
15,308500	0,5	-0,344800
15,316833	0,5	-0,345050
15,325167	0,5	-0,347150
15,333500	0,5	-0,343900
15,341833	0,5	-0,346050
15,350167	0,5	-0,339500
15,358500	0,5	-0,345200
15,366833	0,5	-0,346450
15,375167	0,5	-0,344050
15,383500	0,5	-0,342700
15,391833	0,5	-0,341900
15,400167	0,5	-0,335150
15,408500	0,5	-0,329000
15,416833	0,5	-0,335700
15,425167	0,5	-0,328450
15,433500	0,5	-0,316950
15,441833	0,5	-0,314400
15,450167	0,5	-0,314600
15,458500	0,5	-0,333050
15,466833	0,5	-0,339150
15,475167	0,5	-0,346650
15,483500	0,5	-0,360550
15,491833	0,5	-0,374200
15,500167	0,5	-0,389650
15,508500	0,5	-0,396650
15,516833	0,5	-0,413300
15,525167	0,5	-0,415700
15,533500	0,5	-0,425250
15,541833	0,5	-0,425250
15,550167	0,5	-0,428800
15,558500	0,5	-0,428250
15,566833	0,5	-0,447350
15,575167	0,5	-0,437050
15,583500	0,5	-0,434350
15,591833	0,5	-0,436350
15,600167	0,5	-0,440900
15,608500	0,5	-0,451800
15,616833	0,5	-0,447500
15,625167	0,5	-0,447100
15,633500	0,5	-0,445250
15,641833	0,5	-0,449100
15,650167	0,5	-0,451950
15,658500	0,5	-0,456550
15,666833	0,5	-0,454000
15,675167	0,5	-0,456550
15,683500	0,5	-0,457300
15,691833	0,5	-0,465950
15,700167	0,5	-0,458650
15,708500	0,5	-0,463300
15,716833	0,5	-0,474300
15,725167	0,5	-0,467200
15,733500	0,5	-0,468850
15,741833	0,5	-0,474850
15,750167	0,5	-0,483250
15,758500	0,5	-0,498250
15,766833	0,5	-0,493600
15,775167	0,5	-0,494350
15,783500	0,5	-0,497000
15,791833	0,5	-0,501500
15,800167	0,5	-0,509600
15,808500	0,5	-0,504400
15,816833	0,5	-0,505550
15,825167	0,5	-0,504900
15,833500	0,5	-0,508050
15,841833	0,5	-0,505050
15,850167	0,5	-0,505900
15,858500	0,5	-0,509900
15,866833	0,5	-0,517300
15,875167	0,5	-0,501550
15,883500	0,5	-0,511050
15,891833	0,5	-0,515650
15,900167	0,5	-0,527850
15,908500	0,5	-0,537650
15,916833	0,5	-0,532350
15,925167	0,5	-0,530750
15,933500	0,5	-0,532350
15,941833	0,5	-0,528050
15,950167	0,5	-0,526250
15,958500	0,5	-0,534650
15,966833	0,5	-0,536150
15,975167	0,5	-0,539250
15,983500	0,5	-0,542800
15,991833	0,5	-0,547800
16,000167	0,5	-0,549250
16,008500	0,5	-0,564100
16,016833	0,5	-0,559850
16,025167	0,5	-0,560450
16,033500	0,5	-0,558950
16,041833	0,5	-0,573250
16,050167	0,5	-0,582700
16,058500	0,5	-0,595500
16,066833	0,5	-0,583850
16,075167	0,5	-0,586850
16,083500	0,5	-0,587350
16,091833	0,5	-0,590600
16,100167	0,5	-0,590500
16,108500	0,5	-0,591700
16,116833	0,5	-0,592000
16,125167	0,5	-0,594250
16,133500	0,5	-0,597200
16,141833	0,5	-0,588150
16,150167	0,5	-0,588850
16,158500	0,5	-0,602100
16,166833	0,5	-0,598900
16,175167	0,5	-0,596700
16,183500	0,5	-0,605300
16,191833	0,5	-0,616100
16,200167	0,5	-0,628050
16,208500	0,5	-0,626400
16,216833	0,5	-0,631650
16,225167	0,5	-0,627500
16,233500	0,5	-0,631100
16,241833	0,5	-0,631350
16,250167	0,5	-0,637600
16,258500	0,5	-0,641600
16,266833	0,5	-0,640650
16,275167	0,5	-0,643200
16,283500	0,5	-0,641900
16,291833	0,5	-0,641500
16,300167	0,5	-0,648600
16,308500	0,5	-0,646500
16,316833	0,5	-0,642550
16,325167	0,5	-0,644300
16,333500	0,5	-0,646250
16,341833	0,5	-0,655750
16,350167	0,5	-0,664000
16,358500	0,5	-0,664650
16,366833	0,5	-0,659150
16,375167	0,5	-0,661450
16,383500	0,5	-0,654450
16,391833	0,5	-0,657650
16,400167	0,5	-0,654500
16,408500	0,5	-0,660850
16,416833	0,5	-0,657300
16,425167	0,5	-0,661300
16,433500	0,5	-0,656350
16,441833	0,5	-0,657450
16,450167	0,5	-0,678250
16,458500	0,5	-0,672100
16,466833	0,5	-0,669200
16,475167	0,5	-0,676600
16,483500	0,5	-0,680550
16,491833	0,5	-0,689600
16,500167	0,5	-0,691700
16,508500	0,5	-0,688500
16,516833	0,5	-0,688500
16,525167	0,5	-0,681250
16,533500	0,5	-0,688300
16,541833	0,5	-0,682600
16,550167	0,5	-0,685100
16,558500	0,5	-0,679900
16,566833	0,5	-0,679900
16,575167	0,5	-0,681150
16,583500	0,5	-0,677550
16,591833	0,5	-0,679850
16,600167	0,5	-0,693850
16,608500	0,5	-0,681700
16,616833	0,5	-0,683450
16,625167	0,5	-0,692000
16,633500	0,5	-0,700350
16,641833	0,5	-0,713100
16,650167	0,5	-0,712100
16,658500	0,5	-0,714350
16,666833	0,5	-0,712000
16,675167	0,5	-0,713050
16,683500	0,5	-0,712300
16,691833	0,5	-0,714800
16,700167	0,5	-0,713700
16,708500	0,5	-0,716050
16,716833	0,5	-0,716550
16,725167	0,5	-0,720400
16,733500	0,5	-0,711250
16,741833	0,5	-0,721050
16,750167	0,5	-0,724300
16,758500	0,5	-0,717200
16,766833	0,5	-0,716150
16,775167	0,5	-0,724950
16,783500	0,5	-0,733350
16,791833	0,5	-0,735750
16,800167	0,5	-0,725500
16,808500	0,5	-0,722000
16,816833	0,5	-0,718250
16,825167	0,5	-0,714050
16,833500	0,5	-0,714900
16,841833	0,5	-0,713000
16,850167	0,5	-0,722950
16,858500	0,5	-0,714150
16,866833	0,5	-0,715400
16,875167	0,5	-0,709250
16,883500	0,5	-0,705550
16,891833	0,5	-0,708700
16,900167	0,5	-0,699600
16,908500	0,5	-0,682400
16,916833	0,5	-0,672950
16,925167	0,5	-0,659150
16,933500	0,5	-0,651600
16,941833	0,5	-0,624800
16,950167	0,5	-0,601750
16,958500	0,5	-0,572100
16,966833	0,5	-0,552000
16,975167	0,5	-0,530400
16,983500	0,5	-0,517700
16,991833	0,5	-0,506400
17,000167	0,5	-0,498550
17,008500	0,5	-0,506850
17,016833	0,5	-0,518650
17,025167	0,5	-0,542900
17,033500	0,5	-0,560100
17,041833	0,5	-0,594400
17,050167	0,5	-0,605400
17,058500	0,5	-0,625250
17,066833	0,5	-0,635650
17,075167	0,5	-0,654750
17,083500	0,5	-0,667900
17,091833	0,5	-0,668100
17,100167	0,5	-0,660800
17,108500	0,5	-0,664350
17,116833	0,5	-0,659750
17,125167	0,5	-0,663700
17,133500	0,5	-0,663900
17,141833	0,5	-0,670150
17,150167	0,5	-0,675300
17,158500	0,5	-0,674200
17,166833	0,5	-0,673350
17,175167	0,5	-0,669450
17,183500	0,5	-0,673500
17,191833	0,5	-0,668350
17,200167	0,5	-0,658100
17,208500	0,5	-0,658950
17,216833	0,5	-0,658600
17,225167	0,5	-0,665350
17,233500	0,5	-0,670500
17,241833	0,5	-0,667400
17,250167	0,5	-0,665950
17,258500	0,5	-0,660950
17,266833	0,5	-0,658000
17,275167	0,5	-0,648750
17,283500	0,5	-0,649650
17,291833	0,5	-0,640650
17,300167	0,5	-0,637550
17,308500	0,5	-0,637500
17,316833	0,5	-0,627350
17,325167	0,5	-0,628000
17,333500	0,5	-0,638450
17,341833	0,5	-0,628850
17,350167	0,5	-0,621450
17,358500	0,5	-0,626150
17,366833	0,5	-0,626300
17,375167	0,5	-0,638900
17,383500	0,5	-0,637150
17,391833	0,5	-0,640450
17,400167	0,5	-0,638200
17,408500	0,5	-0,642000
17,416833	0,5	-0,636500
17,425167	0,5	-0,639950
17,433500	0,5	-0,637000
17,441833	0,5	-0,641600
17,450167	0,5	-0,640650
17,458500	0,5	-0,643350
17,466833	0,5	-0,642400
17,475167	0,5	-0,649400
17,483500	0,5	-0,653600
17,491833	0,5	-0,640600
17,500167	0,5	-0,639050
17,508500	0,5	-0,645300
17,516833	0,5	-0,653800
17,525167	0,5	-0,661500
17,533500	0,5	-0,665300
17,541833	0,5	-0,664150
17,550167	0,5	-0,669350
17,558500	0,5	-0,666000
17,566833	0,5	-0,672750
17,575167	0,5	-0,667350
17,583500	0,5	-0,672850
17,591833	0,5	-0,670250
17,600167	0,5	-0,672050
17,608500	0,5	-0,676650
17,616833	0,5	-0,668850
17,625167	0,5	-0,680500
17,633500	0,5	-0,680300
17,641833	0,5	-0,682000
17,650167	0,5	-0,680050
17,658500	0,5	-0,687350
17,666833	0,5	-0,698850
17,675167	0,5	-0,706300
17,683500	0,5	-0,697750
17,691833	0,5	-0,706300
17,700167	0,5	-0,705000
17,708500	0,5	-0,709450
17,716833	0,5	-0,706300
17,725167	0,5	-0,705950
17,733500	0,5	-0,707650
17,741833	0,5	-0,714900
17,750167	0,5	-0,716800
17,758500	0,5	-0,709450
17,766833	0,5	-0,705050
17,775167	0,5	-0,723850
17,783500	0,5	-0,713600
17,791833	0,5	-0,714000
17,800167	0,5	-0,718700
17,808500	0,5	-0,728150
17,816833	0,5	-0,744100
17,825167	0,5	-0,740700
17,833500	0,5	-0,743700
17,841833	0,5	-0,745900
17,850167	0,5	-0,749200
17,858500	0,5	-0,746300
17,866833	0,5	-0,752050
17,875167	0,5	-0,748750
17,883500	0,5	-0,754150
17,891833	0,5	-0,757750
17,900167	0,5	-0,761200
17,908500	0,5	-0,761200
17,916833	0,5	-0,764100
17,925167	0,5	-0,776200
17,933500	0,5	-0,774950
17,941833	0,5	-0,779750
17,950167	0,5	-0,787000
17,958500	0,5	-0,797000
17,966833	0,5	-0,815350
17,975167	0,5	-0,820550
17,983500	0,5	-0,822000
17,991833	0,5	-0,824800
18,000167	0,5	-0,827950
18,008500	0,5	-0,834450
18,016833	0,5	-0,833350
18,025167	0,5	-0,842650
18,033500	0,5	-0,846650
18,041833	0,5	-0,858550
18,050167	0,5	-0,857900
18,058500	0,5	-0,859000
18,066833	0,5	-0,872300
18,075167	0,5	-0,877600
18,083500	0,5	-0,868400
18,091833	0,5	-0,878950
18,100167	0,5	-0,883550
18,108500	0,5	-0,899850
18,116833	0,5	-0,915000
18,125167	0,5	-0,913000
18,133500	0,5	-0,926950
18,141833	0,5	-0,925900
18,150167	0,5	-0,929350
18,158500	0,5	-0,931050
18,166833	0,5	-0,937700
18,175167	0,5	-0,941150
18,183500	0,5	-0,947050
18,191833	0,5	-0,948100
18,200167	0,5	-0,949100
18,208500	0,5	-0,950500
18,216833	0,5	-0,966300
18,225167	0,5	-0,956700
18,233500	0,5	-0,968350
18,241833	0,5	-0,971200
18,250167	0,5	-0,981250
18,258500	0,5	-0,990650
18,266833	0,5	-0,997700
18,275167	0,5	-0,996400
18,283500	0,5	-0,999550
18,291833	0,5	-1,001300
18,300167	0,5	-1,005600
18,308500	0,5	-1,007550
18,316833	0,5	-1,005000
18,325167	0,5	-1,010500
18,333500	0,5	-1,015300
18,341833	0,5	-1,015350
18,350167	0,5	-1,007100
18,358500	0,5	-1,014350
18,366833	0,5	-1,021900
18,375167	0,5	-1,022950
18,383500	0,5	-1,015850
18,391833	0,5	-1,025750
18,400167	0,5	-1,039400
18,408500	0,5	-1,046500
18,416833	0,5	-1,047500
18,425167	0,5	-1,055300
18,433500	0,5	-1,057600
18,441833	0,5	-1,061250
18,450167	0,5	-1,056150
18,458500	0,5	-1,061000
18,466833	0,5	-1,060000
18,475167	0,5	-1,063750
18,483500	0,5	-1,067450
18,491833	0,5	-1,065200
18,500167	0,5	-1,063150
18,508500	0,5	-1,080000
18,516833	0,5	-1,077100
18,525167	0,5	-1,072650
18,533500	0,5	-1,082600
18,541833	0,5	-1,085750
18,550167	0,5	-1,106050
18,558500	0,5	-1,103850
18,566833	0,5	-1,105800
18,575167	0,5	-1,100850
18,583500	0,5	-1,106950
18,591833	0,5	-1,104150
18,600167	0,5	-1,106850
18,608500	0,5	-1,104600
18,616833	0,5	-1,101400
18,625167	0,5	-1,104350
18,633500	0,5	-1,104350
18,641833	0,5	-1,101700
18,650167	0,5	-1,095750
18,658500	0,5	-1,114550
18,666833	0,5	-1,105950
18,675167	0,5	-1,112100
18,683500	0,5	-1,117250
18,691833	0,5	-1,127300
18,700167	0,5	-1,140800
18,708500	0,5	-1,133850
18,716833	0,5	-1,126350
18,725167	0,5	-1,127650
18,733500	0,5	-1,123750
18,741833	0,5	-1,124400
18,750167	0,5	-1,125450
18,758500	0,5	-1,130450
18,766833	0,5	-1,134250
18,775167	0,5	-1,147950
18,783500	0,5	-1,151050
18,791833	0,5	-1,151050
18,800167	0,5	-1,153550
18,808500	0,5	-1,165800
18,816833	0,5	-1,157800
18,825167	0,5	-1,164800
18,833500	0,5	-1,173300
18,841833	0,5	-1,182950
18,850167	0,5	-1,195550
18,858500	0,5	-1,187300
18,866833	0,5	-1,192650
18,875167	0,5	-1,189800
18,883500	0,5	-1,194200
18,891833	0,5	-1,192200
18,900167	0,5	-1,197500
18,908500	0,5	-1,194400
18,916833	0,5	-1,196450
18,925167	0,5	-1,203600
18,933500	0,5	-1,189150
18,941833	0,5	-1,182000
18,950167	0,5	-1,191500
18,958500	0,5	-1,190600
18,966833	0,5	-1,183250
18,975167	0,5	-1,187900
18,983500	0,5	-1,190450
18,991833	0,5	-1,206650
19,000167	0,5	-1,205900
19,008500	0,5	-1,208000
19,016833	0,5	-1,208000
19,025167	0,5	-1,223250
19,033500	0,5	-1,220600
19,041833	0,5	-1,230050
19,050167	0,5	-1,226250
19,058500	0,5	-1,231950
19,066833	0,5	-1,232850
19,075167	0,5	-1,236050
19,083500	0,5	-1,230150
19,091833	0,5	-1,232300
19,100167	0,5	-1,238900
19,108500	0,5	-1,238950
19,116833	0,5	-1,235750
19,125167	0,5	-1,246350
19,133500	0,5	-1,257350
19,141833	0,5	-1,269200
19,150167	0,5	-1,268750
19,158500	0,5	-1,256450
19,166833	0,5	-1,258550
19,175167	0,5	-1,251300
19,183500	0,5	-1,257450
19,191833	0,5	-1,253250
19,200167	0,5	-1,259350
19,208500	0,5	-1,264300
19,216833	0,5	-1,272700
19,225167	0,5	-1,280000
19,233500	0,5	-1,274800
19,241833	0,5	-1,280900
19,250167	0,5	-1,285400
19,258500	0,5	-1,278050
19,266833	0,5	-1,279000
19,275167	0,5	-1,275750
19,283500	0,5	-1,279350
19,291833	0,5	-1,272300
19,300167	0,5	-1,265450
19,308500	0,5	-1,267300
19,316833	0,5	-1,276000
19,325167	0,5	-1,295200
19,333500	0,5	-1,304600
19,341833	0,5	-1,321350
19,350167	0,5	-1,324350
19,358500	0,5	-1,330050
19,366833	0,5	-1,329500
19,375167	0,5	-1,327550
19,383500	0,5	-1,323250
19,391833	0,5	-1,339200
19,400167	0,5	-1,326750
19,408500	0,5	-1,318350
19,416833	0,5	-1,307100
19,425167	0,5	-1,284600
19,433500	0,5	-1,253350
19,441833	0,5	-1,202250
19,450167	0,5	-1,166600
19,458500	0,5	-1,149000
19,466833	0,5	-1,165700
19,475167	0,5	-1,198050
19,483500	0,5	-1,242450
19,491833	0,5	-1,284850
19,500167	0,5	-1,324100
19,508500	0,5	-1,347300
19,516833	0,5	-1,374850
19,525167	0,5	-1,370000
19,533500	0,5	-1,379500
19,541833	0,5	-1,386300
19,550167	0,5	-1,382050
19,558500	0,5	-1,379100
19,566833	0,5	-1,389550
19,575167	0,5	-1,393100
19,583500	0,5	-1,414850
19,591833	0,5	-1,411000
19,600167	0,5	-1,406250
19,608500	0,5	-1,411400
19,616833	0,5	-1,422050
19,625167	0,5	-1,418400
19,633500	0,5	-1,420550
19,641833	0,5	-1,418850
19,650167	0,5	-1,412750
19,658500	0,5	-1,414150
19,666833	0,5	-1,415650
19,675167	0,5	-1,401500
19,683500	0,5	-1,396600
19,691833	0,5	-1,380250
19,700167	0,5	-1,346850
19,708500	0,5	-1,318800
19,716833	0,5	-1,302500
19,725167	0,5	-1,303450
19,733500	0,5	-1,303850
19,741833	0,5	-1,318800
19,750167	0,5	-1,343600
19,758500	0,5	-1,372300
19,766833	0,5	-1,396700
19,775167	0,5	-1,419150
19,783500	0,5	-1,436050
19,791833	0,5	-1,446500
19,800167	0,5	-1,461350
19,808500	0,5	-1,461550
19,816833	0,5	-1,474200
19,825167	0,5	-1,468750
19,833500	0,5	-1,488400
19,841833	0,5	-1,478000
19,850167	0,5	-1,480500
19,858500	0,5	-1,478300
19,866833	0,5	-1,496300
19,875167	0,5	-1,509650
19,883500	0,5	-1,508950
19,891833	0,5	-1,502550
19,900167	0,5	-1,500950
19,908500	0,5	-1,499300
19,916833	0,5	-1,508000
19,925167	0,5	-1,501800
19,933500	0,5	-1,500900
19,941833	0,5	-1,503600
19,950167	0,5	-1,502450
19,958500	0,5	-1,497600
19,966833	0,5	-1,483800
19,975167	0,5	-1,480100
19,983500	0,5	-1,488800
19,991833	0,5	-1,479900
20,000167	0,5	-1,479500
20,008500	0,5	-1,489300
20,016833	0,5	-1,505500
20,025167	0,5	-1,518550
20,033500	0,5	-1,516550
20,041833	0,5	-1,516000
20,050167	0,5	-1,510350
20,058500	0,5	-1,512700
20,066833	0,5	-1,510300
20,075167	0,5	-1,512500
20,083500	0,5	-1,509800
20,091833	0,5	-1,503150
20,100167	0,5	-1,507450
20,108500	0,5	-1,497350
20,116833	0,5	-1,491750
20,125167	0,5	-1,497000
20,133500	0,5	-1,495700
20,141833	0,5	-1,490050
20,150167	0,5	-1,492000
20,158500	0,5	-1,497750
20,166833	0,5	-1,512300
20,175167	0,5	-1,512750
20,183500	0,5	-1,511700
20,191833	0,5	-1,504000
20,200167	0,5	-1,505650
20,208500	0,5	-1,500450
20,216833	0,5	-1,501400
20,225167	0,5	-1,489900
20,233500	0,5	-1,487100
20,241833	0,5	-1,485600
20,250167	0,5	-1,482600
20,258500	0,5	-1,466450
20,266833	0,5	-1,465750
20,275167	0,5	-1,470150
20,283500	0,5	-1,466100
20,291833	0,5	-1,463800
20,300167	0,5	-1,468750
20,308500	0,5	-1,488300
20,316833	0,5	-1,497650
20,325167	0,5	-1,495000
20,333500	0,5	-1,487250
20,341833	0,5	-1,493100
20,350167	0,5	-1,487450
20,358500	0,5	-1,493300
20,366833	0,5	-1,488750
20,375167	0,5	-1,487450
20,383500	0,5	-1,491100
20,391833	0,5	-1,495250
20,400167	0,5	-1,493600
20,408500	0,5	-1,483600
20,416833	0,5	-1,495550
20,425167	0,5	-1,498150
20,433500	0,5	-1,498400
20,441833	0,5	-1,498100
20,450167	0,5	-1,508700
20,458500	0,5	-1,525100
20,466833	0,5	-1,528000
20,475167	0,5	-1,519350
20,483500	0,5	-1,525850
20,491833	0,5	-1,526450
20,500167	0,5	-1,528450
20,508500	0,5	-1,529150
20,516833	0,5	-1,527100
20,525167	0,5	-1,522400
20,533500	0,5	-1,521150
20,541833	0,5	-1,521650
20,550167	0,5	-1,504400
20,558500	0,5	-1,495300
20,566833	0,5	-1,510100
20,575167	0,5	-1,504200
20,583500	0,5	-1,502750
20,591833	0,5	-1,507850
20,600167	0,5	-1,511450
20,608500	0,5	-1,539800
20,616833	0,5	-1,528150
20,625167	0,5	-1,523050
20,633500	0,5	-1,518650
20,641833	0,5	-1,522050
20,650167	0,5	-1,512750
20,658500	0,5	-1,517800
20,666833	0,5	-1,509550
20,675167	0,5	-1,511200
20,683500	0,5	-1,507350
20,691833	0,5	-1,499650
20,700167	0,5	-1,478800
20,708500	0,5	-1,477200
20,716833	0,5	-1,482050
20,725167	0,5	-1,476500
20,733500	0,5	-1,473650
20,741833	0,5	-1,475900
20,750167	0,5	-1,488400
20,758500	0,5	-1,491850
20,766833	0,5	-1,483800
20,775167	0,5	-1,474300
20,783500	0,5	-1,480950
20,791833	0,5	-1,472200
20,800167	0,5	-1,472500
20,808500	0,5	-1,468500
20,816833	0,5	-1,463700
20,825167	0,5	-1,456800
20,833500	0,5	-1,453650
20,841833	0,5	-1,435850
20,850167	0,5	-1,421700
20,858500	0,5	-1,413000
20,866833	0,5	-1,414650
20,875167	0,5	-1,412950
20,883500	0,5	-1,411750
20,891833	0,5	-1,418950
20,900167	0,5	-1,433200
20,908500	0,5	-1,442950
20,916833	0,5	-1,427550
20,925167	0,5	-1,425200
20,933500	0,5	-1,411500
20,941833	0,5	-1,413700
20,950167	0,5	-1,404400
20,958500	0,5	-1,405150
20,966833	0,5	-1,396000
20,975167	0,5	-1,397450
20,983500	0,5	-1,389900
20,991833	0,5	-1,361200
21,000167	0,5	-1,344900
21,008500	0,5	-1,351200
21,016833	0,5	-1,351250
21,025167	0,5	-1,352750
21,033500	0,5	-1,358650
21,041833	0,5	-1,369200
21,050167	0,5	-1,377800
21,058500	0,5	-1,371700
21,066833	0,5	-1,369400
21,075167	0,5	-1,359250
21,083500	0,5	-1,357200
21,091833	0,5	-1,345200
21,100167	0,5	-1,346500
21,108500	0,5	-1,336350
21,116833	0,5	-1,333700
21,125167	0,5	-1,328050
21,133500	0,5	-1,314650
21,141833	0,5	-1,291450
21,150167	0,5	-1,283450
21,158500	0,5	-1,287300
21,166833	0,5	-1,286950
21,175167	0,5	-1,290450
21,183500	0,5	-1,296650
21,191833	0,5	-1,311250
21,200167	0,5	-1,315000
21,208500	0,5	-1,312100
21,216833	0,5	-1,297800
21,225167	0,5	-1,295450
21,233500	0,5	-1,289500
21,241833	0,5	-1,278950
21,250167	0,5	-1,266950
21,258500	0,5	-1,263700
21,266833	0,5	-1,254100
21,275167	0,5	-1,248550
21,283500	0,5	-1,220100
21,291833	0,5	-1,202850
21,300167	0,5	-1,198450
21,308500	0,5	-1,202050
21,316833	0,5	-1,198300
21,325167	0,5	-1,204100
21,333500	0,5	-1,213400
21,341833	0,5	-1,219850
21,350167	0,5	-1,216000
21,358500	0,5	-1,206100
21,366833	0,5	-1,200850
21,375167	0,5	-1,192800
21,383500	0,5	-1,188700
21,391833	0,5	-1,173900
21,400167	0,5	-1,166050
21,408500	0,5	-1,155650
21,416833	0,5	-1,145000
21,425167	0,5	-1,119450
21,433500	0,5	-1,090300
21,441833	0,5	-1,062100
21,450167	0,5	-1,052300
21,458500	0,5	-1,029250
21,466833	0,5	-1,011550
21,475167	0,5	-0,996750
21,483500	0,5	-0,990750
21,491833	0,5	-0,979350
21,500167	0,5	-0,973750
21,508500	0,5	-0,977900
21,516833	0,5	-0,972050
21,525167	0,5	-0,975300
21,533500	0,5	-0,969000
21,541833	0,5	-0,972600
21,550167	0,5	-0,964050
21,558500	0,5	-0,961100
21,566833	0,5	-0,952700
21,575167	0,5	-0,920750
21,583500	0,5	-0,898600
21,591833	0,5	-0,891850
21,600167	0,5	-0,887900
21,608500	0,5	-0,881900
21,616833	0,5	-0,876200
21,625167	0,5	-0,871050
21,633500	0,5	-0,878500
21,641833	0,5	-0,856850
21,650167	0,5	-0,845650
21,658500	0,5	-0,825000
21,666833	0,5	-0,811200
21,675167	0,5	-0,788800
21,683500	0,5	-0,772100
21,691833	0,5	-0,753650
21,700167	0,5	-0,742250
21,708500	0,5	-0,726350
21,716833	0,5	-0,708700
21,725167	0,5	-0,671150
21,733500	0,5	-0,650200
21,741833	0,5	-0,640450
21,750167	0,5	-0,623550
21,758500	0,5	-0,617600
21,766833	0,5	-0,609400
21,775167	0,5	-0,603350
21,783500	0,5	-0,589450
21,791833	0,5	-0,570650
21,800167	0,5	-0,559200
21,808500	0,5	-0,542400
21,816833	0,5	-0,524250
21,825167	0,5	-0,507400
21,833500	0,5	-0,482750
21,841833	0,5	-0,463000
21,850167	0,5	-0,435200
21,858500	0,5	-0,421000
21,866833	0,5	-0,385100
21,875167	0,5	-0,356000
21,883500	0,5	-0,340050
21,891833	0,5	-0,316450
21,900167	0,5	-0,302950
21,908500	0,5	-0,282950
21,916833	0,5	-0,273350
21,925167	0,5	-0,261200
21,933500	0,5	-0,240400
21,941833	0,5	-0,205750
21,950167	0,5	-0,183400
21,958500	0,5	-0,153500
21,966833	0,5	-0,126450
21,975167	0,5	-0,093800
21,983500	0,5	-0,063350
21,991833	0,5	-0,028900
22,000167	0,5	-0,003450
22,008500	0,5	0,039300
22,016833	0,5	0,088500
22,025167	0,5	0,127250
22,033500	0,5	0,155300
22,041833	0,5	0,198150
22,050167	0,5	0,224000
22,058500	0,5	0,248950
22,066833	0,5	0,261050
22,075167	0,5	0,276650
22,083500	0,5	0,303650
22,091833	0,5	0,323400
22,100167	0,5	0,349500
22,108500	0,5	0,371050
22,116833	0,5	0,403300
22,125167	0,5	0,423050
22,133500	0,5	0,458650
22,141833	0,5	0,487450
22,150167	0,5	0,520900
22,158500	0,5	0,554300
22,166833	0,5	0,587200
22,175167	0,5	0,613100
22,183500	0,5	0,658600
22,191833	0,5	0,690950
22,200167	0,5	0,725750
22,208500	0,5	0,762800
22,216833	0,5	0,794800
22,225167	0,5	0,837650
22,233500	0,5	0,878900
22,241833	0,5	0,925050
22,250167	0,5	0,964850
22,258500	0,5	1,009650
22,266833	0,5	1,047500
22,275167	0,5	1,094200
22,283500	0,5	1,137500
22,291833	0,5	1,181800
22,300167	0,5	1,226700
22,308500	0,5	1,275350
22,316833	0,5	1,320500
22,325167	0,5	1,384700
22,333500	0,5	1,443900
22,341833	0,5	1,494900
22,350167	0,5	1,533400
22,358500	0,5	1,566750
22,366833	0,5	1,613950
22,375167	0,5	1,662650
22,383500	0,5	1,714100
22,391833	0,5	1,759100
22,400167	0,5	1,816950
22,408500	0,5	1,862000
22,416833	0,5	1,919350
22,425167	0,5	1,969950
22,433500	0,5	2,030600
22,441833	0,5	2,087000
22,450167	0,5	2,143850
22,458500	0,5	2,198550
22,466833	0,5	2,255700
22,475167	0,5	2,341150
22,483500	0,5	2,412300
22,491833	0,5	2,478900
22,500167	0,5	2,538250
22,508500	0,5	2,590800
22,516833	0,5	2,655150
22,525167	0,5	2,720000
22,533500	0,5	2,767000
22,541833	0,5	2,819400
22,550167	0,5	2,866100
22,558500	0,5	2,919750
22,566833	0,5	2,964800
22,575167	0,5	3,008900
22,583500	0,5	3,042400
22,591833	0,5	3,082050
22,600167	0,5	3,090550
22,608500	0,5	3,136050
22,616833	0,5	3,167500
22,625167	0,5	3,215200
22,633500	0,5	3,235950
22,641833	0,5	3,248050
22,650167	0,5	3,251150
22,658500	0,5	3,247900
22,666833	0,5	3,261250
22,675167	0,5	3,257750
22,683500	0,5	3,254600
22,691833	0,5	3,238250
22,700167	0,5	3,225700
22,708500	0,5	3,195200
22,716833	0,5	3,170900
22,725167	0,5	3,128150
22,733500	0,5	3,082900
22,741833	0,5	3,007350
22,750167	0,5	2,934650
22,758500	0,5	2,873450
22,766833	0,5	2,817550
22,775167	0,5	2,737350
22,783500	0,5	2,640850
22,791833	0,5	2,534850
22,800167	0,5	2,425350
22,808500	0,5	2,309950
22,816833	0,5	2,206550
22,825167	0,5	2,097750
22,833500	0,5	1,983000
22,841833	0,5	1,865950
22,850167	0,5	1,748400
22,858500	0,5	1,623450
22,866833	0,5	1,499050
22,875167	0,5	1,370000
22,883500	0,5	1,239700
22,891833	0,5	1,087150
22,900167	0,5	0,944950
22,908500	0,5	0,824000
22,916833	0,5	0,683150
22,925167	0,5	0,539900
22,933500	0,5	0,395700
22,941833	0,5	0,265150
22,950167	0,5	0,137450
22,958500	0,5	0,006950
22,966833	0,5	-0,122900
22,975167	0,5	-0,237700
22,983500	0,5	-0,356700
22,991833	0,5	-0,463750
23,000167	0,5	-0,575050
23,008500	0,5	-0,677250
23,016833	0,5	-0,783450
23,025167	0,5	-0,881100
23,033500	0,5	-0,965900
23,041833	0,5	-1,055350
23,050167	0,5	-1,150550
23,058500	0,5	-1,263450
23,066833	0,5	-1,372950
23,075167	0,5	-1,448750
23,083500	0,5	-1,523750
23,091833	0,5	-1,584950
23,100167	0,5	-1,645450
23,108500	0,5	-1,712900
23,116833	0,5	-1,760300
23,125167	0,5	-1,811950
23,133500	0,5	-1,848750
23,141833	0,5	-1,891300
23,150167	0,5	-1,924500
23,158500	0,5	-1,963200
23,166833	0,5	-1,993300
23,175167	0,5	-2,037400
23,183500	0,5	-2,033800
23,191833	0,5	-2,072000
23,200167	0,5	-2,098250
23,208500	0,5	-2,162000
23,216833	0,5	-2,201600
23,225167	0,5	-2,219800
23,233500	0,5	-2,236850
23,241833	0,5	-2,241400
23,250167	0,5	-2,251150
23,258500	0,5	-2,249650
23,266833	0,5	-2,252500
23,275167	0,5	-2,247400
23,283500	0,5	-2,235450
23,291833	0,5	-2,226500
23,300167	0,5	-2,218100
23,308500	0,5	-2,206000
23,316833	0,5	-2,201250
23,325167	0,5	-2,184500
23,333500	0,5	-2,182400
23,341833	0,5	-2,168800
23,350167	0,5	-2,142600
23,358500	0,5	-2,161600
23,366833	0,5	-2,176700
23,375167	0,5	-2,166800
23,383500	0,5	-2,159550
23,391833	0,5	-2,140450
23,400167	0,5	-2,131950
23,408500	0,5	-2,113200
23,416833	0,5	-2,094850
23,425167	0,5	-2,068200
23,433500	0,5	-2,046250
23,441833	0,5	-2,020300
23,450167	0,5	-1,990750
23,458500	0,5	-1,965550
23,466833	0,5	-1,937700
23,475167	0,5	-1,914800
23,483500	0,5	-1,936050
23,491833	0,5	-1,881750
23,500167	0,5	-1,835250
23,508500	0,5	-1,831950
23,516833	0,5	-1,823350
23,525167	0,5	-1,808900
23,533500	0,5	-1,791900
23,541833	0,5	-1,777050
23,550167	0,5	-1,756400
23,558500	0,5	-1,745100
23,566833	0,5	-1,722950
23,575167	0,5	-1,707450
23,583500	0,5	-1,682350
23,591833	0,5	-1,664950
23,600167	0,5	-1,640150
23,608500	0,5	-1,621100
23,616833	0,5	-1,599700
23,625167	0,5	-1,647550
23,633500	0,5	-1,611400
23,641833	0,5	-1,586750
23,650167	0,5	-1,516950
23,658500	0,5	-1,498350
23,666833	0,5	-1,485100
23,675167	0,5	-1,470300
23,683500	0,5	-1,453800
23,691833	0,5	-1,431850
23,700167	0,5	-1,416000
23,708500	0,5	-1,397150
23,716833	0,5	-1,382100
23,725167	0,5	-1,364700
23,733500	0,5	-1,346650
23,741833	0,5	-1,328900
23,750167	0,5	-1,313950
23,758500	0,5	-1,299150
23,766833	0,5	-1,292100
23,775167	0,5	-1,394550
23,783500	0,5	-1,343600
23,791833	0,5	-1,305450
23,800167	0,5	-1,247300
23,808500	0,5	-1,230900
23,816833	0,5	-1,215350
23,825167	0,5	-1,204600
23,833500	0,5	-1,200100
23,841833	0,5	-1,178850
23,850167	0,5	-1,165650
23,858500	0,5	-1,139600
23,866833	0,5	-1,123950
23,875167	0,5	-1,099950
23,883500	0,5	-1,082500
23,891833	0,5	-1,058900
23,900167	0,5	-1,041350
23,908500	0,5	-1,019950
23,916833	0,5	-1,046000
23,925167	0,5	-1,116550
23,933500	0,5	-1,070150
23,941833	0,5	-1,025250
23,950167	0,5	-0,978050
23,958500	0,5	-0,955650
23,966833	0,5	-0,946350
23,975167	0,5	-0,946050
23,983500	0,5	-0,940950
23,991833	0,5	-0,929650
24,000167	0,5	-0,902850
24,008500	0,5	-0,893100
24,016833	0,5	-0,872400
24,025167	0,5	-0,859550
24,033500	0,5	-0,839000
24,041833	0,5	-0,826400
24,050167	0,5	-0,806500
24,058500	0,5	-0,793800
24,066833	0,5	-0,885150
24,075167	0,5	-0,870750
24,083500	0,5	-0,826650
24,091833	0,5	-0,773150
24,100167	0,5	-0,728450
24,108500	0,5	-0,716600
24,116833	0,5	-0,701000
24,125167	0,5	-0,696150
24,133500	0,5	-0,695750
24,141833	0,5	-0,671200
24,150167	0,5	-0,656950
24,158500	0,5	-0,636200
24,166833	0,5	-0,623600
24,175167	0,5	-0,601650
24,183500	0,5	-0,591600
24,191833	0,5	-0,570550
24,200167	0,5	-0,563600
24,208500	0,5	-0,558350
24,216833	0,5	-0,640100
24,225167	0,5	-0,612050
24,233500	0,5	-0,593150
24,241833	0,5	-0,539000
24,250167	0,5	-0,513400
24,258500	0,5	-0,513400
24,266833	0,5	-0,490550
24,275167	0,5	-0,487200
24,283500	0,5	-0,469750
24,291833	0,5	-0,452450
24,300167	0,5	-0,434600
24,308500	0,5	-0,421700
24,316833	0,5	-0,404500
24,325167	0,5	-0,383350
24,333500	0,5	-0,369400
24,341833	0,5	-0,355550
24,350167	0,5	-0,342400
24,358500	0,5	-0,375650
24,366833	0,5	-0,395900
24,375167	0,5	-0,385350
24,383500	0,5	-0,342200
24,391833	0,5	-0,315250
24,400167	0,5	-0,292600
24,408500	0,5	-0,289350
24,416833	0,5	-0,287000
24,425167	0,5	-0,289200
24,433500	0,5	-0,277050
24,441833	0,5	-0,266500
24,450167	0,5	-0,250100
24,458500	0,5	-0,238400
24,466833	0,5	-0,226900
24,475167	0,5	-0,215600
24,483500	0,5	-0,204500
24,491833	0,5	-0,189000
24,500167	0,5	-0,179800
24,508500	0,5	-0,228200
24,516833	0,5	-0,212000
24,525167	0,5	-0,197900
24,533500	0,5	-0,169550
24,541833	0,5	-0,142700
24,550167	0,5	-0,132200
24,558500	0,5	-0,125750
24,566833	0,5	-0,132100
24,575167	0,5	-0,121850
24,583500	0,5	-0,110100
24,591833	0,5	-0,101800
24,600167	0,5	-0,097450
24,608500	0,5	-0,088050
24,616833	0,5	-0,079650
24,625167	0,5	-0,075050
24,633500	0,5	-0,066800
24,641833	0,5	-0,060450
24,650167	0,5	-0,056000
24,658500	0,5	-0,099400
24,666833	0,5	-0,075300
24,675167	0,5	-0,068450
24,683500	0,5	-0,041400
24,691833	0,5	-0,028100
24,700167	0,5	-0,018900
24,708500	0,5	-0,016400
24,716833	0,5	-0,020550
24,725167	0,5	-0,021400
24,733500	0,5	-0,003400
24,741833	0,5	0,000950
24,750167	0,5	0,010800
24,758500	0,5	0,019300
24,766833	0,5	0,027800
24,775167	0,5	0,033800
24,783500	0,5	0,044000
24,791833	0,5	0,047700
24,800167	0,5	0,034900
24,808500	0,5	0,023200
24,816833	0,5	0,033300
24,825167	0,5	0,042450
24,833500	0,5	0,060350
24,841833	0,5	0,064700
24,850167	0,5	0,065600
24,858500	0,5	0,066150
24,866833	0,5	0,059950
24,875167	0,5	0,067600
24,883500	0,5	0,070600
24,891833	0,5	0,078900
24,900167	0,5	0,085800
24,908500	0,5	0,090300
24,916833	0,5	0,091500
24,925167	0,5	0,101600
24,933500	0,5	0,111450
24,941833	0,5	0,114050
24,950167	0,5	0,103250
24,958500	0,5	0,104300
24,966833	0,5	0,109300
24,975167	0,5	0,122300
24,983500	0,5	0,130300
24,991833	0,5	0,135000
25,000167	0,5	0,137100
25,008500	0,5	0,129850
25,016833	0,5	0,124550
25,025167	0,5	0,128650
25,033500	0,5	0,133950
25,041833	0,5	0,132550
25,050167	0,5	0,138050
25,058500	0,5	0,138750
25,066833	0,5	0,147700
25,075167	0,5	0,149050
25,083500	0,5	0,154600
25,091833	0,5	0,153050
25,100167	0,5	0,147850
25,108500	0,5	0,151250
25,116833	0,5	0,156100
25,125167	0,5	0,162900
25,133500	0,5	0,168250
25,141833	0,5	0,169600
25,150167	0,5	0,171150
25,158500	0,5	0,168650
25,166833	0,5	0,170750
25,175167	0,5	0,171500
25,183500	0,5	0,172550
25,191833	0,5	0,175700
25,200167	0,5	0,175000
25,208500	0,5	0,176900
25,216833	0,5	0,175150
25,225167	0,5	0,176850
25,233500	0,5	0,175250
25,241833	0,5	0,175300
25,250167	0,5	0,174350
25,258500	0,5	0,175300
25,266833	0,5	0,178150
25,275167	0,5	0,181350
25,283500	0,5	0,182300
25,291833	0,5	0,184200
25,300167	0,5	0,186350
25,308500	0,5	0,179450
25,316833	0,5	0,183100
25,325167	0,5	0,185750
25,333500	0,5	0,187750
25,341833	0,5	0,187650
25,350167	0,5	0,187150
25,358500	0,5	0,191750
25,366833	0,5	0,192400
25,375167	0,5	0,193550
25,383500	0,5	0,191850
25,391833	0,5	0,189500
25,400167	0,5	0,191100
25,408500	0,5	0,189300
25,416833	0,5	0,187650
25,425167	0,5	0,189150
25,433500	0,5	0,188100
25,441833	0,5	0,185450
25,450167	0,5	0,185700
25,458500	0,5	0,186500
25,466833	0,5	0,184950
25,475167	0,5	0,188250
25,483500	0,5	0,189650
25,491833	0,5	0,187850
25,500167	0,5	0,188250
25,508500	0,5	0,187550
25,516833	0,5	0,189150
25,525167	0,5	0,189100
25,533500	0,5	0,189900
25,541833	0,5	0,195250
25,550167	0,5	0,193200
25,558500	0,5	0,193950
25,566833	0,5	0,189300
25,575167	0,5	0,188200
25,583500	0,5	0,188100
25,591833	0,5	0,185650
25,600167	0,5	0,187300
25,608500	0,5	0,186450
25,616833	0,5	0,182450
25,625167	0,5	0,184100
25,633500	0,5	0,182400
25,641833	0,5	0,182600
25,650167	0,5	0,183950
25,658500	0,5	0,181650
25,666833	0,5	0,179900
25,675167	0,5	0,182100
25,683500	0,5	0,184500
25,691833	0,5	0,186050
25,700167	0,5	0,185100
25,708500	0,5	0,189150
25,716833	0,5	0,180800
25,725167	0,5	0,177350
25,733500	0,5	0,177450
25,741833	0,5	0,178850
25,750167	0,5	0,181550
25,758500	0,5	0,182300
25,766833	0,5	0,178050
25,775167	0,5	0,178750
25,783500	0,5	0,174600
25,791833	0,5	0,174750
25,800167	0,5	0,175300
25,808500	0,5	0,172150
25,816833	0,5	0,173050
25,825167	0,5	0,171700
25,833500	0,5	0,177050
25,841833	0,5	0,173450
25,850167	0,5	0,174550
25,858500	0,5	0,175450
25,866833	0,5	0,169650
25,875167	0,5	0,170650
25,883500	0,5	0,170600
25,891833	0,5	0,172550
25,900167	0,5	0,180250
25,908500	0,5	0,174700
25,916833	0,5	0,172400
25,925167	0,5	0,173750
25,933500	0,5	0,173250
25,941833	0,5	0,168550
25,950167	0,5	0,171000
25,958500	0,5	0,170350
25,966833	0,5	0,169450
25,975167	0,5	0,169150
25,983500	0,5	0,170900
25,991833	0,5	0,170700
26,000167	0,5	0,177150
