File Path	chrom://chromeleon01/ikbm_chromeleon/2022/ICS-5000/ED1/Esteban/20220612_Cell_7_4_eg.seq/544.smp/ED_1.channel/ED_1.chm
Channel	ED_1

Injection Information:
Data Vault	ikbm_chromeleon
Injection	CelS2_02h-EGS_1
Injection Number	100
Position	BA1
Comment	
Processing Method	Stop sequence after Cell Death
Instrument Method	ICS5000_PA200_FullNative_Ox_26min_ED1
Type	Unknown
Status	Finished
Injection Date	14.06.2022
Injection Time	15:16:58
Injection Volume (µl)	5,0
Dilution Factor	1,0000
Weight	1,0000

Chromatogram Data Information:
Time Min. (min)	0,000333
Time Max. (min)	26,000333
Data Points	3121
Detector	EDet1
Generating Data System	Chromeleon 7.2.9.11323
Exporting Data System	Chromeleon 7.2.9.0
Operator	Instrument Controller
Signal Quantity	
Signal Unit	nC
Signal Min.	-3,300150
Signal Max.	62,095201
Channel	ED_1
Driver Name	DC-5000
Channel Type	Evaluation
Min. Step (s)	0,5
Max. Step (s)	0,5
Average Step (s)	0,5

Signal Parameter Information:
Signal Info	

Chromatogram Data:
Time (min)	Step (s)	Value (nC)
0,000333	n.a.	-0,004550
0,008667	0,5	-0,083250
0,017000	0,5	-0,079850
0,025333	0,5	-0,069600
0,033667	0,5	-0,058700
0,042000	0,5	-0,035100
0,050333	0,5	-0,045350
0,058667	0,5	-0,054200
0,067000	0,5	-0,018400
0,075333	0,5	-0,051050
0,083667	0,5	-0,060700
0,092000	0,5	-0,050700
0,100333	0,5	-0,042750
0,108667	0,5	0,006750
0,117000	0,5	-0,013900
0,125333	0,5	-0,020800
0,133667	0,5	-0,026500
0,142000	0,5	-0,020500
0,150333	0,5	-0,024100
0,158667	0,5	-0,023100
0,167000	0,5	-0,030700
0,175333	0,5	-0,034900
0,183667	0,5	-0,032200
0,192000	0,5	-0,048100
0,200333	0,5	-0,067600
0,208667	0,5	-0,070650
0,217000	0,5	-0,038500
0,225333	0,5	-0,074600
0,233667	0,5	-0,066000
0,242000	0,5	-0,073650
0,250333	0,5	-0,042200
0,258667	0,5	-0,017450
0,267000	0,5	-0,029000
0,275333	0,5	-0,040800
0,283667	0,5	-0,033700
0,292000	0,5	-0,038050
0,300333	0,5	-0,022300
0,308667	0,5	-0,022750
0,317000	0,5	-0,034800
0,325333	0,5	-0,063100
0,333667	0,5	-0,070350
0,342000	0,5	-0,071800
0,350333	0,5	-0,083250
0,358667	0,5	-0,075300
0,367000	0,5	-0,069450
0,375333	0,5	-0,092900
0,383667	0,5	-0,089350
0,392000	0,5	-0,081450
0,400333	0,5	-0,063000
0,408667	0,5	-0,032450
0,417000	0,5	-0,047050
0,425333	0,5	-0,043900
0,433667	0,5	-0,054000
0,442000	0,5	-0,053100
0,450333	0,5	-0,058500
0,458667	0,5	-0,052500
0,467000	0,5	-0,063500
0,475333	0,5	-0,057400
0,483667	0,5	-0,060900
0,492000	0,5	-0,083800
0,500333	0,5	-0,091000
0,508667	0,5	-0,067850
0,517000	0,5	-0,079050
0,525333	0,5	-0,087750
0,533667	0,5	-0,079650
0,542000	0,5	-0,067750
0,550333	0,5	-0,038900
0,558667	0,5	-0,032750
0,567000	0,5	-0,029550
0,575333	0,5	-0,030800
0,583667	0,5	-0,024600
0,592000	0,5	-0,032450
0,600333	0,5	-0,025850
0,608667	0,5	-0,039100
0,617000	0,5	-0,033300
0,625333	0,5	-0,041200
0,633667	0,5	-0,034300
0,642000	0,5	-0,054650
0,650333	0,5	-0,043350
0,658667	0,5	-0,029450
0,667000	0,5	-0,037400
0,675333	0,5	-0,050700
0,683667	0,5	-0,034400
0,692000	0,5	-0,021150
0,700333	0,5	0,013600
0,708667	0,5	0,011750
0,717000	0,5	0,007750
0,725333	0,5	0,007450
0,733667	0,5	0,009550
0,742000	0,5	0,011300
0,750333	0,5	0,005950
0,758667	0,5	0,011250
0,767000	0,5	0,004550
0,775333	0,5	0,019950
0,783667	0,5	0,015700
0,792000	0,5	0,011400
0,800333	0,5	0,022600
0,808667	0,5	0,028300
0,817000	0,5	0,008450
0,825333	0,5	0,008400
0,833667	0,5	0,011750
0,842000	0,5	0,045950
0,850333	0,5	0,052350
0,858667	0,5	0,047950
0,867000	0,5	0,045050
0,875333	0,5	0,057200
0,883667	0,5	0,055350
0,892000	0,5	0,057800
0,900333	0,5	0,063650
0,908667	0,5	0,056300
0,917000	0,5	0,058300
0,925333	0,5	0,052900
0,933667	0,5	0,055600
0,942000	0,5	0,037250
0,950333	0,5	0,072050
0,958667	0,5	0,058500
0,967000	0,5	0,054550
0,975333	0,5	0,049750
0,983667	0,5	0,064900
0,992000	0,5	0,091950
1,000333	0,5	0,096600
1,008667	0,5	0,077100
1,017000	0,5	0,096750
1,025333	0,5	0,093450
1,033667	0,5	0,100600
1,042000	0,5	0,090550
1,050333	0,5	0,091350
1,058667	0,5	0,090650
1,067000	0,5	0,092000
1,075333	0,5	0,101600
1,083667	0,5	0,080250
1,092000	0,5	0,069050
1,100333	0,5	0,104750
1,108667	0,5	0,086050
1,117000	0,5	0,079000
1,125333	0,5	0,084850
1,133667	0,5	0,092650
1,142000	0,5	0,139200
1,150333	0,5	0,127600
1,158667	0,5	0,129900
1,167000	0,5	0,121450
1,175333	0,5	0,129250
1,183667	0,5	0,126250
1,192000	0,5	0,137100
1,200333	0,5	0,126150
1,208667	0,5	0,126200
1,217000	0,5	0,127050
1,225333	0,5	0,123100
1,233667	0,5	0,116400
1,242000	0,5	0,114050
1,250333	0,5	0,131750
1,258667	0,5	0,109600
1,267000	0,5	0,110000
1,275333	0,5	0,114900
1,283667	0,5	0,134500
1,292000	0,5	0,162450
1,300333	0,5	0,161950
1,308667	0,5	0,149600
1,317000	0,5	0,159000
1,325333	0,5	0,153250
1,333667	0,5	0,155700
1,342000	0,5	0,150650
1,350333	0,5	0,150300
1,358667	0,5	0,142000
1,367000	0,5	0,146350
1,375333	0,5	0,146500
1,383667	0,5	0,145950
1,392000	0,5	0,147450
1,400333	0,5	0,156800
1,408667	0,5	0,129650
1,417000	0,5	0,133300
1,425333	0,5	0,138000
1,433667	0,5	0,162700
1,442000	0,5	0,186250
1,450333	0,5	0,174200
1,458667	0,5	0,172450
1,467000	0,5	0,169600
1,475333	0,5	0,173450
1,483667	0,5	0,165850
1,492000	0,5	0,165750
1,500333	0,5	0,157850
1,508667	0,5	0,160600
1,517000	0,5	0,158350
1,525333	0,5	0,145450
1,533667	0,5	0,130950
1,542000	0,5	0,153550
1,550333	0,5	0,141250
1,558667	0,5	0,121550
1,567000	0,5	0,094200
1,575333	0,5	-0,038650
1,583667	0,5	-0,392000
1,592000	0,5	-0,892750
1,600333	0,5	-0,960050
1,608667	0,5	0,273350
1,617000	0,5	3,866500
1,625333	0,5	11,073850
1,633667	0,5	21,414400
1,642000	0,5	30,761950
1,650333	0,5	34,313901
1,658667	0,5	31,374050
1,667000	0,5	25,269900
1,675333	0,5	19,262600
1,683667	0,5	14,772600
1,692000	0,5	11,811800
1,700333	0,5	9,933250
1,708667	0,5	8,838750
1,717000	0,5	8,352650
1,725333	0,5	8,205850
1,733667	0,5	8,042200
1,742000	0,5	7,563200
1,750333	0,5	6,908700
1,758667	0,5	6,267350
1,767000	0,5	5,752300
1,775333	0,5	5,356550
1,783667	0,5	5,154000
1,792000	0,5	5,239150
1,800333	0,5	5,705750
1,808667	0,5	6,492350
1,817000	0,5	7,315850
1,825333	0,5	7,905650
1,833667	0,5	8,126950
1,842000	0,5	7,952850
1,850333	0,5	7,457200
1,858667	0,5	6,873700
1,867000	0,5	6,334150
1,875333	0,5	5,922000
1,883667	0,5	5,614300
1,892000	0,5	5,379250
1,900333	0,5	5,156700
1,908667	0,5	4,920300
1,917000	0,5	4,660200
1,925333	0,5	4,442750
1,933667	0,5	4,255000
1,942000	0,5	4,087950
1,950333	0,5	3,930050
1,958667	0,5	3,791650
1,967000	0,5	3,721550
1,975333	0,5	3,695550
1,983667	0,5	3,761450
1,992000	0,5	3,786950
2,000333	0,5	3,745750
2,008667	0,5	3,643250
2,017000	0,5	3,545850
2,025333	0,5	3,501400
2,033667	0,5	3,533000
2,042000	0,5	3,669450
2,050333	0,5	4,068000
2,058667	0,5	4,906800
2,067000	0,5	6,491700
2,075333	0,5	8,638400
2,083667	0,5	10,460050
2,092000	0,5	10,873500
2,100333	0,5	9,873700
2,108667	0,5	8,360800
2,117000	0,5	7,126650
2,125333	0,5	6,402850
2,133667	0,5	6,166150
2,142000	0,5	6,210400
2,150333	0,5	6,428550
2,158667	0,5	6,516900
2,167000	0,5	6,325950
2,175333	0,5	5,966400
2,183667	0,5	5,584900
2,192000	0,5	5,342100
2,200333	0,5	5,248450
2,208667	0,5	5,336950
2,217000	0,5	5,573500
2,225333	0,5	5,914550
2,233667	0,5	6,159550
2,242000	0,5	6,217150
2,250333	0,5	6,101450
2,258667	0,5	5,937600
2,267000	0,5	5,793000
2,275333	0,5	5,701550
2,283667	0,5	5,655600
2,292000	0,5	5,607000
2,300333	0,5	5,597950
2,308667	0,5	5,615300
2,317000	0,5	5,657350
2,325333	0,5	5,735800
2,333667	0,5	5,825250
2,342000	0,5	5,933550
2,350333	0,5	6,047500
2,358667	0,5	6,120250
2,367000	0,5	6,175300
2,375333	0,5	6,229950
2,383667	0,5	6,321250
2,392000	0,5	6,424850
2,400333	0,5	6,524350
2,408667	0,5	6,587850
2,417000	0,5	6,625450
2,425333	0,5	6,638850
2,433667	0,5	6,635050
2,442000	0,5	6,589600
2,450333	0,5	6,573100
2,458667	0,5	6,561800
2,467000	0,5	6,593000
2,475333	0,5	6,620800
2,483667	0,5	6,628400
2,492000	0,5	6,631600
2,500333	0,5	6,645300
2,508667	0,5	6,649600
2,517000	0,5	6,657700
2,525333	0,5	6,663100
2,533667	0,5	6,659150
2,542000	0,5	6,667500
2,550333	0,5	6,685100
2,558667	0,5	6,720400
2,567000	0,5	6,773800
2,575333	0,5	6,857500
2,583667	0,5	6,873150
2,592000	0,5	6,835850
2,600333	0,5	6,763100
2,608667	0,5	6,660100
2,617000	0,5	6,551100
2,625333	0,5	6,448700
2,633667	0,5	6,362800
2,642000	0,5	6,307600
2,650333	0,5	6,250100
2,658667	0,5	6,201300
2,667000	0,5	6,143950
2,675333	0,5	6,093150
2,683667	0,5	6,039400
2,692000	0,5	5,985550
2,700333	0,5	5,941800
2,708667	0,5	5,877550
2,717000	0,5	5,833450
2,725333	0,5	5,808650
2,733667	0,5	5,751350
2,742000	0,5	5,708200
2,750333	0,5	5,701550
2,758667	0,5	5,715550
2,767000	0,5	5,796900
2,775333	0,5	5,904150
2,783667	0,5	6,167100
2,792000	0,5	6,643150
2,800333	0,5	7,420800
2,808667	0,5	8,409500
2,817000	0,5	9,430400
2,825333	0,5	10,176200
2,833667	0,5	10,514350
2,842000	0,5	10,473750
2,850333	0,5	10,260000
2,858667	0,5	10,077200
2,867000	0,5	10,151550
2,875333	0,5	10,664800
2,883667	0,5	11,913000
2,892000	0,5	14,508550
2,900333	0,5	19,258950
2,908667	0,5	26,897450
2,917000	0,5	37,268301
2,925333	0,5	48,592001
2,933667	0,5	57,817451
2,942000	0,5	62,095201
2,950333	0,5	60,454651
2,958667	0,5	54,318751
2,967000	0,5	46,217351
2,975333	0,5	38,351001
2,983667	0,5	31,680900
2,992000	0,5	26,301350
3,000333	0,5	21,958400
3,008667	0,5	18,432450
3,017000	0,5	15,666450
3,025333	0,5	13,513850
3,033667	0,5	11,836050
3,042000	0,5	10,508200
3,050333	0,5	9,420300
3,058667	0,5	8,547900
3,067000	0,5	7,891550
3,075333	0,5	7,454050
3,083667	0,5	7,234050
3,092000	0,5	7,087200
3,100333	0,5	6,908850
3,108667	0,5	6,587650
3,117000	0,5	6,148700
3,125333	0,5	5,617850
3,133667	0,5	5,097400
3,142000	0,5	4,625100
3,150333	0,5	4,231850
3,158667	0,5	3,893350
3,167000	0,5	3,660050
3,175333	0,5	3,427650
3,183667	0,5	3,254300
3,192000	0,5	3,110550
3,200333	0,5	3,004150
3,208667	0,5	2,919100
3,217000	0,5	2,824800
3,225333	0,5	2,728200
3,233667	0,5	2,641550
3,242000	0,5	2,561450
3,250333	0,5	2,489500
3,258667	0,5	2,432150
3,267000	0,5	2,381700
3,275333	0,5	2,371700
3,283667	0,5	2,381050
3,292000	0,5	2,412200
3,300333	0,5	2,424450
3,308667	0,5	2,435850
3,317000	0,5	2,416550
3,325333	0,5	2,331200
3,333667	0,5	2,218950
3,342000	0,5	2,097850
3,350333	0,5	1,984400
3,358667	0,5	1,894550
3,367000	0,5	1,794150
3,375333	0,5	1,723100
3,383667	0,5	1,722850
3,392000	0,5	1,627700
3,400333	0,5	1,602100
3,408667	0,5	1,586550
3,417000	0,5	1,581050
3,425333	0,5	1,572200
3,433667	0,5	1,569350
3,442000	0,5	1,555450
3,450333	0,5	1,542700
3,458667	0,5	1,539100
3,467000	0,5	1,546550
3,475333	0,5	1,554850
3,483667	0,5	1,621250
3,492000	0,5	1,714000
3,500333	0,5	1,850400
3,508667	0,5	1,962700
3,517000	0,5	2,028450
3,525333	0,5	2,016950
3,533667	0,5	1,953600
3,542000	0,5	1,829700
3,550333	0,5	1,683050
3,558667	0,5	1,535050
3,567000	0,5	1,409550
3,575333	0,5	1,308500
3,583667	0,5	1,228400
3,592000	0,5	1,169500
3,600333	0,5	1,114050
3,608667	0,5	1,093900
3,617000	0,5	1,042900
3,625333	0,5	0,999500
3,633667	0,5	0,972050
3,642000	0,5	0,956900
3,650333	0,5	0,962650
3,658667	0,5	0,951300
3,667000	0,5	0,923900
3,675333	0,5	0,915300
3,683667	0,5	0,898000
3,692000	0,5	0,899600
3,700333	0,5	0,878900
3,708667	0,5	0,875400
3,717000	0,5	0,860100
3,725333	0,5	0,857700
3,733667	0,5	0,852650
3,742000	0,5	0,843100
3,750333	0,5	0,838800
3,758667	0,5	0,861450
3,767000	0,5	0,838500
3,775333	0,5	0,824800
3,783667	0,5	0,820200
3,792000	0,5	0,815600
3,800333	0,5	0,832200
3,808667	0,5	0,813050
3,817000	0,5	0,807850
3,825333	0,5	0,799950
3,833667	0,5	0,801950
3,842000	0,5	0,792900
3,850333	0,5	0,795900
3,858667	0,5	0,783450
3,867000	0,5	0,785200
3,875333	0,5	0,782400
3,883667	0,5	0,781150
3,892000	0,5	0,759150
3,900333	0,5	0,761850
3,908667	0,5	0,757100
3,917000	0,5	0,733300
3,925333	0,5	0,716200
3,933667	0,5	0,710250
3,942000	0,5	0,710650
3,950333	0,5	0,710950
3,958667	0,5	0,686350
3,967000	0,5	0,673650
3,975333	0,5	0,665200
3,983667	0,5	0,651550
3,992000	0,5	0,646800
4,000333	0,5	0,629950
4,008667	0,5	0,630200
4,017000	0,5	0,616900
4,025333	0,5	0,614950
4,033667	0,5	0,608850
4,042000	0,5	0,600600
4,050333	0,5	0,608200
4,058667	0,5	0,609700
4,067000	0,5	0,591100
4,075333	0,5	0,593550
4,083667	0,5	0,603450
4,092000	0,5	0,629200
4,100333	0,5	0,646700
4,108667	0,5	0,649000
4,117000	0,5	0,672250
4,125333	0,5	0,703900
4,133667	0,5	0,741400
4,142000	0,5	0,787600
4,150333	0,5	0,847200
4,158667	0,5	0,914200
4,167000	0,5	1,000650
4,175333	0,5	1,075850
4,183667	0,5	1,141550
4,192000	0,5	1,169700
4,200333	0,5	1,195900
4,208667	0,5	1,162100
4,217000	0,5	1,110200
4,225333	0,5	1,034250
4,233667	0,5	0,964350
4,242000	0,5	0,902450
4,250333	0,5	0,831700
4,258667	0,5	0,758350
4,267000	0,5	0,710700
4,275333	0,5	0,664250
4,283667	0,5	0,634700
4,292000	0,5	0,611100
4,300333	0,5	0,596000
4,308667	0,5	0,577900
4,317000	0,5	0,564200
4,325333	0,5	0,557050
4,333667	0,5	0,531150
4,342000	0,5	0,526600
4,350333	0,5	0,530050
4,358667	0,5	0,513950
4,367000	0,5	0,504800
4,375333	0,5	0,509700
4,383667	0,5	0,519950
4,392000	0,5	0,540600
4,400333	0,5	0,528450
4,408667	0,5	0,530600
4,417000	0,5	0,522000
4,425333	0,5	0,523000
4,433667	0,5	0,514500
4,442000	0,5	0,514600
4,450333	0,5	0,511700
4,458667	0,5	0,508350
4,467000	0,5	0,511000
4,475333	0,5	0,503650
4,483667	0,5	0,503550
4,492000	0,5	0,519750
4,500333	0,5	0,525750
4,508667	0,5	0,514500
4,517000	0,5	0,517750
4,525333	0,5	0,523350
4,533667	0,5	0,553350
4,542000	0,5	0,562400
4,550333	0,5	0,576950
4,558667	0,5	0,571850
4,567000	0,5	0,579450
4,575333	0,5	0,570900
4,583667	0,5	0,576650
4,592000	0,5	0,566200
4,600333	0,5	0,563500
4,608667	0,5	0,554900
4,617000	0,5	0,550750
4,625333	0,5	0,535550
4,633667	0,5	0,522950
4,642000	0,5	0,536450
4,650333	0,5	0,523750
4,658667	0,5	0,517000
4,667000	0,5	0,523950
4,675333	0,5	0,536450
4,683667	0,5	0,574600
4,692000	0,5	0,597700
4,700333	0,5	0,613900
4,708667	0,5	0,649800
4,717000	0,5	0,682850
4,725333	0,5	0,734150
4,733667	0,5	0,782500
4,742000	0,5	0,842450
4,750333	0,5	0,910350
4,758667	0,5	0,993850
4,767000	0,5	1,084150
4,775333	0,5	1,190400
4,783667	0,5	1,320350
4,792000	0,5	1,521700
4,800333	0,5	1,706650
4,808667	0,5	1,953150
4,817000	0,5	2,259850
4,825333	0,5	2,627050
4,833667	0,5	3,054250
4,842000	0,5	3,480150
4,850333	0,5	3,935900
4,858667	0,5	4,377000
4,867000	0,5	4,774950
4,875333	0,5	5,090700
4,883667	0,5	5,301250
4,892000	0,5	5,373500
4,900333	0,5	5,317050
4,908667	0,5	5,130550
4,917000	0,5	4,830500
4,925333	0,5	4,420300
4,933667	0,5	3,981500
4,942000	0,5	3,527100
4,950333	0,5	3,055550
4,958667	0,5	2,620650
4,967000	0,5	2,249450
4,975333	0,5	1,933250
4,983667	0,5	1,684600
4,992000	0,5	1,454750
5,000333	0,5	1,281950
5,008667	0,5	1,152750
5,017000	0,5	1,053250
5,025333	0,5	0,979200
5,033667	0,5	0,922550
5,042000	0,5	0,880000
5,050333	0,5	0,844350
5,058667	0,5	0,830100
5,067000	0,5	0,809800
5,075333	0,5	0,794000
5,083667	0,5	0,797650
5,092000	0,5	0,805950
5,100333	0,5	0,796650
5,108667	0,5	0,812950
5,117000	0,5	0,833500
5,125333	0,5	0,868500
5,133667	0,5	0,900050
5,142000	0,5	0,925000
5,150333	0,5	0,957450
5,158667	0,5	1,004600
5,167000	0,5	1,046900
5,175333	0,5	1,103650
5,183667	0,5	1,161050
5,192000	0,5	1,219800
5,200333	0,5	1,280750
5,208667	0,5	1,335300
5,217000	0,5	1,380650
5,225333	0,5	1,396900
5,233667	0,5	1,416550
5,242000	0,5	1,393900
5,250333	0,5	1,354950
5,258667	0,5	1,304850
5,267000	0,5	1,257200
5,275333	0,5	1,203450
5,283667	0,5	1,145350
5,292000	0,5	1,066500
5,300333	0,5	1,003800
5,308667	0,5	0,940550
5,317000	0,5	0,891750
5,325333	0,5	0,840300
5,333667	0,5	0,809550
5,342000	0,5	0,778950
5,350333	0,5	0,762200
5,358667	0,5	0,745350
5,367000	0,5	0,720450
5,375333	0,5	0,711500
5,383667	0,5	0,719750
5,392000	0,5	0,701050
5,400333	0,5	0,693800
5,408667	0,5	0,699900
5,417000	0,5	0,709850
5,425333	0,5	0,726900
5,433667	0,5	0,723900
5,442000	0,5	0,726750
5,450333	0,5	0,722800
5,458667	0,5	0,728550
5,467000	0,5	0,718400
5,475333	0,5	0,723700
5,483667	0,5	0,714700
5,492000	0,5	0,714500
5,500333	0,5	0,711650
5,508667	0,5	0,711500
5,517000	0,5	0,702150
5,525333	0,5	0,717950
5,533667	0,5	0,710150
5,542000	0,5	0,704450
5,550333	0,5	0,706250
5,558667	0,5	0,713100
5,567000	0,5	0,733200
5,575333	0,5	0,749600
5,583667	0,5	0,765400
5,592000	0,5	0,769800
5,600333	0,5	0,786000
5,608667	0,5	0,794650
5,617000	0,5	0,811550
5,625333	0,5	0,824150
5,633667	0,5	0,845100
5,642000	0,5	0,861800
5,650333	0,5	0,896450
5,658667	0,5	0,928300
5,667000	0,5	0,967200
5,675333	0,5	1,032400
5,683667	0,5	1,090950
5,692000	0,5	1,164350
5,700333	0,5	1,279600
5,708667	0,5	1,424650
5,717000	0,5	1,630900
5,725333	0,5	1,851100
5,733667	0,5	2,098050
5,742000	0,5	2,376650
5,750333	0,5	2,661300
5,758667	0,5	2,934900
5,767000	0,5	3,169900
5,775333	0,5	3,352750
5,783667	0,5	3,457650
5,792000	0,5	3,486600
5,800333	0,5	3,423050
5,808667	0,5	3,284050
5,817000	0,5	3,083350
5,825333	0,5	2,878100
5,833667	0,5	2,608100
5,842000	0,5	2,353150
5,850333	0,5	2,108950
5,858667	0,5	1,900350
5,867000	0,5	1,730650
5,875333	0,5	1,564700
5,883667	0,5	1,432250
5,892000	0,5	1,327750
5,900333	0,5	1,246800
5,908667	0,5	1,183650
5,917000	0,5	1,127550
5,925333	0,5	1,086950
5,933667	0,5	1,055150
5,942000	0,5	1,033150
5,950333	0,5	1,020800
5,958667	0,5	0,993450
5,967000	0,5	0,988950
5,975333	0,5	0,990000
5,983667	0,5	0,970500
5,992000	0,5	0,964000
6,000333	0,5	0,967300
6,008667	0,5	0,977100
6,017000	0,5	0,999050
6,025333	0,5	0,991800
6,033667	0,5	1,000900
6,042000	0,5	1,001700
6,050333	0,5	1,010150
6,058667	0,5	1,005850
6,067000	0,5	1,009450
6,075333	0,5	1,002250
6,083667	0,5	0,994750
6,092000	0,5	0,985850
6,100333	0,5	0,968950
6,108667	0,5	0,948200
6,117000	0,5	0,942000
6,125333	0,5	0,932900
6,133667	0,5	0,911550
6,142000	0,5	0,902950
6,150333	0,5	0,899050
6,158667	0,5	0,905450
6,167000	0,5	0,910100
6,175333	0,5	0,905550
6,183667	0,5	0,897250
6,192000	0,5	0,902350
6,200333	0,5	0,896650
6,208667	0,5	0,906300
6,217000	0,5	0,904800
6,225333	0,5	0,911200
6,233667	0,5	0,911400
6,242000	0,5	0,923800
6,250333	0,5	0,925750
6,258667	0,5	0,926800
6,267000	0,5	0,939850
6,275333	0,5	0,944350
6,283667	0,5	0,936400
6,292000	0,5	0,934400
6,300333	0,5	0,944450
6,308667	0,5	0,960950
6,317000	0,5	0,971750
6,325333	0,5	0,966850
6,333667	0,5	0,971900
6,342000	0,5	0,971900
6,350333	0,5	0,977250
6,358667	0,5	0,975150
6,367000	0,5	0,977700
6,375333	0,5	0,974700
6,383667	0,5	0,976550
6,392000	0,5	0,974150
6,400333	0,5	0,967800
6,408667	0,5	0,964050
6,417000	0,5	0,971050
6,425333	0,5	0,957050
6,433667	0,5	0,951350
6,442000	0,5	0,949000
6,450333	0,5	0,960300
6,458667	0,5	0,975050
6,467000	0,5	0,975100
6,475333	0,5	0,974850
6,483667	0,5	0,974950
6,492000	0,5	0,976450
6,500333	0,5	0,978800
6,508667	0,5	0,980600
6,517000	0,5	0,975250
6,525333	0,5	0,981450
6,533667	0,5	0,978550
6,542000	0,5	0,984350
6,550333	0,5	0,979700
6,558667	0,5	0,992350
6,567000	0,5	0,997300
6,575333	0,5	0,998300
6,583667	0,5	0,998550
6,592000	0,5	1,011200
6,600333	0,5	1,028300
6,608667	0,5	1,038200
6,617000	0,5	1,040000
6,625333	0,5	1,043850
6,633667	0,5	1,044900
6,642000	0,5	1,045850
6,650333	0,5	1,044550
6,658667	0,5	1,046150
6,667000	0,5	1,044050
6,675333	0,5	1,046200
6,683667	0,5	1,052400
6,692000	0,5	1,055500
6,700333	0,5	1,061400
6,708667	0,5	1,087600
6,717000	0,5	1,099900
6,725333	0,5	1,113300
6,733667	0,5	1,136750
6,742000	0,5	1,155350
6,750333	0,5	1,185950
6,758667	0,5	1,190700
6,767000	0,5	1,189400
6,775333	0,5	1,178200
6,783667	0,5	1,167750
6,792000	0,5	1,154500
6,800333	0,5	1,148800
6,808667	0,5	1,142550
6,817000	0,5	1,138450
6,825333	0,5	1,138000
6,833667	0,5	1,141200
6,842000	0,5	1,147700
6,850333	0,5	1,147300
6,858667	0,5	1,168700
6,867000	0,5	1,160050
6,875333	0,5	1,159350
6,883667	0,5	1,155700
6,892000	0,5	1,155150
6,900333	0,5	1,152900
6,908667	0,5	1,133300
6,917000	0,5	1,110200
6,925333	0,5	1,095200
6,933667	0,5	1,077000
6,942000	0,5	1,062150
6,950333	0,5	1,048100
6,958667	0,5	1,036350
6,967000	0,5	1,025850
6,975333	0,5	1,022500
6,983667	0,5	1,025150
6,992000	0,5	1,019900
7,000333	0,5	1,015750
7,008667	0,5	1,023450
7,017000	0,5	1,007500
7,025333	0,5	0,999500
7,033667	0,5	0,993900
7,042000	0,5	0,994000
7,050333	0,5	1,000850
7,058667	0,5	0,987500
7,067000	0,5	0,978350
7,075333	0,5	0,977550
7,083667	0,5	0,976050
7,092000	0,5	0,968250
7,100333	0,5	0,966400
7,108667	0,5	0,962350
7,117000	0,5	0,956100
7,125333	0,5	0,957850
7,133667	0,5	0,956100
7,142000	0,5	0,944850
7,150333	0,5	0,948050
7,158667	0,5	0,958700
7,167000	0,5	0,962700
7,175333	0,5	0,980500
7,183667	0,5	1,001700
7,192000	0,5	1,023900
7,200333	0,5	1,034300
7,208667	0,5	1,026200
7,217000	0,5	1,008350
7,225333	0,5	0,984700
7,233667	0,5	0,957300
7,242000	0,5	0,935300
7,250333	0,5	0,912550
7,258667	0,5	0,900500
7,267000	0,5	0,890650
7,275333	0,5	0,886900
7,283667	0,5	0,886550
7,292000	0,5	0,888900
7,300333	0,5	0,898650
7,308667	0,5	0,901300
7,317000	0,5	0,896900
7,325333	0,5	0,895600
7,333667	0,5	0,892450
7,342000	0,5	0,895600
7,350333	0,5	0,891450
7,358667	0,5	0,883500
7,367000	0,5	0,873400
7,375333	0,5	0,864750
7,383667	0,5	0,858300
7,392000	0,5	0,856550
7,400333	0,5	0,850300
7,408667	0,5	0,842250
7,417000	0,5	0,836750
7,425333	0,5	0,826150
7,433667	0,5	0,823300
7,442000	0,5	0,818750
7,450333	0,5	0,829950
7,458667	0,5	0,832650
7,467000	0,5	0,858300
7,475333	0,5	0,913350
7,483667	0,5	1,025200
7,492000	0,5	1,184550
7,500333	0,5	1,371550
7,508667	0,5	1,549600
7,517000	0,5	1,681300
7,525333	0,5	1,725050
7,533667	0,5	1,671450
7,542000	0,5	1,542600
7,550333	0,5	1,377750
7,558667	0,5	1,210150
7,567000	0,5	1,070050
7,575333	0,5	0,967800
7,583667	0,5	0,892750
7,592000	0,5	0,852050
7,600333	0,5	0,823150
7,608667	0,5	0,798550
7,617000	0,5	0,785450
7,625333	0,5	0,782650
7,633667	0,5	0,796250
7,642000	0,5	0,818350
7,650333	0,5	0,832550
7,658667	0,5	0,842800
7,667000	0,5	0,842000
7,675333	0,5	0,829100
7,683667	0,5	0,815450
7,692000	0,5	0,803450
7,700333	0,5	0,799000
7,708667	0,5	0,795700
7,717000	0,5	0,796200
7,725333	0,5	0,793700
7,733667	0,5	0,788900
7,742000	0,5	0,793650
7,750333	0,5	0,796900
7,758667	0,5	0,811100
7,767000	0,5	0,838250
7,775333	0,5	0,871850
7,783667	0,5	0,914750
7,792000	0,5	0,932950
7,800333	0,5	0,926000
7,808667	0,5	0,895700
7,817000	0,5	0,853550
7,825333	0,5	0,809400
7,833667	0,5	0,775950
7,842000	0,5	0,755850
7,850333	0,5	0,757000
7,858667	0,5	0,789550
7,867000	0,5	0,855550
7,875333	0,5	0,977400
7,883667	0,5	1,148400
7,892000	0,5	1,374850
7,900333	0,5	1,610100
7,908667	0,5	1,845500
7,917000	0,5	2,083300
7,925333	0,5	2,338850
7,933667	0,5	2,669350
7,942000	0,5	3,144200
7,950333	0,5	3,951400
7,958667	0,5	5,418750
7,967000	0,5	8,023750
7,975333	0,5	12,228000
7,983667	0,5	17,988200
7,992000	0,5	24,346400
8,000333	0,5	29,490500
8,008667	0,5	31,670400
8,017000	0,5	30,169100
8,025333	0,5	25,678750
8,033667	0,5	19,792350
8,042000	0,5	14,109400
8,050333	0,5	9,552300
8,058667	0,5	6,366550
8,067000	0,5	4,334850
8,075333	0,5	3,120850
8,083667	0,5	2,423200
8,092000	0,5	2,021350
8,100333	0,5	1,790150
8,108667	0,5	1,638950
8,117000	0,5	1,514000
8,125333	0,5	1,393000
8,133667	0,5	1,275700
8,142000	0,5	1,159200
8,150333	0,5	1,071800
8,158667	0,5	1,009650
8,167000	0,5	0,968400
8,175333	0,5	0,937350
8,183667	0,5	0,917650
8,192000	0,5	0,907600
8,200333	0,5	0,905600
8,208667	0,5	0,913550
8,217000	0,5	0,912400
8,225333	0,5	0,898500
8,233667	0,5	0,876750
8,242000	0,5	0,844750
8,250333	0,5	0,821500
8,258667	0,5	0,808650
8,267000	0,5	0,794650
8,275333	0,5	0,780100
8,283667	0,5	0,756850
8,292000	0,5	0,725950
8,300333	0,5	0,698400
8,308667	0,5	0,677950
8,317000	0,5	0,658150
8,325333	0,5	0,647950
8,333667	0,5	0,640600
8,342000	0,5	0,636500
8,350333	0,5	0,618850
8,358667	0,5	0,608150
8,367000	0,5	0,597900
8,375333	0,5	0,592500
8,383667	0,5	0,587900
8,392000	0,5	0,588050
8,400333	0,5	0,588900
8,408667	0,5	0,594800
8,417000	0,5	0,599400
8,425333	0,5	0,602050
8,433667	0,5	0,605250
8,442000	0,5	0,607800
8,450333	0,5	0,618150
8,458667	0,5	0,633850
8,467000	0,5	0,646800
8,475333	0,5	0,653650
8,483667	0,5	0,654850
8,492000	0,5	0,648300
8,500333	0,5	0,645800
8,508667	0,5	0,661250
8,517000	0,5	0,688400
8,525333	0,5	0,727550
8,533667	0,5	0,756150
8,542000	0,5	0,765700
8,550333	0,5	0,753900
8,558667	0,5	0,717250
8,567000	0,5	0,667750
8,575333	0,5	0,620500
8,583667	0,5	0,586200
8,592000	0,5	0,562150
8,600333	0,5	0,559550
8,608667	0,5	0,579300
8,617000	0,5	0,613050
8,625333	0,5	0,659900
8,633667	0,5	0,712950
8,642000	0,5	0,761150
8,650333	0,5	0,811850
8,658667	0,5	0,868950
8,667000	0,5	0,919850
8,675333	0,5	0,955600
8,683667	0,5	0,967250
8,692000	0,5	0,954400
8,700333	0,5	0,924150
8,708667	0,5	0,884100
8,717000	0,5	0,841050
8,725333	0,5	0,808500
8,733667	0,5	0,779700
8,742000	0,5	0,778650
8,750333	0,5	0,800200
8,758667	0,5	0,862350
8,767000	0,5	0,972850
8,775333	0,5	1,156600
8,783667	0,5	1,390550
8,792000	0,5	1,658800
8,800333	0,5	1,954000
8,808667	0,5	2,294600
8,817000	0,5	2,742750
8,825333	0,5	3,466550
8,833667	0,5	4,834250
8,842000	0,5	7,433000
8,850333	0,5	11,872800
8,858667	0,5	18,084750
8,867000	0,5	24,754650
8,875333	0,5	29,587150
8,883667	0,5	30,683000
8,892000	0,5	27,746600
8,900333	0,5	22,157900
8,908667	0,5	15,931650
8,917000	0,5	10,596200
8,925333	0,5	6,774100
8,933667	0,5	4,347850
8,942000	0,5	2,928300
8,950333	0,5	2,124300
8,958667	0,5	1,668450
8,967000	0,5	1,409850
8,975333	0,5	1,244650
8,983667	0,5	1,139800
8,992000	0,5	1,064400
9,000333	0,5	1,007950
9,008667	0,5	0,965850
9,017000	0,5	0,926300
9,025333	0,5	0,898150
9,033667	0,5	0,879200
9,042000	0,5	0,856350
9,050333	0,5	0,843850
9,058667	0,5	0,835750
9,067000	0,5	0,834550
9,075333	0,5	0,839300
9,083667	0,5	0,846500
9,092000	0,5	0,854800
9,100333	0,5	0,859100
9,108667	0,5	0,863300
9,117000	0,5	0,865550
9,125333	0,5	0,865050
9,133667	0,5	0,870300
9,142000	0,5	0,890750
9,150333	0,5	0,922150
9,158667	0,5	0,956500
9,167000	0,5	0,986550
9,175333	0,5	1,001700
9,183667	0,5	0,992200
9,192000	0,5	0,963950
9,200333	0,5	0,923450
9,208667	0,5	0,879400
9,217000	0,5	0,836800
9,225333	0,5	0,802250
9,233667	0,5	0,770900
9,242000	0,5	0,752150
9,250333	0,5	0,734700
9,258667	0,5	0,734600
9,267000	0,5	0,734400
9,275333	0,5	0,737050
9,283667	0,5	0,739250
9,292000	0,5	0,737100
9,300333	0,5	0,734700
9,308667	0,5	0,724850
9,317000	0,5	0,718150
9,325333	0,5	0,707850
9,333667	0,5	0,703200
9,342000	0,5	0,699950
9,350333	0,5	0,697950
9,358667	0,5	0,698300
9,367000	0,5	0,698800
9,375333	0,5	0,702800
9,383667	0,5	0,705000
9,392000	0,5	0,710000
9,400333	0,5	0,722500
9,408667	0,5	0,744100
9,417000	0,5	0,771150
9,425333	0,5	0,792600
9,433667	0,5	0,809300
9,442000	0,5	0,814200
9,450333	0,5	0,811550
9,458667	0,5	0,810050
9,467000	0,5	0,803950
9,475333	0,5	0,802500
9,483667	0,5	0,804100
9,492000	0,5	0,808200
9,500333	0,5	0,809300
9,508667	0,5	0,815950
9,517000	0,5	0,828450
9,525333	0,5	0,840350
9,533667	0,5	0,855350
9,542000	0,5	0,879100
9,550333	0,5	0,914200
9,558667	0,5	0,966750
9,567000	0,5	1,032400
9,575333	0,5	1,109150
9,583667	0,5	1,184250
9,592000	0,5	1,244150
9,600333	0,5	1,273600
9,608667	0,5	1,268350
9,617000	0,5	1,235100
9,625333	0,5	1,184400
9,633667	0,5	1,129050
9,642000	0,5	1,077600
9,650333	0,5	1,036850
9,658667	0,5	1,007850
9,667000	0,5	0,992250
9,675333	0,5	0,983350
9,683667	0,5	0,980750
9,692000	0,5	0,983200
9,700333	0,5	0,989750
9,708667	0,5	1,002950
9,717000	0,5	1,020050
9,725333	0,5	1,037500
9,733667	0,5	1,059100
9,742000	0,5	1,080300
9,750333	0,5	1,099950
9,758667	0,5	1,110500
9,767000	0,5	1,112300
9,775333	0,5	1,108450
9,783667	0,5	1,104200
9,792000	0,5	1,101450
9,800333	0,5	1,100450
9,808667	0,5	1,098450
9,817000	0,5	1,100150
9,825333	0,5	1,097550
9,833667	0,5	1,100000
9,842000	0,5	1,102400
9,850333	0,5	1,108850
9,858667	0,5	1,117250
9,867000	0,5	1,130800
9,875333	0,5	1,146950
9,883667	0,5	1,165000
9,892000	0,5	1,187550
9,900333	0,5	1,200950
9,908667	0,5	1,212300
9,917000	0,5	1,217450
9,925333	0,5	1,222250
9,933667	0,5	1,224550
9,942000	0,5	1,231850
9,950333	0,5	1,233700
9,958667	0,5	1,241100
9,967000	0,5	1,252700
9,975333	0,5	1,264100
9,983667	0,5	1,282900
9,992000	0,5	1,311500
10,000333	0,5	1,356950
10,008667	0,5	1,421100
10,017000	0,5	1,510450
10,025333	0,5	1,625550
10,033667	0,5	1,770150
10,042000	0,5	1,934250
10,050333	0,5	2,107950
10,058667	0,5	2,272000
10,067000	0,5	2,414400
10,075333	0,5	2,507800
10,083667	0,5	2,543400
10,092000	0,5	2,517300
10,100333	0,5	2,433150
10,108667	0,5	2,296050
10,117000	0,5	2,135950
10,125333	0,5	1,958750
10,133667	0,5	1,793250
10,142000	0,5	1,655750
10,150333	0,5	1,541650
10,158667	0,5	1,459450
10,167000	0,5	1,406900
10,175333	0,5	1,376450
10,183667	0,5	1,357100
10,192000	0,5	1,351500
10,200333	0,5	1,347750
10,208667	0,5	1,347200
10,217000	0,5	1,341100
10,225333	0,5	1,333150
10,233667	0,5	1,320550
10,242000	0,5	1,312300
10,250333	0,5	1,301150
10,258667	0,5	1,297300
10,267000	0,5	1,287700
10,275333	0,5	1,281900
10,283667	0,5	1,275150
10,292000	0,5	1,273000
10,300333	0,5	1,272100
10,308667	0,5	1,274850
10,317000	0,5	1,280400
10,325333	0,5	1,288450
10,333667	0,5	1,299300
10,342000	0,5	1,313050
10,350333	0,5	1,329850
10,358667	0,5	1,343500
10,367000	0,5	1,354350
10,375333	0,5	1,355650
10,383667	0,5	1,352050
10,392000	0,5	1,342800
10,400333	0,5	1,334600
10,408667	0,5	1,326400
10,417000	0,5	1,319700
10,425333	0,5	1,318400
10,433667	0,5	1,314700
10,442000	0,5	1,320200
10,450333	0,5	1,328100
10,458667	0,5	1,335300
10,467000	0,5	1,343550
10,475333	0,5	1,348950
10,483667	0,5	1,350650
10,492000	0,5	1,345550
10,500333	0,5	1,335550
10,508667	0,5	1,328200
10,517000	0,5	1,317900
10,525333	0,5	1,308700
10,533667	0,5	1,304100
10,542000	0,5	1,292150
10,550333	0,5	1,288200
10,558667	0,5	1,284350
10,567000	0,5	1,274950
10,575333	0,5	1,263950
10,583667	0,5	1,254450
10,592000	0,5	1,251350
10,600333	0,5	1,250850
10,608667	0,5	1,251300
10,617000	0,5	1,250050
10,625333	0,5	1,249400
10,633667	0,5	1,243800
10,642000	0,5	1,238300
10,650333	0,5	1,231400
10,658667	0,5	1,226850
10,667000	0,5	1,228650
10,675333	0,5	1,230450
10,683667	0,5	1,230550
10,692000	0,5	1,225200
10,700333	0,5	1,219650
10,708667	0,5	1,208450
10,717000	0,5	1,191400
10,725333	0,5	1,172900
10,733667	0,5	1,149250
10,742000	0,5	1,131250
10,750333	0,5	1,118450
10,758667	0,5	1,100750
10,767000	0,5	1,087250
10,775333	0,5	1,073950
10,783667	0,5	1,065150
10,792000	0,5	1,054450
10,800333	0,5	1,051500
10,808667	0,5	1,048550
10,817000	0,5	1,050200
10,825333	0,5	1,054050
10,833667	0,5	1,063700
10,842000	0,5	1,060850
10,850333	0,5	1,069050
10,858667	0,5	1,073000
10,867000	0,5	1,081850
10,875333	0,5	1,091600
10,883667	0,5	1,099450
10,892000	0,5	1,112500
10,900333	0,5	1,119150
10,908667	0,5	1,112550
10,917000	0,5	1,098800
10,925333	0,5	1,083750
10,933667	0,5	1,058000
10,942000	0,5	1,036150
10,950333	0,5	1,011350
10,958667	0,5	0,990500
10,967000	0,5	0,970800
10,975333	0,5	0,960150
10,983667	0,5	0,949250
10,992000	0,5	0,937250
11,000333	0,5	0,934250
11,008667	0,5	0,931550
11,017000	0,5	0,931050
11,025333	0,5	0,930100
11,033667	0,5	0,929050
11,042000	0,5	0,938050
11,050333	0,5	0,946250
11,058667	0,5	0,953500
11,067000	0,5	0,962750
11,075333	0,5	0,972000
11,083667	0,5	0,974550
11,092000	0,5	0,974250
11,100333	0,5	0,964950
11,108667	0,5	0,948300
11,117000	0,5	0,935900
11,125333	0,5	0,914450
11,133667	0,5	0,908450
11,142000	0,5	0,900450
11,150333	0,5	0,898350
11,158667	0,5	0,893250
11,167000	0,5	0,891300
11,175333	0,5	0,894050
11,183667	0,5	0,900250
11,192000	0,5	0,918050
11,200333	0,5	0,940650
11,208667	0,5	0,971750
11,217000	0,5	1,010450
11,225333	0,5	1,055600
11,233667	0,5	1,103750
11,242000	0,5	1,138550
11,250333	0,5	1,156200
11,258667	0,5	1,153500
11,267000	0,5	1,127200
11,275333	0,5	1,083200
11,283667	0,5	1,021300
11,292000	0,5	0,966050
11,300333	0,5	0,919550
11,308667	0,5	0,883450
11,317000	0,5	0,855650
11,325333	0,5	0,844600
11,333667	0,5	0,843700
11,342000	0,5	0,854350
11,350333	0,5	0,867650
11,358667	0,5	0,886100
11,367000	0,5	0,894300
11,375333	0,5	0,904500
11,383667	0,5	0,906350
11,392000	0,5	0,908300
11,400333	0,5	0,903200
11,408667	0,5	0,888950
11,417000	0,5	0,883500
11,425333	0,5	0,867100
11,433667	0,5	0,847100
11,442000	0,5	0,836250
11,450333	0,5	0,827650
11,458667	0,5	0,809950
11,467000	0,5	0,799150
11,475333	0,5	0,784750
11,483667	0,5	0,780350
11,492000	0,5	0,772050
11,500333	0,5	0,771150
11,508667	0,5	0,767550
11,517000	0,5	0,767800
11,525333	0,5	0,760500
11,533667	0,5	0,767550
11,542000	0,5	0,759700
11,550333	0,5	0,757600
11,558667	0,5	0,753350
11,567000	0,5	0,754600
11,575333	0,5	0,747350
11,583667	0,5	0,744150
11,592000	0,5	0,747200
11,600333	0,5	0,746600
11,608667	0,5	0,743500
11,617000	0,5	0,742750
11,625333	0,5	0,744800
11,633667	0,5	0,751250
11,642000	0,5	0,763250
11,650333	0,5	0,769500
11,658667	0,5	0,781200
11,667000	0,5	0,791150
11,675333	0,5	0,803800
11,683667	0,5	0,811350
11,692000	0,5	0,825500
11,700333	0,5	0,839800
11,708667	0,5	0,858750
11,717000	0,5	0,877900
11,725333	0,5	0,887400
11,733667	0,5	0,906600
11,742000	0,5	0,920100
11,750333	0,5	0,926900
11,758667	0,5	0,925900
11,767000	0,5	0,916200
11,775333	0,5	0,915600
11,783667	0,5	0,914100
11,792000	0,5	0,909400
11,800333	0,5	0,904700
11,808667	0,5	0,903700
11,817000	0,5	0,911600
11,825333	0,5	0,911900
11,833667	0,5	0,921950
11,842000	0,5	0,934150
11,850333	0,5	0,948050
11,858667	0,5	0,973450
11,867000	0,5	1,004450
11,875333	0,5	1,035550
11,883667	0,5	1,086700
11,892000	0,5	1,137600
11,900333	0,5	1,188600
11,908667	0,5	1,229800
11,917000	0,5	1,256200
11,925333	0,5	1,278850
11,933667	0,5	1,282450
11,942000	0,5	1,266500
11,950333	0,5	1,240500
11,958667	0,5	1,210900
11,967000	0,5	1,182850
11,975333	0,5	1,165350
11,983667	0,5	1,159700
11,992000	0,5	1,168850
12,000333	0,5	1,188200
12,008667	0,5	1,218850
12,017000	0,5	1,244750
12,025333	0,5	1,256700
12,033667	0,5	1,264450
12,042000	0,5	1,254050
12,050333	0,5	1,228200
12,058667	0,5	1,201250
12,067000	0,5	1,170400
12,075333	0,5	1,151550
12,083667	0,5	1,131550
12,092000	0,5	1,117250
12,100333	0,5	1,098750
12,108667	0,5	1,084700
12,117000	0,5	1,067900
12,125333	0,5	1,055750
12,133667	0,5	1,042550
12,142000	0,5	1,028250
12,150333	0,5	1,019350
12,158667	0,5	1,011400
12,167000	0,5	1,001900
12,175333	0,5	0,995100
12,183667	0,5	0,998300
12,192000	0,5	0,991400
12,200333	0,5	0,989750
12,208667	0,5	0,986450
12,217000	0,5	0,983800
12,225333	0,5	0,991650
12,233667	0,5	0,994600
12,242000	0,5	1,002750
12,250333	0,5	1,014050
12,258667	0,5	1,023350
12,267000	0,5	1,031950
12,275333	0,5	1,041250
12,283667	0,5	1,044550
12,292000	0,5	1,046000
12,300333	0,5	1,048300
12,308667	0,5	1,037650
12,317000	0,5	1,023350
12,325333	0,5	1,013100
12,333667	0,5	1,000650
12,342000	0,5	0,986850
12,350333	0,5	0,972900
12,358667	0,5	0,961950
12,367000	0,5	0,955350
12,375333	0,5	0,958050
12,383667	0,5	0,952050
12,392000	0,5	0,955900
12,400333	0,5	0,954750
12,408667	0,5	0,957450
12,417000	0,5	0,953350
12,425333	0,5	0,959050
12,433667	0,5	0,953950
12,442000	0,5	0,953950
12,450333	0,5	0,958450
12,458667	0,5	0,951800
12,467000	0,5	0,947300
12,475333	0,5	0,954650
12,483667	0,5	0,958550
12,492000	0,5	0,960900
12,500333	0,5	0,963050
12,508667	0,5	0,967250
12,517000	0,5	0,979450
12,525333	0,5	0,987250
12,533667	0,5	0,997500
12,542000	0,5	1,000350
12,550333	0,5	1,006650
12,558667	0,5	1,003500
12,567000	0,5	0,999500
12,575333	0,5	0,992600
12,583667	0,5	0,983000
12,592000	0,5	0,976850
12,600333	0,5	0,974950
12,608667	0,5	0,961300
12,617000	0,5	0,964800
12,625333	0,5	0,968150
12,633667	0,5	0,972550
12,642000	0,5	0,970750
12,650333	0,5	0,968550
12,658667	0,5	0,970200
12,667000	0,5	0,974100
12,675333	0,5	0,974950
12,683667	0,5	0,970450
12,692000	0,5	0,969850
12,700333	0,5	0,962600
12,708667	0,5	0,960650
12,717000	0,5	0,952350
12,725333	0,5	0,945600
12,733667	0,5	0,937100
12,742000	0,5	0,936400
12,750333	0,5	0,936150
12,758667	0,5	0,935350
12,767000	0,5	0,948250
12,775333	0,5	0,964150
12,783667	0,5	0,973800
12,792000	0,5	0,978100
12,800333	0,5	0,965900
12,808667	0,5	0,963050
12,817000	0,5	0,956000
12,825333	0,5	0,935900
12,833667	0,5	0,918850
12,842000	0,5	0,900150
12,850333	0,5	0,890650
12,858667	0,5	0,882550
12,867000	0,5	0,879400
12,875333	0,5	0,871100
12,883667	0,5	0,867150
12,892000	0,5	0,860000
12,900333	0,5	0,863850
12,908667	0,5	0,853150
12,917000	0,5	0,864350
12,925333	0,5	0,864550
12,933667	0,5	0,868150
12,942000	0,5	0,862450
12,950333	0,5	0,860100
12,958667	0,5	0,863700
12,967000	0,5	0,864150
12,975333	0,5	0,859700
12,983667	0,5	0,862300
12,992000	0,5	0,862750
13,000333	0,5	0,860650
13,008667	0,5	0,863100
13,017000	0,5	0,861300
13,025333	0,5	0,861200
13,033667	0,5	0,856400
13,042000	0,5	0,857350
13,050333	0,5	0,850550
13,058667	0,5	0,851050
13,067000	0,5	0,856100
13,075333	0,5	0,860100
13,083667	0,5	0,856400
13,092000	0,5	0,855050
13,100333	0,5	0,845400
13,108667	0,5	0,844900
13,117000	0,5	0,838800
13,125333	0,5	0,834700
13,133667	0,5	0,833750
13,142000	0,5	0,836300
13,150333	0,5	0,835750
13,158667	0,5	0,832800
13,167000	0,5	0,828250
13,175333	0,5	0,819500
13,183667	0,5	0,815800
13,192000	0,5	0,814250
13,200333	0,5	0,805050
13,208667	0,5	0,808150
13,217000	0,5	0,812250
13,225333	0,5	0,804400
13,233667	0,5	0,794200
13,242000	0,5	0,778600
13,250333	0,5	0,770850
13,258667	0,5	0,769050
13,267000	0,5	0,771150
13,275333	0,5	0,768350
13,283667	0,5	0,769950
13,292000	0,5	0,767000
13,300333	0,5	0,766950
13,308667	0,5	0,764150
13,317000	0,5	0,768100
13,325333	0,5	0,771050
13,333667	0,5	0,778500
13,342000	0,5	0,776750
13,350333	0,5	0,773400
13,358667	0,5	0,778150
13,367000	0,5	0,775900
13,375333	0,5	0,773750
13,383667	0,5	0,763150
13,392000	0,5	0,753050
13,400333	0,5	0,747200
13,408667	0,5	0,749150
13,417000	0,5	0,745900
13,425333	0,5	0,743550
13,433667	0,5	0,740150
13,442000	0,5	0,739200
13,450333	0,5	0,735100
13,458667	0,5	0,734250
13,467000	0,5	0,730550
13,475333	0,5	0,726900
13,483667	0,5	0,728800
13,492000	0,5	0,725400
13,500333	0,5	0,719250
13,508667	0,5	0,727900
13,517000	0,5	0,724350
13,525333	0,5	0,722100
13,533667	0,5	0,716150
13,542000	0,5	0,710550
13,550333	0,5	0,715800
13,558667	0,5	0,715300
13,567000	0,5	0,714650
13,575333	0,5	0,711250
13,583667	0,5	0,712650
13,592000	0,5	0,712200
13,600333	0,5	0,717750
13,608667	0,5	0,713100
13,617000	0,5	0,713900
13,625333	0,5	0,715200
13,633667	0,5	0,718350
13,642000	0,5	0,702300
13,650333	0,5	0,707700
13,658667	0,5	0,707100
13,667000	0,5	0,706050
13,675333	0,5	0,698650
13,683667	0,5	0,683350
13,692000	0,5	0,683700
13,700333	0,5	0,685950
13,708667	0,5	0,683350
13,717000	0,5	0,681350
13,725333	0,5	0,682800
13,733667	0,5	0,680150
13,742000	0,5	0,684600
13,750333	0,5	0,684100
13,758667	0,5	0,687800
13,767000	0,5	0,686750
13,775333	0,5	0,695850
13,783667	0,5	0,703250
13,792000	0,5	0,694450
13,800333	0,5	0,709200
13,808667	0,5	0,713350
13,817000	0,5	0,704200
13,825333	0,5	0,687950
13,833667	0,5	0,654750
13,842000	0,5	0,639900
13,850333	0,5	0,621600
13,858667	0,5	0,601050
13,867000	0,5	0,577300
13,875333	0,5	0,555150
13,883667	0,5	0,529950
13,892000	0,5	0,507900
13,900333	0,5	0,472250
13,908667	0,5	0,347700
13,917000	0,5	0,108550
13,925333	0,5	-0,165800
13,933667	0,5	-0,380850
13,942000	0,5	-0,538300
13,950333	0,5	-0,609750
13,958667	0,5	-0,657150
13,967000	0,5	-0,690450
13,975333	0,5	-0,713650
13,983667	0,5	-0,741100
13,992000	0,5	-0,750900
14,000333	0,5	-0,760300
14,008667	0,5	-0,777200
14,017000	0,5	-0,786000
14,025333	0,5	-0,793850
14,033667	0,5	-0,801850
14,042000	0,5	-0,800700
14,050333	0,5	-0,805650
14,058667	0,5	-0,802100
14,067000	0,5	-0,801950
14,075333	0,5	-0,794450
14,083667	0,5	-0,792600
14,092000	0,5	-0,788800
14,100333	0,5	-0,773950
14,108667	0,5	-0,770400
14,117000	0,5	-0,768200
14,125333	0,5	-0,769100
14,133667	0,5	-0,765950
14,142000	0,5	-0,748450
14,150333	0,5	-0,742600
14,158667	0,5	-0,722850
14,167000	0,5	-0,716650
14,175333	0,5	-0,698250
14,183667	0,5	-0,688550
14,192000	0,5	-0,676250
14,200333	0,5	-0,666950
14,208667	0,5	-0,661050
14,217000	0,5	-0,650150
14,225333	0,5	-0,647350
14,233667	0,5	-0,649350
14,242000	0,5	-0,640050
14,250333	0,5	-0,628350
14,258667	0,5	-0,626900
14,267000	0,5	-0,620700
14,275333	0,5	-0,623450
14,283667	0,5	-0,616400
14,292000	0,5	-0,610850
14,300333	0,5	-0,599150
14,308667	0,5	-0,598800
14,317000	0,5	-0,586000
14,325333	0,5	-0,579400
14,333667	0,5	-0,571450
14,342000	0,5	-0,563700
14,350333	0,5	-0,551600
14,358667	0,5	-0,541800
14,367000	0,5	-0,526700
14,375333	0,5	-0,519250
14,383667	0,5	-0,507500
14,392000	0,5	-0,484400
14,400333	0,5	-0,471600
14,408667	0,5	-0,462100
14,417000	0,5	-0,453800
14,425333	0,5	-0,441550
14,433667	0,5	-0,428350
14,442000	0,5	-0,404450
14,450333	0,5	-0,389600
14,458667	0,5	-0,368050
14,467000	0,5	-0,354500
14,475333	0,5	-0,328100
14,483667	0,5	-0,306500
14,492000	0,5	-0,283900
14,500333	0,5	-0,262400
14,508667	0,5	-0,238500
14,517000	0,5	-0,210050
14,525333	0,5	-0,194100
14,533667	0,5	-0,170200
14,542000	0,5	-0,142500
14,550333	0,5	-0,122400
14,558667	0,5	-0,105750
14,567000	0,5	-0,093900
14,575333	0,5	-0,081950
14,583667	0,5	-0,054200
14,592000	0,5	-0,032700
14,600333	0,5	-0,010100
14,608667	0,5	0,014700
14,617000	0,5	0,042650
14,625333	0,5	0,064550
14,633667	0,5	0,094550
14,642000	0,5	0,118000
14,650333	0,5	0,143050
14,658667	0,5	0,165850
14,667000	0,5	0,191650
14,675333	0,5	0,193450
14,683667	0,5	0,225300
14,692000	0,5	0,239350
14,700333	0,5	0,254150
14,708667	0,5	0,258150
14,717000	0,5	0,250750
14,725333	0,5	0,264300
14,733667	0,5	0,271450
14,742000	0,5	0,278000
14,750333	0,5	0,282500
14,758667	0,5	0,287850
14,767000	0,5	0,289600
14,775333	0,5	0,289950
14,783667	0,5	0,280000
14,792000	0,5	0,275250
14,800333	0,5	0,266600
14,808667	0,5	0,261500
14,817000	0,5	0,255900
14,825333	0,5	0,241400
14,833667	0,5	0,249750
14,842000	0,5	0,249250
14,850333	0,5	0,239050
14,858667	0,5	0,232900
14,867000	0,5	0,221700
14,875333	0,5	0,225750
14,883667	0,5	0,223400
14,892000	0,5	0,214400
14,900333	0,5	0,204200
14,908667	0,5	0,198100
14,917000	0,5	0,190850
14,925333	0,5	0,187000
14,933667	0,5	0,183450
14,942000	0,5	0,177450
14,950333	0,5	0,171600
14,958667	0,5	0,167150
14,967000	0,5	0,169300
14,975333	0,5	0,160000
14,983667	0,5	0,169400
14,992000	0,5	0,164450
15,000333	0,5	0,158000
15,008667	0,5	0,141200
15,017000	0,5	0,133950
15,025333	0,5	0,136300
15,033667	0,5	0,137150
15,042000	0,5	0,129600
15,050333	0,5	0,131450
15,058667	0,5	0,127500
15,067000	0,5	0,128200
15,075333	0,5	0,127000
15,083667	0,5	0,121350
15,092000	0,5	0,114600
15,100333	0,5	0,109200
15,108667	0,5	0,109050
15,117000	0,5	0,094950
15,125333	0,5	0,097500
15,133667	0,5	0,093100
15,142000	0,5	0,087700
15,150333	0,5	0,074600
15,158667	0,5	0,061250
15,167000	0,5	0,052000
15,175333	0,5	0,058050
15,183667	0,5	0,051650
15,192000	0,5	0,054350
15,200333	0,5	0,048000
15,208667	0,5	0,051150
15,217000	0,5	0,045200
15,225333	0,5	0,044650
15,233667	0,5	0,040900
15,242000	0,5	0,033600
15,250333	0,5	0,039700
15,258667	0,5	0,027250
15,267000	0,5	0,013500
15,275333	0,5	0,018500
15,283667	0,5	0,015800
15,292000	0,5	0,010650
15,300333	0,5	-0,002250
15,308667	0,5	-0,016350
15,317000	0,5	-0,016950
15,325333	0,5	-0,019950
15,333667	0,5	-0,015750
15,342000	0,5	-0,025750
15,350333	0,5	-0,017350
15,358667	0,5	-0,024250
15,367000	0,5	-0,020850
15,375333	0,5	-0,027300
15,383667	0,5	-0,031700
15,392000	0,5	-0,034100
15,400333	0,5	-0,032500
15,408667	0,5	-0,045850
15,417000	0,5	-0,045250
15,425333	0,5	-0,043250
15,433667	0,5	-0,045550
15,442000	0,5	-0,057300
15,450333	0,5	-0,075400
15,458667	0,5	-0,085700
15,467000	0,5	-0,088850
15,475333	0,5	-0,086350
15,483667	0,5	-0,094450
15,492000	0,5	-0,093200
15,500333	0,5	-0,102500
15,508667	0,5	-0,102800
15,517000	0,5	-0,107050
15,525333	0,5	-0,109250
15,533667	0,5	-0,112600
15,542000	0,5	-0,113000
15,550333	0,5	-0,112200
15,558667	0,5	-0,125900
15,567000	0,5	-0,123300
15,575333	0,5	-0,123150
15,583667	0,5	-0,132350
15,592000	0,5	-0,137900
15,600333	0,5	-0,160250
15,608667	0,5	-0,161350
15,617000	0,5	-0,160700
15,625333	0,5	-0,165700
15,633667	0,5	-0,171950
15,642000	0,5	-0,171400
15,650333	0,5	-0,172000
15,658667	0,5	-0,179500
15,667000	0,5	-0,174000
15,675333	0,5	-0,181750
15,683667	0,5	-0,182850
15,692000	0,5	-0,184650
15,700333	0,5	-0,183950
15,708667	0,5	-0,205450
15,717000	0,5	-0,191050
15,725333	0,5	-0,193950
15,733667	0,5	-0,197000
15,742000	0,5	-0,209500
15,750333	0,5	-0,225800
15,758667	0,5	-0,218300
15,767000	0,5	-0,223800
15,775333	0,5	-0,224000
15,783667	0,5	-0,229200
15,792000	0,5	-0,226300
15,800333	0,5	-0,231800
15,808667	0,5	-0,227350
15,817000	0,5	-0,238750
15,825333	0,5	-0,240800
15,833667	0,5	-0,245250
15,842000	0,5	-0,233600
15,850333	0,5	-0,244500
15,858667	0,5	-0,253900
15,867000	0,5	-0,247250
15,875333	0,5	-0,249500
15,883667	0,5	-0,264750
15,892000	0,5	-0,278600
15,900333	0,5	-0,285600
15,908667	0,5	-0,276950
15,917000	0,5	-0,283050
15,925333	0,5	-0,285400
15,933667	0,5	-0,291000
15,942000	0,5	-0,289000
15,950333	0,5	-0,294700
15,958667	0,5	-0,299200
15,967000	0,5	-0,301650
15,975333	0,5	-0,309200
15,983667	0,5	-0,312000
15,992000	0,5	-0,314450
16,000333	0,5	-0,329200
16,008667	0,5	-0,331900
16,017000	0,5	-0,330700
16,025333	0,5	-0,337900
16,033667	0,5	-0,349000
16,042000	0,5	-0,370700
16,050333	0,5	-0,376250
16,058667	0,5	-0,376950
16,067000	0,5	-0,377850
16,075333	0,5	-0,385200
16,083667	0,5	-0,386150
16,092000	0,5	-0,386200
16,100333	0,5	-0,391000
16,108667	0,5	-0,391000
16,117000	0,5	-0,395700
16,125333	0,5	-0,395400
16,133667	0,5	-0,398400
16,142000	0,5	-0,397650
16,150333	0,5	-0,412250
16,158667	0,5	-0,402600
16,167000	0,5	-0,404950
16,175333	0,5	-0,408800
16,183667	0,5	-0,425150
16,192000	0,5	-0,440200
16,200333	0,5	-0,443400
16,208667	0,5	-0,442050
16,217000	0,5	-0,445100
16,225333	0,5	-0,444800
16,233667	0,5	-0,451550
16,242000	0,5	-0,452050
16,250333	0,5	-0,453350
16,258667	0,5	-0,456900
16,267000	0,5	-0,460100
16,275333	0,5	-0,462350
16,283667	0,5	-0,455700
16,292000	0,5	-0,465300
16,300333	0,5	-0,469600
16,308667	0,5	-0,468050
16,317000	0,5	-0,473700
16,325333	0,5	-0,486250
16,333667	0,5	-0,494650
16,342000	0,5	-0,507800
16,350333	0,5	-0,505100
16,358667	0,5	-0,511250
16,367000	0,5	-0,509500
16,375333	0,5	-0,515200
16,383667	0,5	-0,513500
16,392000	0,5	-0,518850
16,400333	0,5	-0,515200
16,408667	0,5	-0,519750
16,417000	0,5	-0,524500
16,425333	0,5	-0,519500
16,433667	0,5	-0,523600
16,442000	0,5	-0,538850
16,450333	0,5	-0,532150
16,458667	0,5	-0,526550
16,467000	0,5	-0,531700
16,475333	0,5	-0,537500
16,483667	0,5	-0,560800
16,492000	0,5	-0,558350
16,500333	0,5	-0,565300
16,508667	0,5	-0,561300
16,517000	0,5	-0,567200
16,525333	0,5	-0,567900
16,533667	0,5	-0,570300
16,542000	0,5	-0,570400
16,550333	0,5	-0,575950
16,558667	0,5	-0,578150
16,567000	0,5	-0,583600
16,575333	0,5	-0,575950
16,583667	0,5	-0,585200
16,592000	0,5	-0,600750
16,600333	0,5	-0,592450
16,608667	0,5	-0,592850
16,617000	0,5	-0,600800
16,625333	0,5	-0,611150
16,633667	0,5	-0,626300
16,642000	0,5	-0,624800
16,650333	0,5	-0,622800
16,658667	0,5	-0,630350
16,667000	0,5	-0,632900
16,675333	0,5	-0,643750
16,683667	0,5	-0,639000
16,692000	0,5	-0,646550
16,700333	0,5	-0,646100
16,708667	0,5	-0,653050
16,717000	0,5	-0,658600
16,725333	0,5	-0,659400
16,733667	0,5	-0,667950
16,742000	0,5	-0,672700
16,750333	0,5	-0,663950
16,758667	0,5	-0,664650
16,767000	0,5	-0,674500
16,775333	0,5	-0,688350
16,783667	0,5	-0,702950
16,792000	0,5	-0,690000
16,800333	0,5	-0,698200
16,808667	0,5	-0,700100
16,817000	0,5	-0,706200
16,825333	0,5	-0,701500
16,833667	0,5	-0,709650
16,842000	0,5	-0,710100
16,850333	0,5	-0,717100
16,858667	0,5	-0,718750
16,867000	0,5	-0,726700
16,875333	0,5	-0,715800
16,883667	0,5	-0,734800
16,892000	0,5	-0,726650
16,900333	0,5	-0,725350
16,908667	0,5	-0,729000
16,917000	0,5	-0,740850
16,925333	0,5	-0,756100
16,933667	0,5	-0,756600
16,942000	0,5	-0,752150
16,950333	0,5	-0,759500
16,958667	0,5	-0,764200
16,967000	0,5	-0,765200
16,975333	0,5	-0,765950
16,983667	0,5	-0,768100
16,992000	0,5	-0,770650
17,000333	0,5	-0,769200
17,008667	0,5	-0,775350
17,017000	0,5	-0,771600
17,025333	0,5	-0,774800
17,033667	0,5	-0,789300
17,042000	0,5	-0,785550
17,050333	0,5	-0,787550
17,058667	0,5	-0,795950
17,067000	0,5	-0,803500
17,075333	0,5	-0,823950
17,083667	0,5	-0,817650
17,092000	0,5	-0,818650
17,100333	0,5	-0,818100
17,108667	0,5	-0,820050
17,117000	0,5	-0,819850
17,125333	0,5	-0,821900
17,133667	0,5	-0,826300
17,142000	0,5	-0,826950
17,150333	0,5	-0,833700
17,158667	0,5	-0,835050
17,167000	0,5	-0,839800
17,175333	0,5	-0,841400
17,183667	0,5	-0,846250
17,192000	0,5	-0,834150
17,200333	0,5	-0,836000
17,208667	0,5	-0,835200
17,217000	0,5	-0,842400
17,225333	0,5	-0,850300
17,233667	0,5	-0,840800
17,242000	0,5	-0,830950
17,250333	0,5	-0,834000
17,258667	0,5	-0,832250
17,267000	0,5	-0,838600
17,275333	0,5	-0,843800
17,283667	0,5	-0,856750
17,292000	0,5	-0,862300
17,300333	0,5	-0,867200
17,308667	0,5	-0,869050
17,317000	0,5	-0,867600
17,325333	0,5	-0,884750
17,333667	0,5	-0,887600
17,342000	0,5	-0,885950
17,350333	0,5	-0,894350
17,358667	0,5	-0,903300
17,367000	0,5	-0,917600
17,375333	0,5	-0,926450
17,383667	0,5	-0,924100
17,392000	0,5	-0,930500
17,400333	0,5	-0,925600
17,408667	0,5	-0,929100
17,417000	0,5	-0,931700
17,425333	0,5	-0,934100
17,433667	0,5	-0,932200
17,442000	0,5	-0,932050
17,450333	0,5	-0,938800
17,458667	0,5	-0,925800
17,467000	0,5	-0,930500
17,475333	0,5	-0,940450
17,483667	0,5	-0,935300
17,492000	0,5	-0,928750
17,500333	0,5	-0,938750
17,508667	0,5	-0,946250
17,517000	0,5	-0,962400
17,525333	0,5	-0,954350
17,533667	0,5	-0,960150
17,542000	0,5	-0,954300
17,550333	0,5	-0,959300
17,558667	0,5	-0,951050
17,567000	0,5	-0,954600
17,575333	0,5	-0,953100
17,583667	0,5	-0,952500
17,592000	0,5	-0,957300
17,600333	0,5	-0,958350
17,608667	0,5	-0,951350
17,617000	0,5	-0,960200
17,625333	0,5	-0,961950
17,633667	0,5	-0,955200
17,642000	0,5	-0,952650
17,650333	0,5	-0,956800
17,658667	0,5	-0,969900
17,667000	0,5	-0,972650
17,675333	0,5	-0,966750
17,683667	0,5	-0,960400
17,692000	0,5	-0,963500
17,700333	0,5	-0,957850
17,708667	0,5	-0,964350
17,717000	0,5	-0,961300
17,725333	0,5	-0,959100
17,733667	0,5	-0,955350
17,742000	0,5	-0,954000
17,750333	0,5	-0,954900
17,758667	0,5	-0,946100
17,767000	0,5	-0,958650
17,775333	0,5	-0,946850
17,783667	0,5	-0,938650
17,792000	0,5	-0,938950
17,800333	0,5	-0,942800
17,808667	0,5	-0,956900
17,817000	0,5	-0,951650
17,825333	0,5	-0,937700
17,833667	0,5	-0,943150
17,842000	0,5	-0,934350
17,850333	0,5	-0,935200
17,858667	0,5	-0,923450
17,867000	0,5	-0,921450
17,875333	0,5	-0,915500
17,883667	0,5	-0,919350
17,892000	0,5	-0,914050
17,900333	0,5	-0,910950
17,908667	0,5	-0,904750
17,917000	0,5	-0,929250
17,925333	0,5	-0,905850
17,933667	0,5	-0,911900
17,942000	0,5	-0,912000
17,950333	0,5	-0,924200
17,958667	0,5	-0,940950
17,967000	0,5	-0,930350
17,975333	0,5	-0,931050
17,983667	0,5	-0,927600
17,992000	0,5	-0,938150
18,000333	0,5	-0,936050
18,008667	0,5	-0,940350
18,017000	0,5	-0,936800
18,025333	0,5	-0,940500
18,033667	0,5	-0,936550
18,042000	0,5	-0,940850
18,050333	0,5	-0,933350
18,058667	0,5	-0,941100
18,067000	0,5	-0,944150
18,075333	0,5	-0,939050
18,083667	0,5	-0,943650
18,092000	0,5	-0,948750
18,100333	0,5	-0,957650
18,108667	0,5	-0,975550
18,117000	0,5	-0,976300
18,125333	0,5	-0,973300
18,133667	0,5	-0,968900
18,142000	0,5	-0,970800
18,150333	0,5	-0,973000
18,158667	0,5	-0,968100
18,167000	0,5	-0,975750
18,175333	0,5	-0,973300
18,183667	0,5	-0,982250
18,192000	0,5	-0,975500
18,200333	0,5	-0,980350
18,208667	0,5	-0,987600
18,217000	0,5	-0,989600
18,225333	0,5	-0,981750
18,233667	0,5	-0,989250
18,242000	0,5	-0,995050
18,250333	0,5	-1,014350
18,258667	0,5	-1,022200
18,267000	0,5	-1,019600
18,275333	0,5	-1,020900
18,283667	0,5	-1,024300
18,292000	0,5	-1,025300
18,300333	0,5	-1,028150
18,308667	0,5	-1,029600
18,317000	0,5	-1,034450
18,325333	0,5	-1,041800
18,333667	0,5	-1,035500
18,342000	0,5	-1,038800
18,350333	0,5	-1,040450
18,358667	0,5	-1,052750
18,367000	0,5	-1,042500
18,375333	0,5	-1,050600
18,383667	0,5	-1,050500
18,392000	0,5	-1,069650
18,400333	0,5	-1,081400
18,408667	0,5	-1,083500
18,417000	0,5	-1,086700
18,425333	0,5	-1,091250
18,433667	0,5	-1,093800
18,442000	0,5	-1,097350
18,450333	0,5	-1,101600
18,458667	0,5	-1,098700
18,467000	0,5	-1,103350
18,475333	0,5	-1,105950
18,483667	0,5	-1,112200
18,492000	0,5	-1,107050
18,500333	0,5	-1,124500
18,508667	0,5	-1,123550
18,517000	0,5	-1,123150
18,525333	0,5	-1,131800
18,533667	0,5	-1,139950
18,542000	0,5	-1,160450
18,550333	0,5	-1,169050
18,558667	0,5	-1,166250
18,567000	0,5	-1,177150
18,575333	0,5	-1,174700
18,583667	0,5	-1,178800
18,592000	0,5	-1,181450
18,600333	0,5	-1,185950
18,608667	0,5	-1,192350
18,617000	0,5	-1,194650
18,625333	0,5	-1,200250
18,633667	0,5	-1,194700
18,642000	0,5	-1,194750
18,650333	0,5	-1,216500
18,658667	0,5	-1,209100
18,667000	0,5	-1,209400
18,675333	0,5	-1,216250
18,683667	0,5	-1,224600
18,692000	0,5	-1,254800
18,700333	0,5	-1,251350
18,708667	0,5	-1,258650
18,717000	0,5	-1,261600
18,725333	0,5	-1,272400
18,733667	0,5	-1,273800
18,742000	0,5	-1,283900
18,750333	0,5	-1,286450
18,758667	0,5	-1,292000
18,767000	0,5	-1,295300
18,775333	0,5	-1,301400
18,783667	0,5	-1,301200
18,792000	0,5	-1,301300
18,800333	0,5	-1,321750
18,808667	0,5	-1,312550
18,817000	0,5	-1,312000
18,825333	0,5	-1,317300
18,833667	0,5	-1,334600
18,842000	0,5	-1,353250
18,850333	0,5	-1,352250
18,858667	0,5	-1,347600
18,867000	0,5	-1,358350
18,875333	0,5	-1,356050
18,883667	0,5	-1,361250
18,892000	0,5	-1,357000
18,900333	0,5	-1,358650
18,908667	0,5	-1,362000
18,917000	0,5	-1,364450
18,925333	0,5	-1,366850
18,933667	0,5	-1,360400
18,942000	0,5	-1,367800
18,950333	0,5	-1,372650
18,958667	0,5	-1,370350
18,967000	0,5	-1,375000
18,975333	0,5	-1,387750
18,983667	0,5	-1,405050
18,992000	0,5	-1,419400
19,000333	0,5	-1,413600
19,008667	0,5	-1,424900
19,017000	0,5	-1,428750
19,025333	0,5	-1,435400
19,033667	0,5	-1,438550
19,042000	0,5	-1,449300
19,050333	0,5	-1,450000
19,058667	0,5	-1,457000
19,067000	0,5	-1,465300
19,075333	0,5	-1,461550
19,083667	0,5	-1,457400
19,092000	0,5	-1,479300
19,100333	0,5	-1,483100
19,108667	0,5	-1,489200
19,117000	0,5	-1,500950
19,125333	0,5	-1,518050
19,133667	0,5	-1,541400
19,142000	0,5	-1,548250
19,150333	0,5	-1,557450
19,158667	0,5	-1,560950
19,167000	0,5	-1,572900
19,175333	0,5	-1,578850
19,183667	0,5	-1,588400
19,192000	0,5	-1,592350
19,200333	0,5	-1,601700
19,208667	0,5	-1,608450
19,217000	0,5	-1,608650
19,225333	0,5	-1,601250
19,233667	0,5	-1,615050
19,242000	0,5	-1,625200
19,250333	0,5	-1,625350
19,258667	0,5	-1,631550
19,267000	0,5	-1,635000
19,275333	0,5	-1,657200
19,283667	0,5	-1,678100
19,292000	0,5	-1,680650
19,300333	0,5	-1,677150
19,308667	0,5	-1,681600
19,317000	0,5	-1,675600
19,325333	0,5	-1,675350
19,333667	0,5	-1,668500
19,342000	0,5	-1,668250
19,350333	0,5	-1,658550
19,358667	0,5	-1,665150
19,367000	0,5	-1,663650
19,375333	0,5	-1,666700
19,383667	0,5	-1,687300
19,392000	0,5	-1,706200
19,400333	0,5	-1,709000
19,408667	0,5	-1,727050
19,417000	0,5	-1,739900
19,425333	0,5	-1,766550
19,433667	0,5	-1,772900
19,442000	0,5	-1,773550
19,450333	0,5	-1,782600
19,458667	0,5	-1,783950
19,467000	0,5	-1,793250
19,475333	0,5	-1,792250
19,483667	0,5	-1,797050
19,492000	0,5	-1,794650
19,500333	0,5	-1,799050
19,508667	0,5	-1,799150
19,517000	0,5	-1,797900
19,525333	0,5	-1,794550
19,533667	0,5	-1,818250
19,542000	0,5	-1,810650
19,550333	0,5	-1,813550
19,558667	0,5	-1,822450
19,567000	0,5	-1,835350
19,575333	0,5	-1,856900
19,583667	0,5	-1,854750
19,592000	0,5	-1,857050
19,600333	0,5	-1,860900
19,608667	0,5	-1,862850
19,617000	0,5	-1,866750
19,625333	0,5	-1,865750
19,633667	0,5	-1,870050
19,642000	0,5	-1,880950
19,650333	0,5	-1,880800
19,658667	0,5	-1,892100
19,667000	0,5	-1,882200
19,675333	0,5	-1,898650
19,683667	0,5	-1,908850
19,692000	0,5	-1,903050
19,700333	0,5	-1,903350
19,708667	0,5	-1,912150
19,717000	0,5	-1,921500
19,725333	0,5	-1,924550
19,733667	0,5	-1,915550
19,742000	0,5	-1,911750
19,750333	0,5	-1,916500
19,758667	0,5	-1,928350
19,767000	0,5	-1,943200
19,775333	0,5	-1,949650
19,783667	0,5	-1,962450
19,792000	0,5	-1,965350
19,800333	0,5	-1,977850
19,808667	0,5	-1,977100
19,817000	0,5	-1,975650
19,825333	0,5	-1,992800
19,833667	0,5	-1,993800
19,842000	0,5	-1,988150
19,850333	0,5	-1,996850
19,858667	0,5	-2,007750
19,867000	0,5	-2,031050
19,875333	0,5	-2,034500
19,883667	0,5	-2,035200
19,892000	0,5	-2,037250
19,900333	0,5	-2,046500
19,908667	0,5	-2,050250
19,917000	0,5	-2,047500
19,925333	0,5	-2,055750
19,933667	0,5	-2,055100
19,942000	0,5	-2,062550
19,950333	0,5	-2,063550
19,958667	0,5	-2,070550
19,967000	0,5	-2,060300
19,975333	0,5	-2,081100
19,983667	0,5	-2,064300
19,992000	0,5	-2,075150
20,000333	0,5	-2,077750
20,008667	0,5	-2,096900
20,017000	0,5	-2,117950
20,025333	0,5	-2,114850
20,033667	0,5	-2,114950
20,042000	0,5	-2,122100
20,050333	0,5	-2,121800
20,058667	0,5	-2,127650
20,067000	0,5	-2,132650
20,075333	0,5	-2,132150
20,083667	0,5	-2,134700
20,092000	0,5	-2,139500
20,100333	0,5	-2,144000
20,108667	0,5	-2,134600
20,117000	0,5	-2,145000
20,125333	0,5	-2,156850
20,133667	0,5	-2,156500
20,142000	0,5	-2,165700
20,150333	0,5	-2,178400
20,158667	0,5	-2,198750
20,167000	0,5	-2,213700
20,175333	0,5	-2,213150
20,183667	0,5	-2,219450
20,192000	0,5	-2,218650
20,200333	0,5	-2,223050
20,208667	0,5	-2,221350
20,217000	0,5	-2,220550
20,225333	0,5	-2,218600
20,233667	0,5	-2,215650
20,242000	0,5	-2,223700
20,250333	0,5	-2,211300
20,258667	0,5	-2,211650
20,267000	0,5	-2,221650
20,275333	0,5	-2,217500
20,283667	0,5	-2,207600
20,292000	0,5	-2,212800
20,300333	0,5	-2,221050
20,308667	0,5	-2,237850
20,317000	0,5	-2,237200
20,325333	0,5	-2,242250
20,333667	0,5	-2,233000
20,342000	0,5	-2,234900
20,350333	0,5	-2,224800
20,358667	0,5	-2,230850
20,367000	0,5	-2,228200
20,375333	0,5	-2,228700
20,383667	0,5	-2,233050
20,392000	0,5	-2,227050
20,400333	0,5	-2,214900
20,408667	0,5	-2,216950
20,417000	0,5	-2,224700
20,425333	0,5	-2,217550
20,433667	0,5	-2,219300
20,442000	0,5	-2,221500
20,450333	0,5	-2,243650
20,458667	0,5	-2,242800
20,467000	0,5	-2,241100
20,475333	0,5	-2,234800
20,483667	0,5	-2,241500
20,492000	0,5	-2,236100
20,500333	0,5	-2,238150
20,508667	0,5	-2,234900
20,517000	0,5	-2,232700
20,525333	0,5	-2,229250
20,533667	0,5	-2,226700
20,542000	0,5	-2,214050
20,550333	0,5	-2,200950
20,558667	0,5	-2,205350
20,567000	0,5	-2,200700
20,575333	0,5	-2,194750
20,583667	0,5	-2,194650
20,592000	0,5	-2,199850
20,600333	0,5	-2,214450
20,608667	0,5	-2,208200
20,617000	0,5	-2,202000
20,625333	0,5	-2,208100
20,633667	0,5	-2,205750
20,642000	0,5	-2,214900
20,650333	0,5	-2,213300
20,658667	0,5	-2,216900
20,667000	0,5	-2,217950
20,675333	0,5	-2,221550
20,683667	0,5	-2,225950
20,692000	0,5	-2,206550
20,700333	0,5	-2,203600
20,708667	0,5	-2,224900
20,717000	0,5	-2,222450
20,725333	0,5	-2,225750
20,733667	0,5	-2,240450
20,742000	0,5	-2,246950
20,750333	0,5	-2,275350
20,758667	0,5	-2,261350
20,767000	0,5	-2,269850
20,775333	0,5	-2,265050
20,783667	0,5	-2,274000
20,792000	0,5	-2,269050
20,800333	0,5	-2,279750
20,808667	0,5	-2,273450
20,817000	0,5	-2,276900
20,825333	0,5	-2,277050
20,833667	0,5	-2,267500
20,842000	0,5	-2,250750
20,850333	0,5	-2,246200
20,858667	0,5	-2,261950
20,867000	0,5	-2,258500
20,875333	0,5	-2,261300
20,883667	0,5	-2,268650
20,892000	0,5	-2,288600
20,900333	0,5	-2,293700
20,908667	0,5	-2,287100
20,917000	0,5	-2,279200
20,925333	0,5	-2,288650
20,933667	0,5	-2,277800
20,942000	0,5	-2,279950
20,950333	0,5	-2,271550
20,958667	0,5	-2,268550
20,967000	0,5	-2,266700
20,975333	0,5	-2,266000
20,983667	0,5	-2,240100
20,992000	0,5	-2,229000
21,000333	0,5	-2,228950
21,008667	0,5	-2,224850
21,017000	0,5	-2,223600
21,025333	0,5	-2,225200
21,033667	0,5	-2,240650
21,042000	0,5	-2,250850
21,050333	0,5	-2,253100
21,058667	0,5	-2,238500
21,067000	0,5	-2,245200
21,075333	0,5	-2,237900
21,083667	0,5	-2,240600
21,092000	0,5	-2,236050
21,100333	0,5	-2,235350
21,108667	0,5	-2,224750
21,117000	0,5	-2,227350
21,125333	0,5	-2,221150
21,133667	0,5	-2,193250
21,142000	0,5	-2,177950
21,150333	0,5	-2,182400
21,158667	0,5	-2,183050
21,167000	0,5	-2,189850
21,175333	0,5	-2,198300
21,183667	0,5	-2,209500
21,192000	0,5	-2,218900
21,200333	0,5	-2,206150
21,208667	0,5	-2,211750
21,217000	0,5	-2,199850
21,225333	0,5	-2,201550
21,233667	0,5	-2,188600
21,242000	0,5	-2,186650
21,250333	0,5	-2,170900
21,258667	0,5	-2,164300
21,267000	0,5	-2,156850
21,275333	0,5	-2,131750
21,283667	0,5	-2,110150
21,292000	0,5	-2,109050
21,300333	0,5	-2,108250
21,308667	0,5	-2,105950
21,317000	0,5	-2,111700
21,325333	0,5	-2,116850
21,333667	0,5	-2,132200
21,342000	0,5	-2,121050
21,350333	0,5	-2,117450
21,358667	0,5	-2,105650
21,367000	0,5	-2,103650
21,375333	0,5	-2,092200
21,383667	0,5	-2,090650
21,392000	0,5	-2,078200
21,400333	0,5	-2,076350
21,408667	0,5	-2,071100
21,417000	0,5	-2,061800
21,425333	0,5	-2,028500
21,433667	0,5	-2,015750
21,442000	0,5	-2,014350
21,450333	0,5	-2,014700
21,458667	0,5	-2,012850
21,467000	0,5	-2,016600
21,475333	0,5	-2,029100
21,483667	0,5	-2,025900
21,492000	0,5	-2,019650
21,500333	0,5	-2,009300
21,508667	0,5	-2,007000
21,517000	0,5	-1,991250
21,525333	0,5	-1,989000
21,533667	0,5	-1,973600
21,542000	0,5	-1,963300
21,550333	0,5	-1,948850
21,558667	0,5	-1,930100
21,567000	0,5	-1,905700
21,575333	0,5	-1,869000
21,583667	0,5	-1,847600
21,592000	0,5	-1,827200
21,600333	0,5	-1,801400
21,608667	0,5	-1,780250
21,617000	0,5	-1,757150
21,625333	0,5	-1,735350
21,633667	0,5	-1,705300
21,642000	0,5	-1,684250
21,650333	0,5	-1,695000
21,658667	0,5	-1,700600
21,667000	0,5	-1,712100
21,675333	0,5	-1,713750
21,683667	0,5	-1,717000
21,692000	0,5	-1,705850
21,700333	0,5	-1,699150
21,708667	0,5	-1,690900
21,717000	0,5	-1,656200
21,725333	0,5	-1,638650
21,733667	0,5	-1,641600
21,742000	0,5	-1,629350
21,750333	0,5	-1,617850
21,758667	0,5	-1,613300
21,767000	0,5	-1,605850
21,775333	0,5	-1,603300
21,783667	0,5	-1,570100
21,792000	0,5	-1,551200
21,800333	0,5	-1,524250
21,808667	0,5	-1,508400
21,817000	0,5	-1,480550
21,825333	0,5	-1,463900
21,833667	0,5	-1,434450
21,842000	0,5	-1,413150
21,850333	0,5	-1,392700
21,858667	0,5	-1,359500
21,867000	0,5	-1,321600
21,875333	0,5	-1,307400
21,883667	0,5	-1,289250
21,892000	0,5	-1,273200
21,900333	0,5	-1,257050
21,908667	0,5	-1,247800
21,917000	0,5	-1,250650
21,925333	0,5	-1,226950
21,933667	0,5	-1,209100
21,942000	0,5	-1,183150
21,950333	0,5	-1,165400
21,958667	0,5	-1,141000
21,967000	0,5	-1,122000
21,975333	0,5	-1,096300
21,983667	0,5	-1,073100
21,992000	0,5	-1,049600
22,000333	0,5	-1,028350
22,008667	0,5	-0,992150
22,017000	0,5	-0,963550
22,025333	0,5	-0,942500
22,033667	0,5	-0,898650
22,042000	0,5	-0,877100
22,050333	0,5	-0,847750
22,058667	0,5	-0,837450
22,067000	0,5	-0,818200
22,075333	0,5	-0,784000
22,083667	0,5	-0,745050
22,092000	0,5	-0,721350
22,100333	0,5	-0,683450
22,108667	0,5	-0,654150
22,117000	0,5	-0,611200
22,125333	0,5	-0,577100
22,133667	0,5	-0,533650
22,142000	0,5	-0,492100
22,150333	0,5	-0,450200
22,158667	0,5	-0,402350
22,167000	0,5	-0,363800
22,175333	0,5	-0,311100
22,183667	0,5	-0,252700
22,192000	0,5	-0,210500
22,200333	0,5	-0,168100
22,208667	0,5	-0,129000
22,217000	0,5	-0,091700
22,225333	0,5	-0,036850
22,233667	0,5	0,011850
22,242000	0,5	0,058050
22,250333	0,5	0,099400
22,258667	0,5	0,152800
22,267000	0,5	0,197000
22,275333	0,5	0,249700
22,283667	0,5	0,292350
22,292000	0,5	0,336600
22,300333	0,5	0,383400
22,308667	0,5	0,427350
22,317000	0,5	0,477950
22,325333	0,5	0,534850
22,333667	0,5	0,580800
22,342000	0,5	0,622250
22,350333	0,5	0,656250
22,358667	0,5	0,695650
22,367000	0,5	0,750200
22,375333	0,5	0,803600
22,383667	0,5	0,861100
22,392000	0,5	0,910150
22,400333	0,5	0,969500
22,408667	0,5	1,018800
22,417000	0,5	1,078350
22,425333	0,5	1,138400
22,433667	0,5	1,193900
22,442000	0,5	1,250250
22,450333	0,5	1,297550
22,458667	0,5	1,363000
22,467000	0,5	1,452150
22,475333	0,5	1,527150
22,483667	0,5	1,588950
22,492000	0,5	1,658600
22,500333	0,5	1,700550
22,508667	0,5	1,771600
22,517000	0,5	1,839800
22,525333	0,5	1,914700
22,533667	0,5	1,975700
22,542000	0,5	2,049050
22,550333	0,5	2,112900
22,558667	0,5	2,179700
22,567000	0,5	2,243750
22,575333	0,5	2,306950
22,583667	0,5	2,361650
22,592000	0,5	2,375350
22,600333	0,5	2,418850
22,608667	0,5	2,468300
22,617000	0,5	2,529950
22,625333	0,5	2,561600
22,633667	0,5	2,584500
22,642000	0,5	2,599850
22,650333	0,5	2,609150
22,658667	0,5	2,632200
22,667000	0,5	2,649000
22,675333	0,5	2,643700
22,683667	0,5	2,649200
22,692000	0,5	2,640950
22,700333	0,5	2,632200
22,708667	0,5	2,617250
22,717000	0,5	2,600000
22,725333	0,5	2,564650
22,733667	0,5	2,516750
22,742000	0,5	2,433900
22,750333	0,5	2,410050
22,758667	0,5	2,380050
22,767000	0,5	2,335950
22,775333	0,5	2,262050
22,783667	0,5	2,164400
22,792000	0,5	2,059500
22,800333	0,5	1,942000
22,808667	0,5	1,833400
22,817000	0,5	1,703350
22,825333	0,5	1,583300
22,833667	0,5	1,452750
22,842000	0,5	1,322100
22,850333	0,5	1,189500
22,858667	0,5	1,055100
22,867000	0,5	0,918200
22,875333	0,5	0,775500
22,883667	0,5	0,605800
22,892000	0,5	0,441400
22,900333	0,5	0,299850
22,908667	0,5	0,168650
22,917000	0,5	0,004950
22,925333	0,5	-0,154850
22,933667	0,5	-0,312150
22,942000	0,5	-0,458700
22,950333	0,5	-0,615050
22,958667	0,5	-0,761000
22,967000	0,5	-0,901250
22,975333	0,5	-1,032750
22,983667	0,5	-1,171450
22,992000	0,5	-1,294750
23,000333	0,5	-1,426800
23,008667	0,5	-1,544600
23,017000	0,5	-1,666000
23,025333	0,5	-1,779850
23,033667	0,5	-1,886550
23,042000	0,5	-1,996700
23,050333	0,5	-2,108200
23,058667	0,5	-2,251450
23,067000	0,5	-2,343700
23,075333	0,5	-2,437850
23,083667	0,5	-2,508700
23,092000	0,5	-2,591050
23,100333	0,5	-2,661850
23,108667	0,5	-2,735450
23,117000	0,5	-2,788950
23,125333	0,5	-2,844800
23,133667	0,5	-2,887150
23,142000	0,5	-2,935050
23,150333	0,5	-2,976950
23,158667	0,5	-3,022200
23,167000	0,5	-3,056000
23,175333	0,5	-3,074300
23,183667	0,5	-3,135150
23,192000	0,5	-3,139650
23,200333	0,5	-3,196250
23,208667	0,5	-3,249050
23,217000	0,5	-3,269400
23,225333	0,5	-3,284650
23,233667	0,5	-3,289850
23,242000	0,5	-3,289350
23,250333	0,5	-3,300150
23,258667	0,5	-3,293800
23,267000	0,5	-3,286100
23,275333	0,5	-3,268500
23,283667	0,5	-3,257150
23,292000	0,5	-3,236800
23,300333	0,5	-3,226950
23,308667	0,5	-3,209900
23,317000	0,5	-3,200250
23,325333	0,5	-3,191500
23,333667	0,5	-3,175800
23,342000	0,5	-3,138100
23,350333	0,5	-3,137600
23,358667	0,5	-3,149100
23,367000	0,5	-3,134200
23,375333	0,5	-3,120100
23,383667	0,5	-3,094700
23,392000	0,5	-3,078850
23,400333	0,5	-3,053350
23,408667	0,5	-3,025750
23,417000	0,5	-2,994200
23,425333	0,5	-2,963350
23,433667	0,5	-2,929850
23,442000	0,5	-2,899300
23,450333	0,5	-2,862650
23,458667	0,5	-2,831600
23,467000	0,5	-2,798500
23,475333	0,5	-2,836550
23,483667	0,5	-2,793200
23,492000	0,5	-2,715500
23,500333	0,5	-2,696950
23,508667	0,5	-2,696600
23,517000	0,5	-2,681050
23,525333	0,5	-2,662150
23,533667	0,5	-2,642800
23,542000	0,5	-2,632800
23,550333	0,5	-2,615900
23,558667	0,5	-2,597200
23,567000	0,5	-2,576750
23,575333	0,5	-2,560550
23,583667	0,5	-2,539000
23,592000	0,5	-2,522000
23,600333	0,5	-2,507950
23,608667	0,5	-2,488250
23,617000	0,5	-2,511300
23,625333	0,5	-2,555900
23,633667	0,5	-2,510050
23,642000	0,5	-2,444900
23,650333	0,5	-2,421750
23,658667	0,5	-2,418400
23,667000	0,5	-2,409850
23,675333	0,5	-2,402650
23,683667	0,5	-2,393950
23,692000	0,5	-2,385000
23,700333	0,5	-2,376500
23,708667	0,5	-2,368650
23,717000	0,5	-2,359200
23,725333	0,5	-2,352100
23,733667	0,5	-2,346200
23,742000	0,5	-2,339650
23,750333	0,5	-2,333850
23,758667	0,5	-2,335800
23,767000	0,5	-2,481100
23,775333	0,5	-2,438700
23,783667	0,5	-2,421000
23,792000	0,5	-2,355100
23,800333	0,5	-2,343100
23,808667	0,5	-2,342600
23,817000	0,5	-2,346650
23,825333	0,5	-2,354000
23,833667	0,5	-2,346900
23,842000	0,5	-2,336150
23,850333	0,5	-2,332850
23,858667	0,5	-2,318600
23,867000	0,5	-2,313000
23,875333	0,5	-2,303350
23,883667	0,5	-2,293500
23,892000	0,5	-2,284500
23,900333	0,5	-2,274950
23,908667	0,5	-2,295500
23,917000	0,5	-2,411750
23,925333	0,5	-2,370250
23,933667	0,5	-2,335950
23,942000	0,5	-2,279600
23,950333	0,5	-2,265750
23,958667	0,5	-2,262500
23,967000	0,5	-2,264750
23,975333	0,5	-2,277650
23,983667	0,5	-2,261350
23,992000	0,5	-2,260600
24,000333	0,5	-2,248050
24,008667	0,5	-2,244150
24,017000	0,5	-2,231600
24,025333	0,5	-2,221150
24,033667	0,5	-2,206050
24,042000	0,5	-2,196600
24,050333	0,5	-2,191300
24,058667	0,5	-2,274400
24,067000	0,5	-2,312250
24,075333	0,5	-2,268750
24,083667	0,5	-2,211700
24,092000	0,5	-2,163650
24,100333	0,5	-2,148750
24,108667	0,5	-2,136550
24,117000	0,5	-2,137050
24,125333	0,5	-2,130250
24,133667	0,5	-2,119800
24,142000	0,5	-2,093750
24,150333	0,5	-2,082050
24,158667	0,5	-2,059500
24,167000	0,5	-2,047800
24,175333	0,5	-2,028700
24,183667	0,5	-2,016450
24,192000	0,5	-1,999250
24,200333	0,5	-1,991250
24,208667	0,5	-2,097950
24,217000	0,5	-2,075350
24,225333	0,5	-2,036350
24,233667	0,5	-1,989550
24,242000	0,5	-1,956950
24,250333	0,5	-1,948100
24,258667	0,5	-1,945300
24,267000	0,5	-1,945200
24,275333	0,5	-1,939050
24,283667	0,5	-1,913750
24,292000	0,5	-1,902850
24,300333	0,5	-1,881700
24,308667	0,5	-1,869500
24,317000	0,5	-1,845350
24,325333	0,5	-1,825650
24,333667	0,5	-1,801400
24,342000	0,5	-1,785950
24,350333	0,5	-1,781150
24,358667	0,5	-1,850000
24,367000	0,5	-1,820750
24,375333	0,5	-1,785700
24,383667	0,5	-1,737700
24,392000	0,5	-1,715450
24,400333	0,5	-1,696050
24,408667	0,5	-1,696600
24,417000	0,5	-1,695050
24,425333	0,5	-1,675700
24,433667	0,5	-1,665100
24,442000	0,5	-1,652150
24,450333	0,5	-1,640700
24,458667	0,5	-1,626000
24,467000	0,5	-1,613600
24,475333	0,5	-1,596150
24,483667	0,5	-1,588450
24,492000	0,5	-1,575600
24,500333	0,5	-1,621450
24,508667	0,5	-1,623900
24,517000	0,5	-1,607950
24,525333	0,5	-1,565100
24,533667	0,5	-1,535950
24,542000	0,5	-1,512200
24,550333	0,5	-1,506500
24,558667	0,5	-1,505300
24,567000	0,5	-1,494350
24,575333	0,5	-1,476250
24,583667	0,5	-1,461050
24,592000	0,5	-1,447100
24,600333	0,5	-1,433250
24,608667	0,5	-1,419750
24,617000	0,5	-1,403350
24,625333	0,5	-1,391650
24,633667	0,5	-1,373100
24,642000	0,5	-1,363150
24,650333	0,5	-1,409200
24,658667	0,5	-1,394600
24,667000	0,5	-1,378750
24,675333	0,5	-1,349750
24,683667	0,5	-1,331400
24,692000	0,5	-1,323050
24,700333	0,5	-1,317300
24,708667	0,5	-1,323500
24,717000	0,5	-1,307850
24,725333	0,5	-1,300800
24,733667	0,5	-1,291600
24,742000	0,5	-1,282600
24,750333	0,5	-1,271000
24,758667	0,5	-1,258350
24,767000	0,5	-1,245000
24,775333	0,5	-1,231850
24,783667	0,5	-1,221250
24,792000	0,5	-1,218050
24,800333	0,5	-1,244000
24,808667	0,5	-1,216700
24,817000	0,5	-1,207550
24,825333	0,5	-1,182950
24,833667	0,5	-1,170050
24,842000	0,5	-1,161500
24,850333	0,5	-1,156950
24,858667	0,5	-1,157950
24,867000	0,5	-1,143200
24,875333	0,5	-1,135950
24,883667	0,5	-1,130750
24,892000	0,5	-1,123200
24,900333	0,5	-1,116900
24,908667	0,5	-1,108900
24,917000	0,5	-1,103300
24,925333	0,5	-1,092150
24,933667	0,5	-1,086100
24,942000	0,5	-1,099000
24,950333	0,5	-1,095800
24,958667	0,5	-1,086150
24,967000	0,5	-1,074500
24,975333	0,5	-1,060200
24,983667	0,5	-1,051100
24,992000	0,5	-1,046250
25,000333	0,5	-1,044250
25,008667	0,5	-1,041050
25,017000	0,5	-1,027700
25,025333	0,5	-1,024200
25,033667	0,5	-1,015400
25,042000	0,5	-1,005800
25,050333	0,5	-0,994850
25,058667	0,5	-0,990700
25,067000	0,5	-0,982050
25,075333	0,5	-0,973300
25,083667	0,5	-0,967700
25,092000	0,5	-0,976300
25,100333	0,5	-0,968250
25,108667	0,5	-0,962400
25,117000	0,5	-0,953500
25,125333	0,5	-0,945100
25,133667	0,5	-0,940900
25,142000	0,5	-0,942150
25,150333	0,5	-0,942350
25,158667	0,5	-0,938100
25,167000	0,5	-0,936650
25,175333	0,5	-0,930450
25,183667	0,5	-0,927150
25,192000	0,5	-0,921650
25,200333	0,5	-0,915450
25,208667	0,5	-0,909450
25,217000	0,5	-0,897800
25,225333	0,5	-0,895300
25,233667	0,5	-0,887600
25,242000	0,5	-0,887350
25,250333	0,5	-0,878800
25,258667	0,5	-0,873550
25,267000	0,5	-0,870700
25,275333	0,5	-0,862750
25,283667	0,5	-0,861700
25,292000	0,5	-0,858300
25,300333	0,5	-0,857250
25,308667	0,5	-0,856350
25,317000	0,5	-0,855150
25,325333	0,5	-0,848950
25,333667	0,5	-0,849150
25,342000	0,5	-0,846200
25,350333	0,5	-0,843900
25,358667	0,5	-0,844700
25,367000	0,5	-0,838500
25,375333	0,5	-0,836450
25,383667	0,5	-0,831900
25,392000	0,5	-0,829750
25,400333	0,5	-0,823500
25,408667	0,5	-0,820700
25,417000	0,5	-0,821000
25,425333	0,5	-0,818650
25,433667	0,5	-0,813400
25,442000	0,5	-0,810850
25,450333	0,5	-0,805800
25,458667	0,5	-0,808800
25,467000	0,5	-0,802450
25,475333	0,5	-0,796200
25,483667	0,5	-0,795150
25,492000	0,5	-0,791850
25,500333	0,5	-0,790300
25,508667	0,5	-0,787700
25,517000	0,5	-0,787650
25,525333	0,5	-0,784000
25,533667	0,5	-0,775700
25,542000	0,5	-0,778650
25,550333	0,5	-0,768900
25,558667	0,5	-0,776450
25,567000	0,5	-0,775200
25,575333	0,5	-0,775200
25,583667	0,5	-0,773450
25,592000	0,5	-0,771400
25,600333	0,5	-0,767900
25,608667	0,5	-0,770600
25,617000	0,5	-0,765750
25,625333	0,5	-0,765700
25,633667	0,5	-0,762500
25,642000	0,5	-0,760350
25,650333	0,5	-0,755050
25,658667	0,5	-0,752550
25,667000	0,5	-0,750250
25,675333	0,5	-0,743800
25,683667	0,5	-0,737300
25,692000	0,5	-0,738000
25,700333	0,5	-0,730550
25,708667	0,5	-0,738350
25,717000	0,5	-0,739350
25,725333	0,5	-0,737450
25,733667	0,5	-0,735500
25,742000	0,5	-0,727950
25,750333	0,5	-0,733050
25,758667	0,5	-0,732250
25,767000	0,5	-0,730100
25,775333	0,5	-0,729400
25,783667	0,5	-0,729150
25,792000	0,5	-0,728500
25,800333	0,5	-0,723500
25,808667	0,5	-0,725150
25,817000	0,5	-0,722450
25,825333	0,5	-0,714250
25,833667	0,5	-0,705250
25,842000	0,5	-0,706850
25,850333	0,5	-0,703600
25,858667	0,5	-0,711300
25,867000	0,5	-0,707900
25,875333	0,5	-0,706800
25,883667	0,5	-0,703650
25,892000	0,5	-0,693750
25,900333	0,5	-0,690750
25,908667	0,5	-0,697050
25,917000	0,5	-0,690950
25,925333	0,5	-0,691500
25,933667	0,5	-0,688050
25,942000	0,5	-0,685800
25,950333	0,5	-0,684300
25,958667	0,5	-0,681050
25,967000	0,5	-0,681000
25,975333	0,5	-0,669500
25,983667	0,5	-0,672500
25,992000	0,5	-0,667850
26,000333	0,5	-0,667000
