File Path	chrom://chromeleon01/ikbm_chromeleon/2022/ICS-5000/ED1/Esteban/20220612_Cell_7_4_eg.seq/405.smp/ED_1.channel/ED_1.chm
Channel	ED_1

Injection Information:
Data Vault	ikbm_chromeleon
Injection	CelS2_06h-EGS_3
Injection Number	83
Position	GD1
Comment	
Processing Method	Stop sequence after Cell Death
Instrument Method	ICS5000_PA200_FullNative_Ox_26min_ED1
Type	Unknown
Status	Finished
Injection Date	14.06.2022
Injection Time	07:09:45
Injection Volume (µl)	5,0
Dilution Factor	1,0000
Weight	1,0000

Chromatogram Data Information:
Time Min. (min)	0,000167
Time Max. (min)	26,000167
Data Points	3121
Detector	EDet1
Generating Data System	Chromeleon 7.2.9.11323
Exporting Data System	Chromeleon 7.2.9.0
Operator	Instrument Controller
Signal Quantity	
Signal Unit	nC
Signal Min.	-2,624950
Signal Max.	217,853453
Channel	ED_1
Driver Name	DC-5000
Channel Type	Evaluation
Min. Step (s)	0,5
Max. Step (s)	0,5
Average Step (s)	0,5

Signal Parameter Information:
Signal Info	

Chromatogram Data:
Time (min)	Step (s)	Value (nC)
0,000167	n.a.	-0,031700
0,008500	0,5	-0,071200
0,016833	0,5	-0,065350
0,025167	0,5	-0,052800
0,033500	0,5	-0,048650
0,041833	0,5	-0,033700
0,050167	0,5	-0,030750
0,058500	0,5	-0,029100
0,066833	0,5	-0,047550
0,075167	0,5	-0,022600
0,083500	0,5	-0,022400
0,091833	0,5	-0,045300
0,100167	0,5	-0,054000
0,108500	0,5	-0,039250
0,116833	0,5	-0,023150
0,125167	0,5	-0,008850
0,133500	0,5	-0,021050
0,141833	0,5	-0,027850
0,150167	0,5	-0,022900
0,158500	0,5	-0,031500
0,166833	0,5	-0,030950
0,175167	0,5	-0,042650
0,183500	0,5	-0,040400
0,191833	0,5	-0,047300
0,200167	0,5	-0,044800
0,208500	0,5	-0,045600
0,216833	0,5	-0,055100
0,225167	0,5	-0,046300
0,233500	0,5	-0,049900
0,241833	0,5	-0,075700
0,250167	0,5	-0,074450
0,258500	0,5	-0,067450
0,266833	0,5	-0,040600
0,275167	0,5	-0,035650
0,283500	0,5	-0,049800
0,291833	0,5	-0,044500
0,300167	0,5	-0,035450
0,308500	0,5	-0,029250
0,316833	0,5	-0,051900
0,325167	0,5	-0,065550
0,333500	0,5	-0,082750
0,341833	0,5	-0,075100
0,350167	0,5	-0,082200
0,358500	0,5	-0,082900
0,366833	0,5	-0,097500
0,375167	0,5	-0,073050
0,383500	0,5	-0,095550
0,391833	0,5	-0,094100
0,400167	0,5	-0,101650
0,408500	0,5	-0,081750
0,416833	0,5	-0,064650
0,425167	0,5	-0,067050
0,433500	0,5	-0,075750
0,441833	0,5	-0,073750
0,450167	0,5	-0,077750
0,458500	0,5	-0,076400
0,466833	0,5	-0,080800
0,475167	0,5	-0,084100
0,483500	0,5	-0,089500
0,491833	0,5	-0,095750
0,500167	0,5	-0,096150
0,508500	0,5	-0,113950
0,516833	0,5	-0,106650
0,525167	0,5	-0,093400
0,533500	0,5	-0,112750
0,541833	0,5	-0,120850
0,550167	0,5	-0,115700
0,558500	0,5	-0,094350
0,566833	0,5	-0,066200
0,575167	0,5	-0,068850
0,583500	0,5	-0,069150
0,591833	0,5	-0,079350
0,600167	0,5	-0,073600
0,608500	0,5	-0,086250
0,616833	0,5	-0,083550
0,625167	0,5	-0,090600
0,633500	0,5	-0,092550
0,641833	0,5	-0,084050
0,650167	0,5	-0,100800
0,658500	0,5	-0,105950
0,666833	0,5	-0,085150
0,675167	0,5	-0,085600
0,683500	0,5	-0,103550
0,691833	0,5	-0,097600
0,700167	0,5	-0,098700
0,708500	0,5	-0,070200
0,716833	0,5	-0,065750
0,725167	0,5	-0,058400
0,733500	0,5	-0,075400
0,741833	0,5	-0,069150
0,750167	0,5	-0,072900
0,758500	0,5	-0,065050
0,766833	0,5	-0,073350
0,775167	0,5	-0,073950
0,783500	0,5	-0,078450
0,791833	0,5	-0,074050
0,800167	0,5	-0,080350
0,808500	0,5	-0,085350
0,816833	0,5	-0,060550
0,825167	0,5	-0,075050
0,833500	0,5	-0,087550
0,841833	0,5	-0,084250
0,850167	0,5	-0,078850
0,858500	0,5	-0,051450
0,866833	0,5	-0,051450
0,875167	0,5	-0,057000
0,883500	0,5	-0,049350
0,891833	0,5	-0,054650
0,900167	0,5	-0,050550
0,908500	0,5	-0,059500
0,916833	0,5	-0,057400
0,925167	0,5	-0,063450
0,933500	0,5	-0,058050
0,941833	0,5	-0,057650
0,950167	0,5	-0,069500
0,958500	0,5	-0,074050
0,966833	0,5	-0,044700
0,975167	0,5	-0,070200
0,983500	0,5	-0,074800
0,991833	0,5	-0,070950
1,000167	0,5	-0,055950
1,008500	0,5	-0,023650
1,016833	0,5	-0,043300
1,025167	0,5	-0,045150
1,033500	0,5	-0,047600
1,041833	0,5	-0,041900
1,050167	0,5	-0,043300
1,058500	0,5	-0,041500
1,066833	0,5	-0,050700
1,075167	0,5	-0,046750
1,083500	0,5	-0,044350
1,091833	0,5	-0,044400
1,100167	0,5	-0,069600
1,108500	0,5	-0,056500
1,116833	0,5	-0,043650
1,125167	0,5	-0,056800
1,133500	0,5	-0,062550
1,141833	0,5	-0,052200
1,150167	0,5	-0,045300
1,158500	0,5	-0,019950
1,166833	0,5	-0,033300
1,175167	0,5	-0,027550
1,183500	0,5	-0,032150
1,191833	0,5	-0,029550
1,200167	0,5	-0,030900
1,208500	0,5	-0,031400
1,216833	0,5	-0,035700
1,225167	0,5	-0,040200
1,233500	0,5	-0,031900
1,241833	0,5	-0,038700
1,250167	0,5	-0,046100
1,258500	0,5	-0,037550
1,266833	0,5	-0,032050
1,275167	0,5	-0,052500
1,283500	0,5	-0,048700
1,291833	0,5	-0,042350
1,300167	0,5	-0,010700
1,308500	0,5	-0,010000
1,316833	0,5	-0,014450
1,325167	0,5	-0,023750
1,333500	0,5	-0,016850
1,341833	0,5	-0,024950
1,350167	0,5	-0,022350
1,358500	0,5	-0,026450
1,366833	0,5	-0,028600
1,375167	0,5	-0,024600
1,383500	0,5	-0,031850
1,391833	0,5	-0,029750
1,400167	0,5	-0,041900
1,408500	0,5	-0,024050
1,416833	0,5	-0,039900
1,425167	0,5	-0,049750
1,433500	0,5	-0,054200
1,441833	0,5	-0,044200
1,450167	0,5	-0,028150
1,458500	0,5	-0,015950
1,466833	0,5	-0,028150
1,475167	0,5	-0,028000
1,483500	0,5	-0,035000
1,491833	0,5	-0,032600
1,500167	0,5	-0,040200
1,508500	0,5	-0,044600
1,516833	0,5	-0,055250
1,525167	0,5	-0,058400
1,533500	0,5	-0,063000
1,541833	0,5	-0,082650
1,550167	0,5	-0,083350
1,558500	0,5	-0,093600
1,566833	0,5	-0,219900
1,575167	0,5	-0,539500
1,583500	0,5	-1,062450
1,591833	0,5	-1,356350
1,600167	0,5	-0,658700
1,608500	0,5	1,984450
1,616833	0,5	8,139600
1,625167	0,5	18,652300
1,633500	0,5	30,500450
1,641833	0,5	37,561951
1,650167	0,5	36,737051
1,658500	0,5	30,563700
1,666833	0,5	23,389250
1,675167	0,5	17,594350
1,683500	0,5	13,628450
1,691833	0,5	11,121500
1,700167	0,5	9,687250
1,708500	0,5	9,005050
1,716833	0,5	8,819100
1,725167	0,5	8,669800
1,733500	0,5	8,178900
1,741833	0,5	7,431800
1,750167	0,5	6,671650
1,758500	0,5	6,072700
1,766833	0,5	5,686550
1,775167	0,5	5,611200
1,783500	0,5	5,916950
1,791833	0,5	6,532500
1,800167	0,5	7,182050
1,808500	0,5	7,608300
1,816833	0,5	7,700650
1,825167	0,5	7,495250
1,833500	0,5	7,106950
1,841833	0,5	6,696200
1,850167	0,5	6,341150
1,858500	0,5	5,973450
1,866833	0,5	5,593450
1,875167	0,5	5,243250
1,883500	0,5	4,926000
1,891833	0,5	4,694650
1,900167	0,5	4,489550
1,908500	0,5	4,316250
1,916833	0,5	4,166150
1,925167	0,5	4,073450
1,933500	0,5	4,070900
1,941833	0,5	4,148650
1,950167	0,5	4,203150
1,958500	0,5	4,146100
1,966833	0,5	4,039400
1,975167	0,5	3,977300
1,983500	0,5	4,156350
1,991833	0,5	4,825600
2,000167	0,5	6,577600
2,008500	0,5	10,194150
2,016833	0,5	16,027900
2,025167	0,5	22,012250
2,033500	0,5	24,627250
2,041833	0,5	22,687750
2,050167	0,5	18,484300
2,058500	0,5	14,803200
2,066833	0,5	12,483250
2,075167	0,5	10,978150
2,083500	0,5	9,713450
2,091833	0,5	8,553000
2,100167	0,5	7,634900
2,108500	0,5	7,045000
2,116833	0,5	6,784850
2,125167	0,5	6,890500
2,133500	0,5	7,352400
2,141833	0,5	8,106400
2,150167	0,5	8,786600
2,158500	0,5	8,961800
2,166833	0,5	8,632150
2,175167	0,5	8,112900
2,183500	0,5	7,636750
2,191833	0,5	7,233550
2,200167	0,5	6,799550
2,208500	0,5	6,419400
2,216833	0,5	6,091850
2,225167	0,5	5,886850
2,233500	0,5	5,782400
2,241833	0,5	5,750700
2,250167	0,5	5,736900
2,258500	0,5	5,715050
2,266833	0,5	5,688200
2,275167	0,5	5,638200
2,283500	0,5	5,623300
2,291833	0,5	5,669050
2,300167	0,5	5,767950
2,308500	0,5	5,866350
2,316833	0,5	5,946400
2,325167	0,5	5,967650
2,333500	0,5	5,966000
2,341833	0,5	5,953400
2,350167	0,5	5,965750
2,358500	0,5	6,002950
2,366833	0,5	6,097250
2,375167	0,5	6,209700
2,383500	0,5	6,366750
2,391833	0,5	6,530450
2,400167	0,5	6,705250
2,408500	0,5	6,862600
2,416833	0,5	6,995200
2,425167	0,5	7,098600
2,433500	0,5	7,208900
2,441833	0,5	7,359050
2,450167	0,5	7,517200
2,458500	0,5	7,628800
2,466833	0,5	7,621850
2,475167	0,5	7,450550
2,483500	0,5	7,215050
2,491833	0,5	7,023300
2,500167	0,5	6,880250
2,508500	0,5	6,799250
2,516833	0,5	6,737450
2,525167	0,5	6,694800
2,533500	0,5	6,657000
2,541833	0,5	6,634850
2,550167	0,5	6,614650
2,558500	0,5	6,618150
2,566833	0,5	6,640300
2,575167	0,5	6,681100
2,583500	0,5	6,762150
2,591833	0,5	6,902550
2,600167	0,5	7,102150
2,608500	0,5	7,517050
2,616833	0,5	8,244150
2,625167	0,5	9,310550
2,633500	0,5	10,493300
2,641833	0,5	11,408900
2,650167	0,5	11,832150
2,658500	0,5	11,804850
2,666833	0,5	11,649450
2,675167	0,5	11,773900
2,683500	0,5	12,518350
2,691833	0,5	14,126800
2,700167	0,5	16,850400
2,708500	0,5	21,296250
2,716833	0,5	29,105650
2,725167	0,5	43,629501
2,733500	0,5	69,685901
2,741833	0,5	109,748352
2,750167	0,5	158,105052
2,758500	0,5	199,386703
2,766833	0,5	217,853453
2,775167	0,5	208,534203
2,783500	0,5	178,720453
2,791833	0,5	140,929002
2,800167	0,5	105,443402
2,808500	0,5	77,320051
2,816833	0,5	57,248251
2,825167	0,5	43,815051
2,833500	0,5	35,147451
2,841833	0,5	29,621550
2,850167	0,5	25,995800
2,858500	0,5	23,428250
2,866833	0,5	21,354050
2,875167	0,5	19,455250
2,883500	0,5	17,595050
2,891833	0,5	15,709250
2,900167	0,5	13,922600
2,908500	0,5	12,344800
2,916833	0,5	11,040650
2,925167	0,5	10,010500
2,933500	0,5	9,172550
2,941833	0,5	8,502350
2,950167	0,5	7,947350
2,958500	0,5	7,492450
2,966833	0,5	7,090450
2,975167	0,5	6,746500
2,983500	0,5	6,435200
2,991833	0,5	6,160750
3,000167	0,5	5,907950
3,008500	0,5	5,675400
3,016833	0,5	5,470350
3,025167	0,5	5,264200
3,033500	0,5	5,131350
3,041833	0,5	5,002950
3,050167	0,5	4,944050
3,058500	0,5	4,921000
3,066833	0,5	4,915400
3,075167	0,5	4,882250
3,083500	0,5	4,752500
3,091833	0,5	4,536400
3,100167	0,5	4,299250
3,108500	0,5	4,030300
3,116833	0,5	3,790550
3,125167	0,5	3,579700
3,133500	0,5	3,421700
3,141833	0,5	3,308900
3,150167	0,5	3,243400
3,158500	0,5	3,227700
3,166833	0,5	3,246450
3,175167	0,5	3,310300
3,183500	0,5	3,430250
3,191833	0,5	3,541750
3,200167	0,5	3,705550
3,208500	0,5	3,896750
3,216833	0,5	4,075150
3,225167	0,5	4,189200
3,233500	0,5	4,126700
3,241833	0,5	3,931150
3,250167	0,5	3,608400
3,258500	0,5	3,258100
3,266833	0,5	2,913900
3,275167	0,5	2,642850
3,283500	0,5	2,433550
3,291833	0,5	2,296850
3,300167	0,5	2,201900
3,308500	0,5	2,132150
3,316833	0,5	2,063500
3,325167	0,5	2,010750
3,333500	0,5	1,940800
3,341833	0,5	1,859050
3,350167	0,5	1,787800
3,358500	0,5	1,725850
3,366833	0,5	1,679700
3,375167	0,5	1,638350
3,383500	0,5	1,592350
3,391833	0,5	1,551000
3,400167	0,5	1,525800
3,408500	0,5	1,495600
3,416833	0,5	1,477700
3,425167	0,5	1,456200
3,433500	0,5	1,437950
3,441833	0,5	1,407550
3,450167	0,5	1,380800
3,458500	0,5	1,345600
3,466833	0,5	1,314800
3,475167	0,5	1,288850
3,483500	0,5	1,257950
3,491833	0,5	1,226250
3,500167	0,5	1,214650
3,508500	0,5	1,215100
3,516833	0,5	1,228350
3,525167	0,5	1,234450
3,533500	0,5	1,237800
3,541833	0,5	1,237200
3,550167	0,5	1,237650
3,558500	0,5	1,230150
3,566833	0,5	1,212200
3,575167	0,5	1,183300
3,583500	0,5	1,145000
3,591833	0,5	1,115950
3,600167	0,5	1,070750
3,608500	0,5	1,037800
3,616833	0,5	1,004500
3,625167	0,5	0,991750
3,633500	0,5	0,955800
3,641833	0,5	0,939900
3,650167	0,5	0,930550
3,658500	0,5	0,947800
3,666833	0,5	0,967700
3,675167	0,5	0,988050
3,683500	0,5	1,004450
3,691833	0,5	1,045000
3,700167	0,5	1,099600
3,708500	0,5	1,184050
3,716833	0,5	1,310650
3,725167	0,5	1,506800
3,733500	0,5	1,788150
3,741833	0,5	2,148550
3,750167	0,5	2,574350
3,758500	0,5	2,991600
3,766833	0,5	3,366700
3,775167	0,5	3,588900
3,783500	0,5	3,614450
3,791833	0,5	3,452400
3,800167	0,5	3,145500
3,808500	0,5	2,753950
3,816833	0,5	2,337250
3,825167	0,5	1,941050
3,833500	0,5	1,621200
3,841833	0,5	1,365550
3,850167	0,5	1,185100
3,858500	0,5	1,052000
3,866833	0,5	0,961150
3,875167	0,5	0,893050
3,883500	0,5	0,843550
3,891833	0,5	0,809100
3,900167	0,5	0,776250
3,908500	0,5	0,748100
3,916833	0,5	0,750100
3,925167	0,5	0,725050
3,933500	0,5	0,706900
3,941833	0,5	0,699250
3,950167	0,5	0,699050
3,958500	0,5	0,715900
3,966833	0,5	0,706750
3,975167	0,5	0,710500
3,983500	0,5	0,708650
3,991833	0,5	0,721600
4,000167	0,5	0,724100
4,008500	0,5	0,728150
4,016833	0,5	0,723800
4,025167	0,5	0,724050
4,033500	0,5	0,721950
4,041833	0,5	0,719650
4,050167	0,5	0,708650
4,058500	0,5	0,697150
4,066833	0,5	0,714350
4,075167	0,5	0,694100
4,083500	0,5	0,693400
4,091833	0,5	0,695650
4,100167	0,5	0,704950
4,108500	0,5	0,733650
4,116833	0,5	0,728300
4,125167	0,5	0,723100
4,133500	0,5	0,733400
4,141833	0,5	0,736850
4,150167	0,5	0,756500
4,158500	0,5	0,769050
4,166833	0,5	0,800500
4,175167	0,5	0,832400
4,183500	0,5	0,890400
4,191833	0,5	0,957750
4,200167	0,5	1,051950
4,208500	0,5	1,172900
4,216833	0,5	1,348600
4,225167	0,5	1,534250
4,233500	0,5	1,793600
4,241833	0,5	2,099150
4,250167	0,5	2,483800
4,258500	0,5	2,951200
4,266833	0,5	3,482300
4,275167	0,5	4,134900
4,283500	0,5	4,916200
4,291833	0,5	5,853450
4,300167	0,5	6,948900
4,308500	0,5	8,199450
4,316833	0,5	9,533750
4,325167	0,5	10,871700
4,333500	0,5	12,054050
4,341833	0,5	12,929600
4,350167	0,5	13,357650
4,358500	0,5	13,297200
4,366833	0,5	12,709950
4,375167	0,5	11,670950
4,383500	0,5	10,337650
4,391833	0,5	8,869250
4,400167	0,5	7,404250
4,408500	0,5	6,052350
4,416833	0,5	4,864150
4,425167	0,5	3,899350
4,433500	0,5	3,142700
4,441833	0,5	2,580400
4,450167	0,5	2,172600
4,458500	0,5	1,882000
4,466833	0,5	1,701650
4,475167	0,5	1,578600
4,483500	0,5	1,512050
4,491833	0,5	1,461650
4,500167	0,5	1,441450
4,508500	0,5	1,442450
4,516833	0,5	1,441150
4,525167	0,5	1,441850
4,533500	0,5	1,471800
4,541833	0,5	1,518750
4,550167	0,5	1,608250
4,558500	0,5	1,716300
4,566833	0,5	1,864850
4,575167	0,5	2,036250
4,583500	0,5	2,237200
4,591833	0,5	2,428200
4,600167	0,5	2,593000
4,608500	0,5	2,699650
4,616833	0,5	2,735450
4,625167	0,5	2,693750
4,633500	0,5	2,572750
4,641833	0,5	2,387450
4,650167	0,5	2,172250
4,658500	0,5	1,951500
4,666833	0,5	1,717600
4,675167	0,5	1,510950
4,683500	0,5	1,342700
4,691833	0,5	1,216250
4,700167	0,5	1,118250
4,708500	0,5	1,041000
4,716833	0,5	0,975150
4,725167	0,5	0,934050
4,733500	0,5	0,899550
4,741833	0,5	0,872950
4,750167	0,5	0,851700
4,758500	0,5	0,831350
4,766833	0,5	0,817950
4,775167	0,5	0,808050
4,783500	0,5	0,802850
4,791833	0,5	0,791150
4,800167	0,5	0,792300
4,808500	0,5	0,789650
4,816833	0,5	0,771900
4,825167	0,5	0,760150
4,833500	0,5	0,758000
4,841833	0,5	0,766100
4,850167	0,5	0,772000
4,858500	0,5	0,758750
4,866833	0,5	0,761750
4,875167	0,5	0,754300
4,883500	0,5	0,764900
4,891833	0,5	0,759700
4,900167	0,5	0,765900
4,908500	0,5	0,762750
4,916833	0,5	0,771350
4,925167	0,5	0,777100
4,933500	0,5	0,781350
4,941833	0,5	0,781850
4,950167	0,5	0,809150
4,958500	0,5	0,814800
4,966833	0,5	0,828100
4,975167	0,5	0,848100
4,983500	0,5	0,878650
4,991833	0,5	0,930450
5,000167	0,5	0,965400
5,008500	0,5	1,017450
5,016833	0,5	1,086150
5,025167	0,5	1,185600
5,033500	0,5	1,321050
5,041833	0,5	1,508350
5,050167	0,5	1,766650
5,058500	0,5	2,104350
5,066833	0,5	2,517650
5,075167	0,5	3,005200
5,083500	0,5	3,517650
5,091833	0,5	4,015300
5,100167	0,5	4,458800
5,108500	0,5	4,748950
5,116833	0,5	4,882950
5,125167	0,5	4,842450
5,133500	0,5	4,646100
5,141833	0,5	4,330900
5,150167	0,5	3,923400
5,158500	0,5	3,474100
5,166833	0,5	3,035900
5,175167	0,5	2,637300
5,183500	0,5	2,290550
5,191833	0,5	2,005500
5,200167	0,5	1,776350
5,208500	0,5	1,590400
5,216833	0,5	1,456300
5,225167	0,5	1,343900
5,233500	0,5	1,261650
5,241833	0,5	1,186300
5,250167	0,5	1,140800
5,258500	0,5	1,075650
5,266833	0,5	1,032550
5,275167	0,5	0,995550
5,283500	0,5	0,978000
5,291833	0,5	0,969700
5,300167	0,5	0,957050
5,308500	0,5	0,945900
5,316833	0,5	0,951500
5,325167	0,5	0,953150
5,333500	0,5	0,963300
5,341833	0,5	0,968900
5,350167	0,5	0,973200
5,358500	0,5	0,974050
5,366833	0,5	0,972600
5,375167	0,5	0,964100
5,383500	0,5	0,947150
5,391833	0,5	0,940750
5,400167	0,5	0,926950
5,408500	0,5	0,898000
5,416833	0,5	0,877000
5,425167	0,5	0,860750
5,433500	0,5	0,853200
5,441833	0,5	0,840300
5,450167	0,5	0,807850
5,458500	0,5	0,781600
5,466833	0,5	0,743300
5,475167	0,5	0,715600
5,483500	0,5	0,679800
5,491833	0,5	0,652150
5,500167	0,5	0,620700
5,508500	0,5	0,599800
5,516833	0,5	0,585850
5,525167	0,5	0,561050
5,533500	0,5	0,548450
5,541833	0,5	0,550650
5,550167	0,5	0,539850
5,558500	0,5	0,529400
5,566833	0,5	0,530250
5,575167	0,5	0,534300
5,583500	0,5	0,550050
5,591833	0,5	0,555550
5,600167	0,5	0,563850
5,608500	0,5	0,559450
5,616833	0,5	0,564850
5,625167	0,5	0,556600
5,633500	0,5	0,554550
5,641833	0,5	0,539400
5,650167	0,5	0,525550
5,658500	0,5	0,507750
5,666833	0,5	0,490600
5,675167	0,5	0,468150
5,683500	0,5	0,456000
5,691833	0,5	0,452950
5,700167	0,5	0,434300
5,708500	0,5	0,421250
5,716833	0,5	0,421650
5,725167	0,5	0,432650
5,733500	0,5	0,459400
5,741833	0,5	0,485400
5,750167	0,5	0,517700
5,758500	0,5	0,565600
5,766833	0,5	0,609400
5,775167	0,5	0,651500
5,783500	0,5	0,671400
5,791833	0,5	0,673800
5,800167	0,5	0,654750
5,808500	0,5	0,624850
5,816833	0,5	0,583100
5,825167	0,5	0,537700
5,833500	0,5	0,507300
5,841833	0,5	0,494000
5,850167	0,5	0,475800
5,858500	0,5	0,481750
5,866833	0,5	0,506250
5,875167	0,5	0,542600
5,883500	0,5	0,579150
5,891833	0,5	0,588850
5,900167	0,5	0,595200
5,908500	0,5	0,587600
5,916833	0,5	0,568050
5,925167	0,5	0,538600
5,933500	0,5	0,513100
5,941833	0,5	0,481750
5,950167	0,5	0,459450
5,958500	0,5	0,436100
5,966833	0,5	0,411850
5,975167	0,5	0,375800
5,983500	0,5	0,360900
5,991833	0,5	0,337300
6,000167	0,5	0,319150
6,008500	0,5	0,305300
6,016833	0,5	0,303450
6,025167	0,5	0,309450
6,033500	0,5	0,308700
6,041833	0,5	0,297450
6,050167	0,5	0,289650
6,058500	0,5	0,272200
6,066833	0,5	0,252850
6,075167	0,5	0,226650
6,083500	0,5	0,198100
6,091833	0,5	0,173300
6,100167	0,5	0,154850
6,108500	0,5	0,137600
6,116833	0,5	0,120350
6,125167	0,5	0,109450
6,133500	0,5	0,108550
6,141833	0,5	0,100450
6,150167	0,5	0,093800
6,158500	0,5	0,089250
6,166833	0,5	0,089100
6,175167	0,5	0,103400
6,183500	0,5	0,098800
6,191833	0,5	0,095400
6,200167	0,5	0,091750
6,208500	0,5	0,091650
6,216833	0,5	0,088900
6,225167	0,5	0,088600
6,233500	0,5	0,090550
6,241833	0,5	0,096200
6,250167	0,5	0,110850
6,258500	0,5	0,131300
6,266833	0,5	0,155700
6,275167	0,5	0,192550
6,283500	0,5	0,236950
6,291833	0,5	0,264050
6,300167	0,5	0,285250
6,308500	0,5	0,296150
6,316833	0,5	0,299850
6,325167	0,5	0,297050
6,333500	0,5	0,275500
6,341833	0,5	0,248550
6,350167	0,5	0,221050
6,358500	0,5	0,192700
6,366833	0,5	0,176050
6,375167	0,5	0,153900
6,383500	0,5	0,136700
6,391833	0,5	0,121200
6,400167	0,5	0,109400
6,408500	0,5	0,101000
6,416833	0,5	0,097850
6,425167	0,5	0,095950
6,433500	0,5	0,096600
6,441833	0,5	0,087000
6,450167	0,5	0,091750
6,458500	0,5	0,094050
6,466833	0,5	0,111950
6,475167	0,5	0,126800
6,483500	0,5	0,137850
6,491833	0,5	0,156650
6,500167	0,5	0,165450
6,508500	0,5	0,179900
6,516833	0,5	0,183200
6,525167	0,5	0,188350
6,533500	0,5	0,185950
6,541833	0,5	0,185050
6,550167	0,5	0,177650
6,558500	0,5	0,167150
6,566833	0,5	0,156450
6,575167	0,5	0,161150
6,583500	0,5	0,149150
6,591833	0,5	0,142700
6,600167	0,5	0,143350
6,608500	0,5	0,150600
6,616833	0,5	0,171150
6,625167	0,5	0,183750
6,633500	0,5	0,204750
6,641833	0,5	0,224800
6,650167	0,5	0,248300
6,658500	0,5	0,271600
6,666833	0,5	0,299000
6,675167	0,5	0,314950
6,683500	0,5	0,338950
6,691833	0,5	0,353500
6,700167	0,5	0,384400
6,708500	0,5	0,421600
6,716833	0,5	0,492300
6,725167	0,5	0,601900
6,733500	0,5	0,734500
6,741833	0,5	0,900200
6,750167	0,5	1,091100
6,758500	0,5	1,283950
6,766833	0,5	1,455700
6,775167	0,5	1,557950
6,783500	0,5	1,588100
6,791833	0,5	1,543600
6,800167	0,5	1,434100
6,808500	0,5	1,276100
6,816833	0,5	1,098750
6,825167	0,5	0,925600
6,833500	0,5	0,772550
6,841833	0,5	0,660900
6,850167	0,5	0,586050
6,858500	0,5	0,551700
6,866833	0,5	0,548950
6,875167	0,5	0,577150
6,883500	0,5	0,594150
6,891833	0,5	0,610600
6,900167	0,5	0,618900
6,908500	0,5	0,613550
6,916833	0,5	0,584000
6,925167	0,5	0,537350
6,933500	0,5	0,489450
6,941833	0,5	0,456600
6,950167	0,5	0,431750
6,958500	0,5	0,425100
6,966833	0,5	0,429200
6,975167	0,5	0,440600
6,983500	0,5	0,453300
6,991833	0,5	0,461350
7,000167	0,5	0,464900
7,008500	0,5	0,446850
7,016833	0,5	0,434400
7,025167	0,5	0,413150
7,033500	0,5	0,389000
7,041833	0,5	0,368850
7,050167	0,5	0,363800
7,058500	0,5	0,368300
7,066833	0,5	0,378350
7,075167	0,5	0,389000
7,083500	0,5	0,419450
7,091833	0,5	0,460000
7,100167	0,5	0,517400
7,108500	0,5	0,576350
7,116833	0,5	0,647600
7,125167	0,5	0,703450
7,133500	0,5	0,745950
7,141833	0,5	0,766900
7,150167	0,5	0,763700
7,158500	0,5	0,744050
7,166833	0,5	0,737550
7,175167	0,5	0,724400
7,183500	0,5	0,728550
7,191833	0,5	0,752200
7,200167	0,5	0,796450
7,208500	0,5	0,849650
7,216833	0,5	0,881100
7,225167	0,5	0,895950
7,233500	0,5	0,875700
7,241833	0,5	0,834700
7,250167	0,5	0,782800
7,258500	0,5	0,738550
7,266833	0,5	0,724400
7,275167	0,5	0,772850
7,283500	0,5	0,895950
7,291833	0,5	1,116100
7,300167	0,5	1,438600
7,308500	0,5	1,868900
7,316833	0,5	2,393000
7,325167	0,5	2,988300
7,333500	0,5	3,642400
7,341833	0,5	4,356050
7,350167	0,5	5,149500
7,358500	0,5	6,071200
7,366833	0,5	7,204850
7,375167	0,5	8,754350
7,383500	0,5	11,095850
7,391833	0,5	14,880850
7,400167	0,5	21,054750
7,408500	0,5	30,658450
7,416833	0,5	44,244801
7,425167	0,5	61,067051
7,433500	0,5	78,725751
7,441833	0,5	93,642651
7,450167	0,5	102,595052
7,458500	0,5	103,931952
7,466833	0,5	98,052851
7,475167	0,5	86,897801
7,483500	0,5	73,033851
7,491833	0,5	58,631701
7,500167	0,5	45,255101
7,508500	0,5	33,734301
7,516833	0,5	24,446800
7,525167	0,5	17,443250
7,533500	0,5	12,448550
7,541833	0,5	9,055350
7,550167	0,5	6,823950
7,558500	0,5	5,393300
7,566833	0,5	4,481000
7,575167	0,5	3,902400
7,583500	0,5	3,512450
7,591833	0,5	3,226750
7,600167	0,5	2,992700
7,608500	0,5	2,802200
7,616833	0,5	2,636750
7,625167	0,5	2,507450
7,633500	0,5	2,407050
7,641833	0,5	2,320450
7,650167	0,5	2,227800
7,658500	0,5	2,106550
7,666833	0,5	1,962400
7,675167	0,5	1,818400
7,683500	0,5	1,688600
7,691833	0,5	1,581150
7,700167	0,5	1,513500
7,708500	0,5	1,464900
7,716833	0,5	1,424800
7,725167	0,5	1,388750
7,733500	0,5	1,357450
7,741833	0,5	1,328450
7,750167	0,5	1,328650
7,758500	0,5	1,329450
7,766833	0,5	1,408650
7,775167	0,5	1,437650
7,783500	0,5	1,441900
7,791833	0,5	1,420000
7,800167	0,5	1,370750
7,808500	0,5	1,292000
7,816833	0,5	1,203200
7,825167	0,5	1,109150
7,833500	0,5	1,026900
7,841833	0,5	0,954350
7,850167	0,5	0,894100
7,858500	0,5	0,846050
7,866833	0,5	0,812550
7,875167	0,5	0,790150
7,883500	0,5	0,782800
7,891833	0,5	0,800350
7,900167	0,5	0,833800
7,908500	0,5	0,877000
7,916833	0,5	0,903550
7,925167	0,5	0,903500
7,933500	0,5	0,876000
7,941833	0,5	0,829450
7,950167	0,5	0,773150
7,958500	0,5	0,711850
7,966833	0,5	0,652600
7,975167	0,5	0,604450
7,983500	0,5	0,562750
7,991833	0,5	0,537000
8,000167	0,5	0,521600
8,008500	0,5	0,525450
8,016833	0,5	0,548400
8,025167	0,5	0,587100
8,033500	0,5	0,632750
8,041833	0,5	0,664600
8,050167	0,5	0,685800
8,058500	0,5	0,693850
8,066833	0,5	0,696650
8,075167	0,5	0,706700
8,083500	0,5	0,730450
8,091833	0,5	0,766400
8,100167	0,5	0,814100
8,108500	0,5	0,863400
8,116833	0,5	0,925000
8,125167	0,5	0,982100
8,133500	0,5	1,007000
8,141833	0,5	0,984250
8,150167	0,5	0,911400
8,158500	0,5	0,804150
8,166833	0,5	0,691550
8,175167	0,5	0,598650
8,183500	0,5	0,531100
8,191833	0,5	0,484450
8,200167	0,5	0,462350
8,208500	0,5	0,446500
8,216833	0,5	0,442500
8,225167	0,5	0,442850
8,233500	0,5	0,446650
8,241833	0,5	0,450350
8,250167	0,5	0,449800
8,258500	0,5	0,442550
8,266833	0,5	0,438650
8,275167	0,5	0,443800
8,283500	0,5	0,447750
8,291833	0,5	0,472050
8,300167	0,5	0,502150
8,308500	0,5	0,537850
8,316833	0,5	0,567400
8,325167	0,5	0,592250
8,333500	0,5	0,589900
8,341833	0,5	0,576050
8,350167	0,5	0,552750
8,358500	0,5	0,529550
8,366833	0,5	0,506900
8,375167	0,5	0,495900
8,383500	0,5	0,489950
8,391833	0,5	0,494000
8,400167	0,5	0,495950
8,408500	0,5	0,503550
8,416833	0,5	0,516500
8,425167	0,5	0,538550
8,433500	0,5	0,570450
8,441833	0,5	0,609300
8,450167	0,5	0,649950
8,458500	0,5	0,697700
8,466833	0,5	0,748450
8,475167	0,5	0,808900
8,483500	0,5	0,873200
8,491833	0,5	0,939050
8,500167	0,5	0,987900
8,508500	0,5	1,015850
8,516833	0,5	1,016100
8,525167	0,5	1,007750
8,533500	0,5	1,000950
8,541833	0,5	0,979450
8,550167	0,5	0,947750
8,558500	0,5	0,902600
8,566833	0,5	0,866100
8,575167	0,5	0,856100
8,583500	0,5	0,893350
8,591833	0,5	0,990950
8,600167	0,5	1,154500
8,608500	0,5	1,405500
8,616833	0,5	1,753700
8,625167	0,5	2,208900
8,633500	0,5	2,779800
8,641833	0,5	3,476600
8,650167	0,5	4,289250
8,658500	0,5	5,213450
8,666833	0,5	6,266500
8,675167	0,5	7,539000
8,683500	0,5	9,282550
8,691833	0,5	12,021400
8,700167	0,5	16,694850
8,708500	0,5	24,587300
8,716833	0,5	36,775501
8,725167	0,5	53,192901
8,733500	0,5	71,756301
8,741833	0,5	88,835301
8,750167	0,5	100,633351
8,758500	0,5	104,759552
8,766833	0,5	100,875452
8,775167	0,5	90,339851
8,783500	0,5	75,637101
8,791833	0,5	59,510851
8,800167	0,5	44,289601
8,808500	0,5	31,506650
8,816833	0,5	21,767450
8,825167	0,5	14,900300
8,833500	0,5	10,351500
8,841833	0,5	7,463700
8,850167	0,5	5,671600
8,858500	0,5	4,550750
8,866833	0,5	3,819850
8,875167	0,5	3,324500
8,883500	0,5	2,966800
8,891833	0,5	2,700150
8,900167	0,5	2,491100
8,908500	0,5	2,325050
8,916833	0,5	2,184100
8,925167	0,5	2,056300
8,933500	0,5	1,952200
8,941833	0,5	1,863950
8,950167	0,5	1,785450
8,958500	0,5	1,714000
8,966833	0,5	1,654700
8,975167	0,5	1,604750
8,983500	0,5	1,557600
8,991833	0,5	1,521250
9,000167	0,5	1,492250
9,008500	0,5	1,471250
9,016833	0,5	1,461050
9,025167	0,5	1,461250
9,033500	0,5	1,464800
9,041833	0,5	1,462950
9,050167	0,5	1,463200
9,058500	0,5	1,446650
9,066833	0,5	1,415850
9,075167	0,5	1,375500
9,083500	0,5	1,333150
9,091833	0,5	1,296050
9,100167	0,5	1,270500
9,108500	0,5	1,269100
9,116833	0,5	1,295850
9,125167	0,5	1,348800
9,133500	0,5	1,410500
9,141833	0,5	1,447950
9,150167	0,5	1,453050
9,158500	0,5	1,426650
9,166833	0,5	1,375200
9,175167	0,5	1,316100
9,183500	0,5	1,260200
9,191833	0,5	1,222350
9,200167	0,5	1,206000
9,208500	0,5	1,210900
9,216833	0,5	1,226800
9,225167	0,5	1,241000
9,233500	0,5	1,242900
9,241833	0,5	1,218250
9,250167	0,5	1,169200
9,258500	0,5	1,106800
9,266833	0,5	1,048300
9,275167	0,5	0,998700
9,283500	0,5	0,959300
9,291833	0,5	0,935550
9,300167	0,5	0,921350
9,308500	0,5	0,915100
9,316833	0,5	0,917950
9,325167	0,5	0,922150
9,333500	0,5	0,934900
9,341833	0,5	0,950800
9,350167	0,5	0,966750
9,358500	0,5	0,976350
9,366833	0,5	0,978850
9,375167	0,5	0,972150
9,383500	0,5	0,964450
9,391833	0,5	0,955750
9,400167	0,5	0,943450
9,408500	0,5	0,932850
9,416833	0,5	0,927200
9,425167	0,5	0,931850
9,433500	0,5	0,941850
9,441833	0,5	0,956800
9,450167	0,5	0,980000
9,458500	0,5	1,000350
9,466833	0,5	1,020850
9,475167	0,5	1,035650
9,483500	0,5	1,045400
9,491833	0,5	1,050650
9,500167	0,5	1,058950
9,508500	0,5	1,061200
9,516833	0,5	1,069250
9,525167	0,5	1,077100
9,533500	0,5	1,080050
9,541833	0,5	1,081950
9,550167	0,5	1,066800
9,558500	0,5	1,049350
9,566833	0,5	1,026300
9,575167	0,5	1,009250
9,583500	0,5	0,995150
9,591833	0,5	0,983800
9,600167	0,5	0,982500
9,608500	0,5	0,983900
9,616833	0,5	0,985500
9,625167	0,5	0,987700
9,633500	0,5	0,992600
9,641833	0,5	1,000250
9,650167	0,5	1,018150
9,658500	0,5	1,045400
9,666833	0,5	1,093600
9,675167	0,5	1,163100
9,683500	0,5	1,261950
9,691833	0,5	1,382950
9,700167	0,5	1,520750
9,708500	0,5	1,660450
9,716833	0,5	1,782250
9,725167	0,5	1,862500
9,733500	0,5	1,879200
9,741833	0,5	1,830250
9,750167	0,5	1,724900
9,758500	0,5	1,588600
9,766833	0,5	1,454650
9,775167	0,5	1,338100
9,783500	0,5	1,252100
9,791833	0,5	1,196200
9,800167	0,5	1,164600
9,808500	0,5	1,145300
9,816833	0,5	1,136900
9,825167	0,5	1,130500
9,833500	0,5	1,126750
9,841833	0,5	1,117700
9,850167	0,5	1,101450
9,858500	0,5	1,077850
9,866833	0,5	1,049950
9,875167	0,5	1,020300
9,883500	0,5	0,992150
9,891833	0,5	0,962150
9,900167	0,5	0,945150
9,908500	0,5	0,931700
9,916833	0,5	0,927550
9,925167	0,5	0,922450
9,933500	0,5	0,918000
9,941833	0,5	0,914900
9,950167	0,5	0,916450
9,958500	0,5	0,917650
9,966833	0,5	0,925300
9,975167	0,5	0,933700
9,983500	0,5	0,943950
9,991833	0,5	0,950800
10,000167	0,5	0,958850
10,008500	0,5	0,974000
10,016833	0,5	0,981200
10,025167	0,5	0,987300
10,033500	0,5	0,995500
10,041833	0,5	0,995750
10,050167	0,5	0,995800
10,058500	0,5	0,984250
10,066833	0,5	0,974200
10,075167	0,5	0,961300
10,083500	0,5	0,953150
10,091833	0,5	0,954500
10,100167	0,5	0,971350
10,108500	0,5	1,005050
10,116833	0,5	1,066100
10,125167	0,5	1,164400
10,133500	0,5	1,294050
10,141833	0,5	1,439750
10,150167	0,5	1,568950
10,158500	0,5	1,660050
10,166833	0,5	1,699950
10,175167	0,5	1,682000
10,183500	0,5	1,611250
10,191833	0,5	1,518350
10,200167	0,5	1,415900
10,208500	0,5	1,308900
10,216833	0,5	1,212700
10,225167	0,5	1,131250
10,233500	0,5	1,058850
10,241833	0,5	1,003900
10,250167	0,5	0,956400
10,258500	0,5	0,917650
10,266833	0,5	0,887300
10,275167	0,5	0,866750
10,283500	0,5	0,850450
10,291833	0,5	0,839000
10,300167	0,5	0,827400
10,308500	0,5	0,824900
10,316833	0,5	0,823000
10,325167	0,5	0,822100
10,333500	0,5	0,820650
10,341833	0,5	0,819700
10,350167	0,5	0,825700
10,358500	0,5	0,832650
10,366833	0,5	0,842800
10,375167	0,5	0,852200
10,383500	0,5	0,860050
10,391833	0,5	0,866900
10,400167	0,5	0,866300
10,408500	0,5	0,864050
10,416833	0,5	0,857050
10,425167	0,5	0,856600
10,433500	0,5	0,849400
10,441833	0,5	0,848400
10,450167	0,5	0,845650
10,458500	0,5	0,853400
10,466833	0,5	0,877350
10,475167	0,5	0,915300
10,483500	0,5	0,977450
10,491833	0,5	1,066650
10,500167	0,5	1,174550
10,508500	0,5	1,284400
10,516833	0,5	1,375050
10,525167	0,5	1,415950
10,533500	0,5	1,404450
10,541833	0,5	1,337650
10,550167	0,5	1,245700
10,558500	0,5	1,137550
10,566833	0,5	1,050550
10,575167	0,5	0,981100
10,583500	0,5	0,929350
10,591833	0,5	0,891550
10,600167	0,5	0,858600
10,608500	0,5	0,840350
10,616833	0,5	0,821850
10,625167	0,5	0,808950
10,633500	0,5	0,797650
10,641833	0,5	0,789600
10,650167	0,5	0,779750
10,658500	0,5	0,773200
10,666833	0,5	0,763200
10,675167	0,5	0,755550
10,683500	0,5	0,747100
10,691833	0,5	0,745100
10,700167	0,5	0,749300
10,708500	0,5	0,754300
10,716833	0,5	0,774050
10,725167	0,5	0,793550
10,733500	0,5	0,817400
10,741833	0,5	0,840850
10,750167	0,5	0,863400
10,758500	0,5	0,886750
10,766833	0,5	0,915250
10,775167	0,5	0,946650
10,783500	0,5	0,992650
10,791833	0,5	1,055300
10,800167	0,5	1,142150
10,808500	0,5	1,248200
10,816833	0,5	1,367200
10,825167	0,5	1,475850
10,833500	0,5	1,553000
10,841833	0,5	1,579650
10,850167	0,5	1,543650
10,858500	0,5	1,458250
10,866833	0,5	1,356400
10,875167	0,5	1,233350
10,883500	0,5	1,122600
10,891833	0,5	1,027450
10,900167	0,5	0,958300
10,908500	0,5	0,910750
10,916833	0,5	0,876300
10,925167	0,5	0,851400
10,933500	0,5	0,835500
10,941833	0,5	0,828550
10,950167	0,5	0,819250
10,958500	0,5	0,821200
10,966833	0,5	0,829600
10,975167	0,5	0,847100
10,983500	0,5	0,878000
10,991833	0,5	0,922200
11,000167	0,5	0,978400
11,008500	0,5	1,047700
11,016833	0,5	1,128250
11,025167	0,5	1,204300
11,033500	0,5	1,268000
11,041833	0,5	1,314250
11,050167	0,5	1,337750
11,058500	0,5	1,341350
11,066833	0,5	1,318400
11,075167	0,5	1,290600
11,083500	0,5	1,256450
11,091833	0,5	1,226200
11,100167	0,5	1,195800
11,108500	0,5	1,155400
11,116833	0,5	1,105850
11,125167	0,5	1,043500
11,133500	0,5	0,978050
11,141833	0,5	0,911150
11,150167	0,5	0,848900
11,158500	0,5	0,800950
11,166833	0,5	0,762900
11,175167	0,5	0,724200
11,183500	0,5	0,699550
11,191833	0,5	0,678450
11,200167	0,5	0,662600
11,208500	0,5	0,653250
11,216833	0,5	0,651050
11,225167	0,5	0,648750
11,233500	0,5	0,655150
11,241833	0,5	0,663950
11,250167	0,5	0,671500
11,258500	0,5	0,682050
11,266833	0,5	0,693350
11,275167	0,5	0,708250
11,283500	0,5	0,723550
11,291833	0,5	0,736300
11,300167	0,5	0,752800
11,308500	0,5	0,776050
11,316833	0,5	0,801200
11,325167	0,5	0,826800
11,333500	0,5	0,841750
11,341833	0,5	0,868000
11,350167	0,5	0,884250
11,358500	0,5	0,891900
11,366833	0,5	0,885750
11,375167	0,5	0,884300
11,383500	0,5	0,887000
11,391833	0,5	0,907650
11,400167	0,5	0,948200
11,408500	0,5	1,009400
11,416833	0,5	1,082050
11,425167	0,5	1,160650
11,433500	0,5	1,231100
11,441833	0,5	1,281250
11,450167	0,5	1,303300
11,458500	0,5	1,303900
11,466833	0,5	1,272650
11,475167	0,5	1,218650
11,483500	0,5	1,154250
11,491833	0,5	1,086600
11,500167	0,5	1,023750
11,508500	0,5	0,961450
11,516833	0,5	0,908050
11,525167	0,5	0,863100
11,533500	0,5	0,823900
11,541833	0,5	0,794150
11,550167	0,5	0,778600
11,558500	0,5	0,766600
11,566833	0,5	0,760500
11,575167	0,5	0,756950
11,583500	0,5	0,748350
11,591833	0,5	0,726400
11,600167	0,5	0,711250
11,608500	0,5	0,694300
11,616833	0,5	0,668900
11,625167	0,5	0,647850
11,633500	0,5	0,630200
11,641833	0,5	0,623150
11,650167	0,5	0,626950
11,658500	0,5	0,639800
11,666833	0,5	0,658000
11,675167	0,5	0,689150
11,683500	0,5	0,720150
11,691833	0,5	0,750700
11,700167	0,5	0,769150
11,708500	0,5	0,780500
11,716833	0,5	0,774850
11,725167	0,5	0,761350
11,733500	0,5	0,736500
11,741833	0,5	0,703200
11,750167	0,5	0,677000
11,758500	0,5	0,654300
11,766833	0,5	0,629950
11,775167	0,5	0,615050
11,783500	0,5	0,604050
11,791833	0,5	0,603850
11,800167	0,5	0,608150
11,808500	0,5	0,611400
11,816833	0,5	0,617900
11,825167	0,5	0,626350
11,833500	0,5	0,634750
11,841833	0,5	0,641750
11,850167	0,5	0,648400
11,858500	0,5	0,651200
11,866833	0,5	0,655950
11,875167	0,5	0,650400
11,883500	0,5	0,649450
11,891833	0,5	0,634050
11,900167	0,5	0,629550
11,908500	0,5	0,624050
11,916833	0,5	0,624750
11,925167	0,5	0,635650
11,933500	0,5	0,661900
11,941833	0,5	0,716300
11,950167	0,5	0,779900
11,958500	0,5	0,849600
11,966833	0,5	0,916750
11,975167	0,5	0,974950
11,983500	0,5	1,006400
11,991833	0,5	1,002900
12,000167	0,5	0,970750
12,008500	0,5	0,910400
12,016833	0,5	0,839800
12,025167	0,5	0,762400
12,033500	0,5	0,685500
12,041833	0,5	0,633000
12,050167	0,5	0,595000
12,058500	0,5	0,561300
12,066833	0,5	0,538000
12,075167	0,5	0,521500
12,083500	0,5	0,515200
12,091833	0,5	0,516000
12,100167	0,5	0,524950
12,108500	0,5	0,536250
12,116833	0,5	0,555800
12,125167	0,5	0,577300
12,133500	0,5	0,597550
12,141833	0,5	0,613050
12,150167	0,5	0,626700
12,158500	0,5	0,629500
12,166833	0,5	0,631800
12,175167	0,5	0,619550
12,183500	0,5	0,599650
12,191833	0,5	0,586400
12,200167	0,5	0,570500
12,208500	0,5	0,556350
12,216833	0,5	0,540900
12,225167	0,5	0,523550
12,233500	0,5	0,517700
12,241833	0,5	0,515950
12,250167	0,5	0,509050
12,258500	0,5	0,506250
12,266833	0,5	0,504000
12,275167	0,5	0,500800
12,283500	0,5	0,500700
12,291833	0,5	0,496450
12,300167	0,5	0,496200
12,308500	0,5	0,496050
12,316833	0,5	0,495550
12,325167	0,5	0,498700
12,333500	0,5	0,505550
12,341833	0,5	0,523650
12,350167	0,5	0,542500
12,358500	0,5	0,564700
12,366833	0,5	0,582450
12,375167	0,5	0,596900
12,383500	0,5	0,607100
12,391833	0,5	0,606700
12,400167	0,5	0,589200
12,408500	0,5	0,566650
12,416833	0,5	0,534150
12,425167	0,5	0,502200
12,433500	0,5	0,472050
12,441833	0,5	0,451400
12,450167	0,5	0,429250
12,458500	0,5	0,417350
12,466833	0,5	0,405700
12,475167	0,5	0,396100
12,483500	0,5	0,388150
12,491833	0,5	0,384750
12,500167	0,5	0,379400
12,508500	0,5	0,369200
12,516833	0,5	0,360450
12,525167	0,5	0,364250
12,533500	0,5	0,369100
12,541833	0,5	0,372350
12,550167	0,5	0,382700
12,558500	0,5	0,392250
12,566833	0,5	0,409850
12,575167	0,5	0,422900
12,583500	0,5	0,441600
12,591833	0,5	0,455250
12,600167	0,5	0,469950
12,608500	0,5	0,478900
12,616833	0,5	0,472950
12,625167	0,5	0,453250
12,633500	0,5	0,448350
12,641833	0,5	0,427000
12,650167	0,5	0,404050
12,658500	0,5	0,381650
12,666833	0,5	0,359800
12,675167	0,5	0,348250
12,683500	0,5	0,337300
12,691833	0,5	0,336500
12,700167	0,5	0,329050
12,708500	0,5	0,322950
12,716833	0,5	0,320300
12,725167	0,5	0,320700
12,733500	0,5	0,317900
12,741833	0,5	0,318200
12,750167	0,5	0,317950
12,758500	0,5	0,325000
12,766833	0,5	0,328700
12,775167	0,5	0,327000
12,783500	0,5	0,342250
12,791833	0,5	0,354250
12,800167	0,5	0,363750
12,808500	0,5	0,366900
12,816833	0,5	0,364550
12,825167	0,5	0,367000
12,833500	0,5	0,369350
12,841833	0,5	0,364050
12,850167	0,5	0,361150
12,858500	0,5	0,364000
12,866833	0,5	0,373750
12,875167	0,5	0,392650
12,883500	0,5	0,427300
12,891833	0,5	0,473400
12,900167	0,5	0,527550
12,908500	0,5	0,580150
12,916833	0,5	0,625600
12,925167	0,5	0,637950
12,933500	0,5	0,646250
12,941833	0,5	0,617400
12,950167	0,5	0,581500
12,958500	0,5	0,535250
12,966833	0,5	0,491300
12,975167	0,5	0,457750
12,983500	0,5	0,428300
12,991833	0,5	0,404750
13,000167	0,5	0,396350
13,008500	0,5	0,400900
13,016833	0,5	0,409750
13,025167	0,5	0,434000
13,033500	0,5	0,445350
13,041833	0,5	0,458900
13,050167	0,5	0,455750
13,058500	0,5	0,443250
13,066833	0,5	0,411750
13,075167	0,5	0,381900
13,083500	0,5	0,351850
13,091833	0,5	0,315800
13,100167	0,5	0,285550
13,108500	0,5	0,260150
13,116833	0,5	0,245500
13,125167	0,5	0,238350
13,133500	0,5	0,235700
13,141833	0,5	0,236250
13,150167	0,5	0,243750
13,158500	0,5	0,259500
13,166833	0,5	0,279750
13,175167	0,5	0,312700
13,183500	0,5	0,352700
13,191833	0,5	0,396600
13,200167	0,5	0,435950
13,208500	0,5	0,456450
13,216833	0,5	0,458050
13,225167	0,5	0,449750
13,233500	0,5	0,425450
13,241833	0,5	0,386100
13,250167	0,5	0,347700
13,258500	0,5	0,310700
13,266833	0,5	0,294500
13,275167	0,5	0,279500
13,283500	0,5	0,283300
13,291833	0,5	0,284450
13,300167	0,5	0,290700
13,308500	0,5	0,299650
13,316833	0,5	0,316600
13,325167	0,5	0,326250
13,333500	0,5	0,324800
13,341833	0,5	0,322200
13,350167	0,5	0,312450
13,358500	0,5	0,288350
13,366833	0,5	0,275750
13,375167	0,5	0,269700
13,383500	0,5	0,236450
13,391833	0,5	0,124450
13,400167	0,5	-0,087100
13,408500	0,5	-0,312700
13,416833	0,5	-0,496200
13,425167	0,5	-0,613900
13,433500	0,5	-0,683600
13,441833	0,5	-0,716750
13,450167	0,5	-0,735550
13,458500	0,5	-0,744850
13,466833	0,5	-0,756400
13,475167	0,5	-0,767300
13,483500	0,5	-0,779700
13,491833	0,5	-0,789550
13,500167	0,5	-0,795350
13,508500	0,5	-0,808950
13,516833	0,5	-0,808050
13,525167	0,5	-0,810650
13,533500	0,5	-0,808750
13,541833	0,5	-0,810850
13,550167	0,5	-0,819150
13,558500	0,5	-0,810550
13,566833	0,5	-0,797100
13,575167	0,5	-0,794350
13,583500	0,5	-0,782950
13,591833	0,5	-0,776500
13,600167	0,5	-0,769300
13,608500	0,5	-0,764950
13,616833	0,5	-0,758250
13,625167	0,5	-0,760150
13,633500	0,5	-0,748750
13,641833	0,5	-0,740950
13,650167	0,5	-0,734600
13,658500	0,5	-0,739350
13,666833	0,5	-0,725500
13,675167	0,5	-0,728250
13,683500	0,5	-0,728900
13,691833	0,5	-0,737850
13,700167	0,5	-0,748000
13,708500	0,5	-0,743050
13,716833	0,5	-0,745200
13,725167	0,5	-0,745250
13,733500	0,5	-0,743950
13,741833	0,5	-0,741200
13,750167	0,5	-0,736200
13,758500	0,5	-0,732150
13,766833	0,5	-0,725800
13,775167	0,5	-0,719500
13,783500	0,5	-0,719650
13,791833	0,5	-0,709350
13,800167	0,5	-0,706300
13,808500	0,5	-0,711750
13,816833	0,5	-0,704800
13,825167	0,5	-0,705100
13,833500	0,5	-0,707400
13,841833	0,5	-0,710500
13,850167	0,5	-0,713700
13,858500	0,5	-0,704850
13,866833	0,5	-0,703050
13,875167	0,5	-0,696050
13,883500	0,5	-0,691850
13,891833	0,5	-0,679100
13,900167	0,5	-0,669700
13,908500	0,5	-0,661450
13,916833	0,5	-0,653950
13,925167	0,5	-0,651700
13,933500	0,5	-0,637100
13,941833	0,5	-0,623700
13,950167	0,5	-0,620950
13,958500	0,5	-0,614400
13,966833	0,5	-0,596500
13,975167	0,5	-0,588500
13,983500	0,5	-0,580550
13,991833	0,5	-0,578250
14,000167	0,5	-0,572850
14,008500	0,5	-0,557150
14,016833	0,5	-0,548250
14,025167	0,5	-0,538650
14,033500	0,5	-0,526150
14,041833	0,5	-0,512000
14,050167	0,5	-0,496700
14,058500	0,5	-0,483000
14,066833	0,5	-0,472750
14,075167	0,5	-0,458600
14,083500	0,5	-0,446250
14,091833	0,5	-0,429200
14,100167	0,5	-0,420000
14,108500	0,5	-0,400450
14,116833	0,5	-0,380750
14,125167	0,5	-0,371850
14,133500	0,5	-0,362250
14,141833	0,5	-0,350950
14,150167	0,5	-0,340450
14,158500	0,5	-0,318950
14,166833	0,5	-0,309650
14,175167	0,5	-0,290150
14,183500	0,5	-0,277250
14,191833	0,5	-0,261200
14,200167	0,5	-0,244750
14,208500	0,5	-0,230400
14,216833	0,5	-0,217300
14,225167	0,5	-0,205850
14,233500	0,5	-0,188100
14,241833	0,5	-0,180850
14,250167	0,5	-0,182650
14,258500	0,5	-0,167850
14,266833	0,5	-0,157650
14,275167	0,5	-0,154450
14,283500	0,5	-0,155550
14,291833	0,5	-0,154250
14,300167	0,5	-0,148500
14,308500	0,5	-0,146600
14,316833	0,5	-0,141500
14,325167	0,5	-0,140250
14,333500	0,5	-0,133550
14,341833	0,5	-0,135150
14,350167	0,5	-0,130250
14,358500	0,5	-0,127500
14,366833	0,5	-0,129800
14,375167	0,5	-0,126500
14,383500	0,5	-0,122000
14,391833	0,5	-0,131850
14,400167	0,5	-0,127500
14,408500	0,5	-0,120800
14,416833	0,5	-0,121000
14,425167	0,5	-0,121550
14,433500	0,5	-0,129200
14,441833	0,5	-0,120450
14,450167	0,5	-0,107600
14,458500	0,5	-0,096850
14,466833	0,5	-0,095050
14,475167	0,5	-0,085850
14,483500	0,5	-0,088700
14,491833	0,5	-0,090850
14,500167	0,5	-0,098450
14,508500	0,5	-0,107550
14,516833	0,5	-0,125150
14,525167	0,5	-0,135150
14,533500	0,5	-0,142900
14,541833	0,5	-0,162050
14,550167	0,5	-0,161200
14,558500	0,5	-0,163750
14,566833	0,5	-0,170000
14,575167	0,5	-0,175000
14,583500	0,5	-0,191900
14,591833	0,5	-0,191650
14,600167	0,5	-0,188050
14,608500	0,5	-0,188850
14,616833	0,5	-0,191150
14,625167	0,5	-0,194300
14,633500	0,5	-0,198500
14,641833	0,5	-0,204950
14,650167	0,5	-0,204150
14,658500	0,5	-0,218000
14,666833	0,5	-0,219250
14,675167	0,5	-0,219350
14,683500	0,5	-0,221600
14,691833	0,5	-0,242750
14,700167	0,5	-0,234850
14,708500	0,5	-0,239100
14,716833	0,5	-0,245500
14,725167	0,5	-0,257100
14,733500	0,5	-0,267700
14,741833	0,5	-0,260700
14,750167	0,5	-0,263350
14,758500	0,5	-0,269350
14,766833	0,5	-0,274250
14,775167	0,5	-0,276000
14,783500	0,5	-0,279350
14,791833	0,5	-0,280250
14,800167	0,5	-0,287150
14,808500	0,5	-0,283050
14,816833	0,5	-0,286550
14,825167	0,5	-0,280600
14,833500	0,5	-0,288350
14,841833	0,5	-0,293850
14,850167	0,5	-0,286400
14,858500	0,5	-0,285800
14,866833	0,5	-0,293100
14,875167	0,5	-0,299100
14,883500	0,5	-0,308450
14,891833	0,5	-0,304650
14,900167	0,5	-0,306450
14,908500	0,5	-0,303950
14,916833	0,5	-0,308200
14,925167	0,5	-0,310400
14,933500	0,5	-0,310750
14,941833	0,5	-0,309650
14,950167	0,5	-0,315100
14,958500	0,5	-0,322900
14,966833	0,5	-0,322650
14,975167	0,5	-0,325200
14,983500	0,5	-0,337150
14,991833	0,5	-0,330700
15,000167	0,5	-0,330150
15,008500	0,5	-0,338050
15,016833	0,5	-0,340750
15,025167	0,5	-0,352550
15,033500	0,5	-0,347800
15,041833	0,5	-0,345950
15,050167	0,5	-0,336800
15,058500	0,5	-0,340650
15,066833	0,5	-0,334950
15,075167	0,5	-0,336050
15,083500	0,5	-0,335950
15,091833	0,5	-0,337050
15,100167	0,5	-0,339300
15,108500	0,5	-0,337300
15,116833	0,5	-0,331050
15,125167	0,5	-0,317400
15,133500	0,5	-0,307050
15,141833	0,5	-0,282950
15,150167	0,5	-0,270750
15,158500	0,5	-0,271100
15,166833	0,5	-0,286850
15,175167	0,5	-0,309350
15,183500	0,5	-0,329250
15,191833	0,5	-0,339750
15,200167	0,5	-0,357800
15,208500	0,5	-0,365750
15,216833	0,5	-0,371500
15,225167	0,5	-0,367500
15,233500	0,5	-0,364450
15,241833	0,5	-0,355850
15,250167	0,5	-0,352000
15,258500	0,5	-0,347200
15,266833	0,5	-0,346750
15,275167	0,5	-0,363550
15,283500	0,5	-0,380250
15,291833	0,5	-0,391450
15,300167	0,5	-0,401500
15,308500	0,5	-0,415350
15,316833	0,5	-0,437000
15,325167	0,5	-0,444000
15,333500	0,5	-0,435000
15,341833	0,5	-0,431850
15,350167	0,5	-0,426250
15,358500	0,5	-0,424600
15,366833	0,5	-0,423000
15,375167	0,5	-0,429700
15,383500	0,5	-0,428600
15,391833	0,5	-0,439600
15,400167	0,5	-0,449050
15,408500	0,5	-0,454950
15,416833	0,5	-0,460100
15,425167	0,5	-0,486600
15,433500	0,5	-0,479050
15,441833	0,5	-0,484400
15,450167	0,5	-0,483550
15,458500	0,5	-0,489200
15,466833	0,5	-0,500750
15,475167	0,5	-0,489900
15,483500	0,5	-0,491550
15,491833	0,5	-0,487850
15,500167	0,5	-0,491050
15,508500	0,5	-0,491200
15,516833	0,5	-0,492650
15,525167	0,5	-0,488550
15,533500	0,5	-0,490450
15,541833	0,5	-0,485650
15,550167	0,5	-0,485750
15,558500	0,5	-0,482450
15,566833	0,5	-0,490300
15,575167	0,5	-0,511200
15,583500	0,5	-0,510450
15,591833	0,5	-0,516500
15,600167	0,5	-0,529450
15,608500	0,5	-0,540400
15,616833	0,5	-0,563700
15,625167	0,5	-0,560150
15,633500	0,5	-0,561450
15,641833	0,5	-0,567900
15,650167	0,5	-0,569600
15,658500	0,5	-0,569600
15,666833	0,5	-0,568350
15,675167	0,5	-0,566700
15,683500	0,5	-0,566400
15,691833	0,5	-0,572800
15,700167	0,5	-0,569150
15,708500	0,5	-0,568750
15,716833	0,5	-0,570250
15,725167	0,5	-0,582850
15,733500	0,5	-0,571100
15,741833	0,5	-0,575050
15,750167	0,5	-0,580850
15,758500	0,5	-0,593050
15,766833	0,5	-0,601700
15,775167	0,5	-0,594200
15,783500	0,5	-0,592850
15,791833	0,5	-0,595050
15,800167	0,5	-0,599300
15,808500	0,5	-0,597800
15,816833	0,5	-0,603950
15,825167	0,5	-0,602200
15,833500	0,5	-0,609050
15,841833	0,5	-0,611550
15,850167	0,5	-0,612050
15,858500	0,5	-0,607050
15,866833	0,5	-0,614400
15,875167	0,5	-0,616000
15,883500	0,5	-0,612500
15,891833	0,5	-0,611350
15,900167	0,5	-0,626800
15,908500	0,5	-0,640650
15,916833	0,5	-0,651350
15,925167	0,5	-0,650450
15,933500	0,5	-0,656150
15,941833	0,5	-0,658600
15,950167	0,5	-0,662600
15,958500	0,5	-0,665400
15,966833	0,5	-0,666550
15,975167	0,5	-0,668700
15,983500	0,5	-0,669100
15,991833	0,5	-0,669150
16,000167	0,5	-0,656900
16,008500	0,5	-0,661650
16,016833	0,5	-0,669950
16,025167	0,5	-0,670900
16,033500	0,5	-0,667700
16,041833	0,5	-0,678450
16,050167	0,5	-0,683400
16,058500	0,5	-0,703350
16,066833	0,5	-0,696850
16,075167	0,5	-0,701400
16,083500	0,5	-0,696600
16,091833	0,5	-0,696650
16,100167	0,5	-0,691650
16,108500	0,5	-0,691150
16,116833	0,5	-0,686650
16,125167	0,5	-0,688550
16,133500	0,5	-0,690800
16,141833	0,5	-0,685250
16,150167	0,5	-0,681850
16,158500	0,5	-0,688550
16,166833	0,5	-0,701100
16,175167	0,5	-0,699400
16,183500	0,5	-0,704000
16,191833	0,5	-0,707050
16,200167	0,5	-0,725600
16,208500	0,5	-0,733950
16,216833	0,5	-0,736900
16,225167	0,5	-0,730900
16,233500	0,5	-0,735750
16,241833	0,5	-0,735550
16,250167	0,5	-0,739950
16,258500	0,5	-0,740500
16,266833	0,5	-0,740100
16,275167	0,5	-0,736700
16,283500	0,5	-0,737450
16,291833	0,5	-0,738800
16,300167	0,5	-0,737600
16,308500	0,5	-0,749000
16,316833	0,5	-0,748000
16,325167	0,5	-0,746000
16,333500	0,5	-0,753350
16,341833	0,5	-0,761500
16,350167	0,5	-0,781300
16,358500	0,5	-0,787350
16,366833	0,5	-0,785750
16,375167	0,5	-0,793350
16,383500	0,5	-0,788350
16,391833	0,5	-0,798250
16,400167	0,5	-0,795700
16,408500	0,5	-0,801750
16,416833	0,5	-0,802100
16,425167	0,5	-0,805800
16,433500	0,5	-0,808850
16,441833	0,5	-0,803150
16,450167	0,5	-0,804350
16,458500	0,5	-0,823400
16,466833	0,5	-0,812550
16,475167	0,5	-0,814400
16,483500	0,5	-0,822350
16,491833	0,5	-0,833600
16,500167	0,5	-0,848400
16,508500	0,5	-0,835250
16,516833	0,5	-0,846050
16,525167	0,5	-0,848950
16,533500	0,5	-0,856650
16,541833	0,5	-0,854600
16,550167	0,5	-0,858900
16,558500	0,5	-0,853950
16,566833	0,5	-0,855400
16,575167	0,5	-0,855850
16,583500	0,5	-0,857700
16,591833	0,5	-0,849200
16,600167	0,5	-0,858300
16,608500	0,5	-0,866000
16,616833	0,5	-0,855200
16,625167	0,5	-0,854900
16,633500	0,5	-0,859100
16,641833	0,5	-0,867300
16,650167	0,5	-0,878000
16,658500	0,5	-0,874750
16,666833	0,5	-0,870100
16,675167	0,5	-0,875500
16,683500	0,5	-0,871450
16,691833	0,5	-0,872050
16,700167	0,5	-0,875200
16,708500	0,5	-0,876350
16,716833	0,5	-0,872400
16,725167	0,5	-0,880600
16,733500	0,5	-0,878950
16,741833	0,5	-0,876650
16,750167	0,5	-0,884850
16,758500	0,5	-0,885600
16,766833	0,5	-0,878150
16,775167	0,5	-0,881700
16,783500	0,5	-0,885400
16,791833	0,5	-0,902000
16,800167	0,5	-0,902750
16,808500	0,5	-0,896700
16,816833	0,5	-0,896750
16,825167	0,5	-0,902450
16,833500	0,5	-0,903300
16,841833	0,5	-0,902350
16,850167	0,5	-0,904850
16,858500	0,5	-0,905050
16,866833	0,5	-0,908650
16,875167	0,5	-0,912100
16,883500	0,5	-0,910600
16,891833	0,5	-0,909600
16,900167	0,5	-0,923100
16,908500	0,5	-0,911200
16,916833	0,5	-0,915400
16,925167	0,5	-0,915900
16,933500	0,5	-0,928550
16,941833	0,5	-0,935150
16,950167	0,5	-0,935800
16,958500	0,5	-0,930800
16,966833	0,5	-0,929300
16,975167	0,5	-0,925150
16,983500	0,5	-0,925950
16,991833	0,5	-0,920900
17,000167	0,5	-0,913900
17,008500	0,5	-0,913600
17,016833	0,5	-0,910600
17,025167	0,5	-0,912350
17,033500	0,5	-0,899900
17,041833	0,5	-0,905800
17,050167	0,5	-0,912750
17,058500	0,5	-0,903250
17,066833	0,5	-0,900800
17,075167	0,5	-0,904400
17,083500	0,5	-0,911200
17,091833	0,5	-0,924600
17,100167	0,5	-0,915400
17,108500	0,5	-0,913500
17,116833	0,5	-0,902750
17,125167	0,5	-0,904000
17,133500	0,5	-0,897850
17,141833	0,5	-0,894500
17,150167	0,5	-0,888450
17,158500	0,5	-0,888450
17,166833	0,5	-0,890250
17,175167	0,5	-0,885200
17,183500	0,5	-0,887500
17,191833	0,5	-0,904200
17,200167	0,5	-0,909350
17,208500	0,5	-0,907950
17,216833	0,5	-0,917500
17,225167	0,5	-0,923200
17,233500	0,5	-0,942600
17,241833	0,5	-0,939200
17,250167	0,5	-0,940550
17,258500	0,5	-0,937100
17,266833	0,5	-0,936800
17,275167	0,5	-0,930150
17,283500	0,5	-0,934700
17,291833	0,5	-0,929650
17,300167	0,5	-0,925350
17,308500	0,5	-0,922950
17,316833	0,5	-0,920400
17,325167	0,5	-0,914900
17,333500	0,5	-0,911550
17,341833	0,5	-0,919200
17,350167	0,5	-0,907700
17,358500	0,5	-0,905000
17,366833	0,5	-0,907550
17,375167	0,5	-0,914250
17,383500	0,5	-0,926000
17,391833	0,5	-0,924600
17,400167	0,5	-0,915400
17,408500	0,5	-0,920200
17,416833	0,5	-0,911800
17,425167	0,5	-0,910300
17,433500	0,5	-0,904650
17,441833	0,5	-0,905350
17,450167	0,5	-0,899250
17,458500	0,5	-0,899000
17,466833	0,5	-0,899300
17,475167	0,5	-0,885650
17,483500	0,5	-0,887000
17,491833	0,5	-0,899400
17,500167	0,5	-0,889950
17,508500	0,5	-0,885550
17,516833	0,5	-0,893400
17,525167	0,5	-0,900200
17,533500	0,5	-0,906300
17,541833	0,5	-0,892050
17,550167	0,5	-0,894100
17,558500	0,5	-0,886650
17,566833	0,5	-0,892550
17,575167	0,5	-0,883150
17,583500	0,5	-0,885850
17,591833	0,5	-0,876150
17,600167	0,5	-0,877500
17,608500	0,5	-0,872850
17,616833	0,5	-0,870500
17,625167	0,5	-0,859100
17,633500	0,5	-0,866850
17,641833	0,5	-0,860450
17,650167	0,5	-0,853000
17,658500	0,5	-0,848900
17,666833	0,5	-0,853050
17,675167	0,5	-0,862250
17,683500	0,5	-0,857100
17,691833	0,5	-0,854600
17,700167	0,5	-0,849700
17,708500	0,5	-0,855600
17,716833	0,5	-0,850450
17,725167	0,5	-0,851800
17,733500	0,5	-0,851950
17,741833	0,5	-0,853150
17,750167	0,5	-0,846500
17,758500	0,5	-0,848950
17,766833	0,5	-0,845000
17,775167	0,5	-0,845300
17,783500	0,5	-0,853700
17,791833	0,5	-0,848550
17,800167	0,5	-0,846650
17,808500	0,5	-0,851300
17,816833	0,5	-0,859850
17,825167	0,5	-0,874450
17,833500	0,5	-0,871750
17,841833	0,5	-0,867200
17,850167	0,5	-0,866750
17,858500	0,5	-0,869100
17,866833	0,5	-0,869750
17,875167	0,5	-0,868100
17,883500	0,5	-0,868850
17,891833	0,5	-0,869850
17,900167	0,5	-0,872800
17,908500	0,5	-0,868250
17,916833	0,5	-0,873050
17,925167	0,5	-0,872300
17,933500	0,5	-0,886950
17,941833	0,5	-0,875750
17,950167	0,5	-0,878850
17,958500	0,5	-0,880850
17,966833	0,5	-0,894950
17,975167	0,5	-0,909200
17,983500	0,5	-0,905800
17,991833	0,5	-0,908700
18,000167	0,5	-0,911550
18,008500	0,5	-0,910500
18,016833	0,5	-0,914850
18,025167	0,5	-0,916200
18,033500	0,5	-0,916100
18,041833	0,5	-0,918650
18,050167	0,5	-0,925200
18,058500	0,5	-0,924350
18,066833	0,5	-0,919900
18,075167	0,5	-0,935000
18,083500	0,5	-0,932550
18,091833	0,5	-0,932500
18,100167	0,5	-0,940000
18,108500	0,5	-0,950150
18,116833	0,5	-0,964350
18,125167	0,5	-0,974550
18,133500	0,5	-0,971750
18,141833	0,5	-0,975350
18,150167	0,5	-0,974550
18,158500	0,5	-0,977750
18,166833	0,5	-0,982100
18,175167	0,5	-0,982800
18,183500	0,5	-0,985900
18,191833	0,5	-0,989000
18,200167	0,5	-0,992450
18,208500	0,5	-0,986650
18,216833	0,5	-1,000250
18,225167	0,5	-1,016800
18,233500	0,5	-1,010950
18,241833	0,5	-1,005850
18,250167	0,5	-1,019350
18,258500	0,5	-1,027700
18,266833	0,5	-1,046950
18,275167	0,5	-1,043150
18,283500	0,5	-1,050300
18,291833	0,5	-1,048900
18,300167	0,5	-1,057050
18,308500	0,5	-1,058250
18,316833	0,5	-1,067100
18,325167	0,5	-1,064700
18,333500	0,5	-1,067150
18,341833	0,5	-1,073250
18,350167	0,5	-1,079800
18,358500	0,5	-1,078250
18,366833	0,5	-1,090300
18,375167	0,5	-1,102550
18,383500	0,5	-1,095350
18,391833	0,5	-1,098600
18,400167	0,5	-1,107000
18,408500	0,5	-1,124450
18,416833	0,5	-1,134800
18,425167	0,5	-1,134950
18,433500	0,5	-1,135800
18,441833	0,5	-1,146150
18,450167	0,5	-1,143000
18,458500	0,5	-1,153950
18,466833	0,5	-1,156400
18,475167	0,5	-1,155900
18,483500	0,5	-1,162800
18,491833	0,5	-1,164800
18,500167	0,5	-1,173950
18,508500	0,5	-1,168750
18,516833	0,5	-1,185650
18,525167	0,5	-1,179550
18,533500	0,5	-1,180150
18,541833	0,5	-1,181800
18,550167	0,5	-1,192800
18,558500	0,5	-1,210250
18,566833	0,5	-1,207000
18,575167	0,5	-1,201150
18,583500	0,5	-1,208350
18,591833	0,5	-1,209400
18,600167	0,5	-1,214850
18,608500	0,5	-1,215200
18,616833	0,5	-1,215950
18,625167	0,5	-1,217400
18,633500	0,5	-1,222300
18,641833	0,5	-1,223000
18,650167	0,5	-1,221300
18,658500	0,5	-1,217400
18,666833	0,5	-1,236650
18,675167	0,5	-1,220500
18,683500	0,5	-1,224650
18,691833	0,5	-1,229350
18,700167	0,5	-1,235000
18,708500	0,5	-1,257300
18,716833	0,5	-1,245750
18,725167	0,5	-1,252250
18,733500	0,5	-1,250150
18,741833	0,5	-1,254300
18,750167	0,5	-1,251950
18,758500	0,5	-1,260150
18,766833	0,5	-1,260450
18,775167	0,5	-1,269550
18,783500	0,5	-1,278950
18,791833	0,5	-1,285250
18,800167	0,5	-1,284800
18,808500	0,5	-1,295000
18,816833	0,5	-1,304800
18,825167	0,5	-1,302600
18,833500	0,5	-1,308700
18,841833	0,5	-1,317100
18,850167	0,5	-1,337000
18,858500	0,5	-1,349950
18,866833	0,5	-1,353500
18,875167	0,5	-1,349400
18,883500	0,5	-1,352450
18,891833	0,5	-1,356450
18,900167	0,5	-1,363650
18,908500	0,5	-1,362800
18,916833	0,5	-1,368150
18,925167	0,5	-1,362550
18,933500	0,5	-1,369800
18,941833	0,5	-1,366250
18,950167	0,5	-1,363900
18,958500	0,5	-1,372650
18,966833	0,5	-1,377050
18,975167	0,5	-1,368800
18,983500	0,5	-1,374350
18,991833	0,5	-1,380000
19,000167	0,5	-1,393600
19,008500	0,5	-1,401000
19,016833	0,5	-1,393500
19,025167	0,5	-1,395600
19,033500	0,5	-1,395150
19,041833	0,5	-1,393900
19,050167	0,5	-1,391850
19,058500	0,5	-1,396900
19,066833	0,5	-1,392500
19,075167	0,5	-1,399600
19,083500	0,5	-1,406950
19,091833	0,5	-1,406200
19,100167	0,5	-1,416450
19,108500	0,5	-1,431250
19,116833	0,5	-1,424350
19,125167	0,5	-1,427650
19,133500	0,5	-1,434000
19,141833	0,5	-1,451350
19,150167	0,5	-1,462450
19,158500	0,5	-1,460450
19,166833	0,5	-1,459150
19,175167	0,5	-1,455500
19,183500	0,5	-1,459550
19,191833	0,5	-1,459100
19,200167	0,5	-1,461650
19,208500	0,5	-1,463200
19,216833	0,5	-1,474350
19,225167	0,5	-1,479700
19,233500	0,5	-1,485200
19,241833	0,5	-1,479150
19,250167	0,5	-1,497650
19,258500	0,5	-1,502500
19,266833	0,5	-1,504050
19,275167	0,5	-1,509700
19,283500	0,5	-1,521650
19,291833	0,5	-1,538850
19,300167	0,5	-1,548550
19,308500	0,5	-1,548050
19,316833	0,5	-1,554800
19,325167	0,5	-1,556150
19,333500	0,5	-1,561450
19,341833	0,5	-1,563350
19,350167	0,5	-1,567250
19,358500	0,5	-1,568600
19,366833	0,5	-1,566200
19,375167	0,5	-1,574350
19,383500	0,5	-1,560900
19,391833	0,5	-1,555050
19,400167	0,5	-1,568300
19,408500	0,5	-1,546950
19,416833	0,5	-1,533600
19,425167	0,5	-1,527900
19,433500	0,5	-1,519350
19,441833	0,5	-1,539300
19,450167	0,5	-1,536900
19,458500	0,5	-1,553600
19,466833	0,5	-1,568750
19,475167	0,5	-1,589650
19,483500	0,5	-1,602750
19,491833	0,5	-1,610850
19,500167	0,5	-1,624300
19,508500	0,5	-1,626150
19,516833	0,5	-1,635250
19,525167	0,5	-1,635950
19,533500	0,5	-1,629850
19,541833	0,5	-1,630150
19,550167	0,5	-1,647600
19,558500	0,5	-1,632400
19,566833	0,5	-1,637050
19,575167	0,5	-1,639400
19,583500	0,5	-1,651100
19,591833	0,5	-1,659550
19,600167	0,5	-1,651500
19,608500	0,5	-1,645500
19,616833	0,5	-1,657650
19,625167	0,5	-1,659150
19,633500	0,5	-1,671200
19,641833	0,5	-1,672200
19,650167	0,5	-1,673150
19,658500	0,5	-1,681150
19,666833	0,5	-1,679650
19,675167	0,5	-1,685300
19,683500	0,5	-1,673650
19,691833	0,5	-1,680200
19,700167	0,5	-1,683500
19,708500	0,5	-1,674250
19,716833	0,5	-1,671350
19,725167	0,5	-1,673950
19,733500	0,5	-1,670300
19,741833	0,5	-1,668050
19,750167	0,5	-1,645600
19,758500	0,5	-1,639650
19,766833	0,5	-1,633850
19,775167	0,5	-1,641450
19,783500	0,5	-1,646300
19,791833	0,5	-1,662350
19,800167	0,5	-1,672400
19,808500	0,5	-1,684600
19,816833	0,5	-1,696150
19,825167	0,5	-1,694050
19,833500	0,5	-1,697500
19,841833	0,5	-1,715850
19,850167	0,5	-1,712150
19,858500	0,5	-1,716050
19,866833	0,5	-1,723000
19,875167	0,5	-1,733050
19,883500	0,5	-1,754700
19,891833	0,5	-1,756500
19,900167	0,5	-1,760450
19,908500	0,5	-1,754200
19,916833	0,5	-1,764450
19,925167	0,5	-1,757600
19,933500	0,5	-1,766050
19,941833	0,5	-1,766200
19,950167	0,5	-1,772400
19,958500	0,5	-1,775400
19,966833	0,5	-1,774000
19,975167	0,5	-1,770750
19,983500	0,5	-1,783050
19,991833	0,5	-1,791050
20,000167	0,5	-1,785100
20,008500	0,5	-1,786550
20,016833	0,5	-1,787900
20,025167	0,5	-1,807750
20,033500	0,5	-1,813400
20,041833	0,5	-1,812350
20,050167	0,5	-1,804100
20,058500	0,5	-1,806800
20,066833	0,5	-1,800800
20,075167	0,5	-1,805400
20,083500	0,5	-1,800700
20,091833	0,5	-1,800800
20,100167	0,5	-1,799100
20,108500	0,5	-1,801250
20,116833	0,5	-1,795100
20,125167	0,5	-1,792200
20,133500	0,5	-1,800000
20,141833	0,5	-1,797850
20,150167	0,5	-1,786300
20,158500	0,5	-1,790800
20,166833	0,5	-1,796600
20,175167	0,5	-1,812350
20,183500	0,5	-1,817900
20,191833	0,5	-1,809800
20,200167	0,5	-1,814400
20,208500	0,5	-1,806150
20,216833	0,5	-1,812950
20,225167	0,5	-1,805400
20,233500	0,5	-1,810700
20,241833	0,5	-1,808350
20,250167	0,5	-1,810100
20,258500	0,5	-1,812100
20,266833	0,5	-1,796050
20,275167	0,5	-1,798150
20,283500	0,5	-1,815550
20,291833	0,5	-1,803000
20,300167	0,5	-1,799550
20,308500	0,5	-1,808150
20,316833	0,5	-1,817250
20,325167	0,5	-1,836600
20,333500	0,5	-1,823250
20,341833	0,5	-1,823250
20,350167	0,5	-1,820400
20,358500	0,5	-1,824850
20,366833	0,5	-1,814750
20,375167	0,5	-1,819500
20,383500	0,5	-1,807700
20,391833	0,5	-1,807450
20,400167	0,5	-1,804150
20,408500	0,5	-1,797950
20,416833	0,5	-1,779000
20,425167	0,5	-1,786650
20,433500	0,5	-1,782650
20,441833	0,5	-1,777350
20,450167	0,5	-1,770700
20,458500	0,5	-1,778050
20,466833	0,5	-1,795500
20,475167	0,5	-1,797400
20,483500	0,5	-1,794850
20,491833	0,5	-1,794100
20,500167	0,5	-1,801700
20,508500	0,5	-1,796250
20,516833	0,5	-1,802550
20,525167	0,5	-1,798250
20,533500	0,5	-1,802350
20,541833	0,5	-1,799950
20,550167	0,5	-1,799000
20,558500	0,5	-1,789750
20,566833	0,5	-1,781200
20,575167	0,5	-1,789900
20,583500	0,5	-1,785950
20,591833	0,5	-1,786650
20,600167	0,5	-1,793950
20,608500	0,5	-1,806900
20,616833	0,5	-1,819650
20,625167	0,5	-1,817200
20,633500	0,5	-1,811250
20,641833	0,5	-1,812800
20,650167	0,5	-1,812900
20,658500	0,5	-1,817600
20,666833	0,5	-1,815600
20,675167	0,5	-1,821550
20,683500	0,5	-1,817000
20,691833	0,5	-1,822150
20,700167	0,5	-1,818200
20,708500	0,5	-1,802500
20,716833	0,5	-1,801000
20,725167	0,5	-1,813950
20,733500	0,5	-1,805900
20,741833	0,5	-1,813950
20,750167	0,5	-1,813850
20,758500	0,5	-1,829500
20,766833	0,5	-1,840250
20,775167	0,5	-1,833550
20,783500	0,5	-1,835100
20,791833	0,5	-1,833600
20,800167	0,5	-1,835550
20,808500	0,5	-1,827350
20,816833	0,5	-1,829750
20,825167	0,5	-1,821100
20,833500	0,5	-1,825850
20,841833	0,5	-1,820350
20,850167	0,5	-1,805350
20,858500	0,5	-1,788500
20,866833	0,5	-1,791650
20,875167	0,5	-1,792050
20,883500	0,5	-1,790150
20,891833	0,5	-1,791600
20,900167	0,5	-1,805000
20,908500	0,5	-1,815650
20,916833	0,5	-1,822450
20,925167	0,5	-1,817350
20,933500	0,5	-1,803600
20,941833	0,5	-1,804050
20,950167	0,5	-1,794000
20,958500	0,5	-1,796050
20,966833	0,5	-1,783150
20,975167	0,5	-1,783350
20,983500	0,5	-1,779750
20,991833	0,5	-1,779750
21,000167	0,5	-1,751950
21,008500	0,5	-1,736800
21,016833	0,5	-1,741600
21,025167	0,5	-1,742100
21,033500	0,5	-1,739850
21,041833	0,5	-1,749300
21,050167	0,5	-1,759900
21,058500	0,5	-1,763050
21,066833	0,5	-1,761400
21,075167	0,5	-1,754100
21,083500	0,5	-1,750700
21,091833	0,5	-1,749500
21,100167	0,5	-1,745700
21,108500	0,5	-1,741800
21,116833	0,5	-1,732600
21,125167	0,5	-1,724550
21,133500	0,5	-1,720000
21,141833	0,5	-1,699900
21,150167	0,5	-1,679800
21,158500	0,5	-1,668000
21,166833	0,5	-1,671100
21,175167	0,5	-1,662950
21,183500	0,5	-1,663750
21,191833	0,5	-1,663650
21,200167	0,5	-1,682650
21,208500	0,5	-1,671000
21,216833	0,5	-1,662750
21,225167	0,5	-1,656000
21,233500	0,5	-1,651150
21,241833	0,5	-1,641450
21,250167	0,5	-1,633600
21,258500	0,5	-1,630950
21,266833	0,5	-1,621050
21,275167	0,5	-1,620000
21,283500	0,5	-1,604800
21,291833	0,5	-1,578900
21,300167	0,5	-1,556800
21,308500	0,5	-1,563950
21,316833	0,5	-1,557050
21,325167	0,5	-1,561550
21,333500	0,5	-1,559800
21,341833	0,5	-1,565650
21,350167	0,5	-1,572000
21,358500	0,5	-1,554950
21,366833	0,5	-1,554000
21,375167	0,5	-1,547750
21,383500	0,5	-1,545750
21,391833	0,5	-1,534450
21,400167	0,5	-1,532850
21,408500	0,5	-1,517750
21,416833	0,5	-1,514250
21,425167	0,5	-1,506650
21,433500	0,5	-1,497200
21,441833	0,5	-1,464900
21,450167	0,5	-1,453100
21,458500	0,5	-1,455800
21,466833	0,5	-1,449700
21,475167	0,5	-1,445300
21,483500	0,5	-1,448100
21,491833	0,5	-1,446750
21,500167	0,5	-1,441750
21,508500	0,5	-1,422300
21,516833	0,5	-1,408000
21,525167	0,5	-1,389650
21,533500	0,5	-1,364500
21,541833	0,5	-1,328500
21,550167	0,5	-1,288700
21,558500	0,5	-1,255300
21,566833	0,5	-1,231050
21,575167	0,5	-1,230900
21,583500	0,5	-1,213450
21,591833	0,5	-1,212550
21,600167	0,5	-1,226200
21,608500	0,5	-1,233200
21,616833	0,5	-1,237300
21,625167	0,5	-1,238300
21,633500	0,5	-1,244100
21,641833	0,5	-1,246350
21,650167	0,5	-1,231450
21,658500	0,5	-1,218400
21,666833	0,5	-1,207600
21,675167	0,5	-1,198950
21,683500	0,5	-1,184100
21,691833	0,5	-1,170450
21,700167	0,5	-1,157700
21,708500	0,5	-1,134350
21,716833	0,5	-1,121300
21,725167	0,5	-1,092700
21,733500	0,5	-1,053400
21,741833	0,5	-1,031700
21,750167	0,5	-1,023250
21,758500	0,5	-0,996500
21,766833	0,5	-0,990450
21,775167	0,5	-0,979850
21,783500	0,5	-0,976150
21,791833	0,5	-0,964700
21,800167	0,5	-0,943700
21,808500	0,5	-0,921600
21,816833	0,5	-0,898700
21,825167	0,5	-0,882650
21,833500	0,5	-0,861600
21,841833	0,5	-0,850650
21,850167	0,5	-0,830950
21,858500	0,5	-0,820600
21,866833	0,5	-0,806800
21,875167	0,5	-0,784900
21,883500	0,5	-0,752950
21,891833	0,5	-0,743200
21,900167	0,5	-0,716900
21,908500	0,5	-0,699300
21,916833	0,5	-0,682900
21,925167	0,5	-0,672600
21,933500	0,5	-0,655000
21,941833	0,5	-0,632850
21,950167	0,5	-0,605450
21,958500	0,5	-0,579850
21,966833	0,5	-0,551750
21,975167	0,5	-0,522300
21,983500	0,5	-0,499750
21,991833	0,5	-0,472500
22,000167	0,5	-0,454750
22,008500	0,5	-0,424900
22,016833	0,5	-0,401300
22,025167	0,5	-0,357650
22,033500	0,5	-0,344850
22,041833	0,5	-0,310300
22,050167	0,5	-0,274800
22,058500	0,5	-0,250450
22,066833	0,5	-0,225350
22,075167	0,5	-0,200950
22,083500	0,5	-0,167000
22,091833	0,5	-0,127050
22,100167	0,5	-0,086250
22,108500	0,5	-0,043850
22,116833	0,5	-0,002200
22,125167	0,5	0,038950
22,133500	0,5	0,079850
22,141833	0,5	0,116500
22,150167	0,5	0,152800
22,158500	0,5	0,182900
22,166833	0,5	0,221600
22,175167	0,5	0,250100
22,183500	0,5	0,277500
22,191833	0,5	0,325150
22,200167	0,5	0,370050
22,208500	0,5	0,406350
22,216833	0,5	0,445150
22,225167	0,5	0,469800
22,233500	0,5	0,523450
22,241833	0,5	0,568100
22,250167	0,5	0,614850
22,258500	0,5	0,659650
22,266833	0,5	0,706850
22,275167	0,5	0,752250
22,283500	0,5	0,789350
22,291833	0,5	0,835300
22,300167	0,5	0,870150
22,308500	0,5	0,915050
22,316833	0,5	0,950850
22,325167	0,5	1,000900
22,333500	0,5	1,049900
22,341833	0,5	1,123500
22,350167	0,5	1,175350
22,358500	0,5	1,226600
22,366833	0,5	1,266850
22,375167	0,5	1,316100
22,383500	0,5	1,379750
22,391833	0,5	1,436350
22,400167	0,5	1,487350
22,408500	0,5	1,544650
22,416833	0,5	1,600950
22,425167	0,5	1,653350
22,433500	0,5	1,714100
22,441833	0,5	1,766800
22,450167	0,5	1,828900
22,458500	0,5	1,864900
22,466833	0,5	1,924150
22,475167	0,5	1,972550
22,483500	0,5	2,062800
22,491833	0,5	2,122650
22,500167	0,5	2,184050
22,508500	0,5	2,234050
22,516833	0,5	2,283200
22,525167	0,5	2,348100
22,533500	0,5	2,404550
22,541833	0,5	2,462400
22,550167	0,5	2,519450
22,558500	0,5	2,569100
22,566833	0,5	2,612850
22,575167	0,5	2,662450
22,583500	0,5	2,700600
22,591833	0,5	2,736800
22,600167	0,5	2,763400
22,608500	0,5	2,760200
22,616833	0,5	2,789500
22,625167	0,5	2,815550
22,633500	0,5	2,849550
22,641833	0,5	2,855100
22,650167	0,5	2,853750
22,658500	0,5	2,837050
22,666833	0,5	2,809500
22,675167	0,5	2,808350
22,683500	0,5	2,787700
22,691833	0,5	2,762400
22,700167	0,5	2,731100
22,708500	0,5	2,695900
22,716833	0,5	2,656300
22,725167	0,5	2,609050
22,733500	0,5	2,560250
22,741833	0,5	2,492850
22,750167	0,5	2,412600
22,758500	0,5	2,300500
22,766833	0,5	2,246650
22,775167	0,5	2,169650
22,783500	0,5	2,088100
22,791833	0,5	1,989050
22,800167	0,5	1,883250
22,808500	0,5	1,769650
22,816833	0,5	1,654250
22,825167	0,5	1,538800
22,833500	0,5	1,426900
22,841833	0,5	1,303450
22,850167	0,5	1,180550
22,858500	0,5	1,055900
22,866833	0,5	0,930100
22,875167	0,5	0,801250
22,883500	0,5	0,674350
22,891833	0,5	0,539150
22,900167	0,5	0,394650
22,908500	0,5	0,256350
22,916833	0,5	0,131200
22,925167	0,5	-0,005450
22,933500	0,5	-0,150500
22,941833	0,5	-0,286700
22,950167	0,5	-0,406900
22,958500	0,5	-0,529550
22,966833	0,5	-0,650550
22,975167	0,5	-0,770900
22,983500	0,5	-0,879150
22,991833	0,5	-0,987000
23,000167	0,5	-1,087700
23,008500	0,5	-1,185950
23,016833	0,5	-1,282350
23,025167	0,5	-1,371800
23,033500	0,5	-1,468950
23,041833	0,5	-1,542400
23,050167	0,5	-1,619750
23,058500	0,5	-1,710450
23,066833	0,5	-1,812500
23,075167	0,5	-1,910350
23,083500	0,5	-1,986900
23,091833	0,5	-2,044700
23,100167	0,5	-2,099400
23,108500	0,5	-2,156500
23,116833	0,5	-2,211250
23,125167	0,5	-2,252950
23,133500	0,5	-2,293450
23,141833	0,5	-2,324100
23,150167	0,5	-2,352950
23,158500	0,5	-2,381450
23,166833	0,5	-2,410100
23,175167	0,5	-2,439700
23,183500	0,5	-2,459200
23,191833	0,5	-2,466550
23,200167	0,5	-2,503000
23,208500	0,5	-2,512650
23,216833	0,5	-2,556850
23,225167	0,5	-2,599850
23,233500	0,5	-2,608800
23,241833	0,5	-2,624950
23,250167	0,5	-2,611300
23,258500	0,5	-2,622450
23,266833	0,5	-2,613650
23,275167	0,5	-2,609950
23,283500	0,5	-2,593050
23,291833	0,5	-2,587000
23,300167	0,5	-2,564250
23,308500	0,5	-2,555000
23,316833	0,5	-2,537650
23,325167	0,5	-2,521500
23,333500	0,5	-2,511500
23,341833	0,5	-2,527900
23,350167	0,5	-2,482550
23,358500	0,5	-2,464950
23,366833	0,5	-2,466550
23,375167	0,5	-2,480850
23,383500	0,5	-2,466750
23,391833	0,5	-2,452700
23,400167	0,5	-2,428750
23,408500	0,5	-2,421750
23,416833	0,5	-2,408150
23,425167	0,5	-2,381000
23,433500	0,5	-2,356450
23,441833	0,5	-2,325050
23,450167	0,5	-2,298750
23,458500	0,5	-2,270800
23,466833	0,5	-2,245800
23,475167	0,5	-2,216750
23,483500	0,5	-2,194550
23,491833	0,5	-2,228550
23,500167	0,5	-2,165500
23,508500	0,5	-2,118850
23,516833	0,5	-2,104300
23,525167	0,5	-2,099700
23,533500	0,5	-2,086800
23,541833	0,5	-2,069650
23,550167	0,5	-2,051800
23,558500	0,5	-2,041600
23,566833	0,5	-2,024900
23,575167	0,5	-2,007400
23,583500	0,5	-1,987700
23,591833	0,5	-1,970500
23,600167	0,5	-1,951650
23,608500	0,5	-1,934400
23,616833	0,5	-1,914200
23,625167	0,5	-1,897050
23,633500	0,5	-1,952200
23,641833	0,5	-1,946400
23,650167	0,5	-1,905850
23,658500	0,5	-1,839450
23,666833	0,5	-1,816200
23,675167	0,5	-1,807850
23,683500	0,5	-1,797200
23,691833	0,5	-1,784200
23,700167	0,5	-1,769000
23,708500	0,5	-1,757150
23,716833	0,5	-1,737200
23,725167	0,5	-1,724900
23,733500	0,5	-1,708850
23,741833	0,5	-1,693550
23,750167	0,5	-1,682550
23,758500	0,5	-1,668500
23,766833	0,5	-1,654250
23,775167	0,5	-1,652050
23,783500	0,5	-1,764700
23,791833	0,5	-1,737000
23,800167	0,5	-1,682100
23,808500	0,5	-1,639300
23,816833	0,5	-1,615200
23,825167	0,5	-1,607000
23,833500	0,5	-1,601650
23,841833	0,5	-1,595200
23,850167	0,5	-1,584450
23,858500	0,5	-1,567100
23,866833	0,5	-1,551800
23,875167	0,5	-1,535100
23,883500	0,5	-1,517750
23,891833	0,5	-1,499500
23,900167	0,5	-1,482250
23,908500	0,5	-1,464000
23,916833	0,5	-1,448800
23,925167	0,5	-1,468950
23,933500	0,5	-1,557150
23,941833	0,5	-1,515600
23,950167	0,5	-1,470550
23,958500	0,5	-1,416150
23,966833	0,5	-1,399800
23,975167	0,5	-1,387300
23,983500	0,5	-1,390400
23,991833	0,5	-1,384600
24,000167	0,5	-1,369000
24,008500	0,5	-1,354200
24,016833	0,5	-1,338950
24,025167	0,5	-1,325700
24,033500	0,5	-1,312600
24,041833	0,5	-1,297700
24,050167	0,5	-1,278000
24,058500	0,5	-1,265100
24,066833	0,5	-1,251200
24,075167	0,5	-1,346400
24,083500	0,5	-1,325100
24,091833	0,5	-1,305600
24,100167	0,5	-1,236850
24,108500	0,5	-1,203100
24,116833	0,5	-1,178550
24,125167	0,5	-1,165050
24,133500	0,5	-1,162250
24,141833	0,5	-1,143300
24,150167	0,5	-1,115100
24,158500	0,5	-1,104650
24,166833	0,5	-1,087250
24,175167	0,5	-1,069300
24,183500	0,5	-1,053350
24,191833	0,5	-1,035650
24,200167	0,5	-1,017900
24,208500	0,5	-1,001650
24,216833	0,5	-0,998100
24,225167	0,5	-1,084850
24,233500	0,5	-1,057100
24,241833	0,5	-1,033400
24,250167	0,5	-0,977800
24,258500	0,5	-0,954650
24,266833	0,5	-0,939650
24,275167	0,5	-0,929700
24,283500	0,5	-0,936400
24,291833	0,5	-0,906050
24,300167	0,5	-0,892450
24,308500	0,5	-0,874850
24,316833	0,5	-0,858800
24,325167	0,5	-0,836950
24,333500	0,5	-0,819850
24,341833	0,5	-0,796450
24,350167	0,5	-0,783350
24,358500	0,5	-0,765100
24,366833	0,5	-0,783550
24,375167	0,5	-0,823650
24,383500	0,5	-0,784450
24,391833	0,5	-0,760500
24,400167	0,5	-0,713000
24,408500	0,5	-0,713200
24,416833	0,5	-0,688000
24,425167	0,5	-0,680750
24,433500	0,5	-0,684900
24,441833	0,5	-0,666950
24,450167	0,5	-0,647450
24,458500	0,5	-0,638650
24,466833	0,5	-0,621800
24,475167	0,5	-0,614650
24,483500	0,5	-0,597350
24,491833	0,5	-0,587450
24,500167	0,5	-0,572550
24,508500	0,5	-0,563250
24,516833	0,5	-0,609150
24,525167	0,5	-0,599850
24,533500	0,5	-0,574050
24,541833	0,5	-0,543900
24,550167	0,5	-0,510350
24,558500	0,5	-0,495950
24,566833	0,5	-0,483050
24,575167	0,5	-0,481950
24,583500	0,5	-0,476500
24,591833	0,5	-0,458600
24,600167	0,5	-0,450950
24,608500	0,5	-0,435450
24,616833	0,5	-0,426500
24,625167	0,5	-0,408950
24,633500	0,5	-0,400650
24,641833	0,5	-0,384500
24,650167	0,5	-0,379200
24,658500	0,5	-0,372250
24,666833	0,5	-0,414950
24,675167	0,5	-0,396350
24,683500	0,5	-0,384550
24,691833	0,5	-0,356150
24,700167	0,5	-0,336800
24,708500	0,5	-0,331850
24,716833	0,5	-0,328250
24,725167	0,5	-0,331350
24,733500	0,5	-0,322650
24,741833	0,5	-0,312850
24,750167	0,5	-0,297650
24,758500	0,5	-0,289800
24,766833	0,5	-0,276350
24,775167	0,5	-0,267650
24,783500	0,5	-0,252900
24,791833	0,5	-0,247050
24,800167	0,5	-0,239200
24,808500	0,5	-0,239800
24,816833	0,5	-0,249100
24,825167	0,5	-0,241800
24,833500	0,5	-0,226450
24,841833	0,5	-0,209150
24,850167	0,5	-0,196800
24,858500	0,5	-0,195450
24,866833	0,5	-0,191850
24,875167	0,5	-0,191750
24,883500	0,5	-0,188150
24,891833	0,5	-0,182700
24,900167	0,5	-0,176200
24,908500	0,5	-0,170300
24,916833	0,5	-0,165800
24,925167	0,5	-0,158550
24,933500	0,5	-0,150500
24,941833	0,5	-0,139900
24,950167	0,5	-0,132950
24,958500	0,5	-0,141250
24,966833	0,5	-0,140300
24,975167	0,5	-0,132950
24,983500	0,5	-0,118750
24,991833	0,5	-0,101850
25,000167	0,5	-0,098950
25,008500	0,5	-0,091900
25,016833	0,5	-0,095950
25,025167	0,5	-0,089900
25,033500	0,5	-0,084600
25,041833	0,5	-0,079450
25,050167	0,5	-0,077150
25,058500	0,5	-0,069300
25,066833	0,5	-0,066400
25,075167	0,5	-0,061300
25,083500	0,5	-0,055150
25,091833	0,5	-0,051100
25,100167	0,5	-0,049450
25,108500	0,5	-0,058350
25,116833	0,5	-0,050150
25,125167	0,5	-0,050600
25,133500	0,5	-0,041850
25,141833	0,5	-0,033200
25,150167	0,5	-0,030150
25,158500	0,5	-0,027750
25,166833	0,5	-0,028800
25,175167	0,5	-0,024250
25,183500	0,5	-0,018800
25,191833	0,5	-0,016250
25,200167	0,5	-0,012250
25,208500	0,5	-0,008850
25,216833	0,5	-0,004050
25,225167	0,5	-0,002300
25,233500	0,5	0,003200
25,241833	0,5	0,005500
25,250167	0,5	0,007100
25,258500	0,5	0,006050
25,266833	0,5	0,008250
25,275167	0,5	0,012350
25,283500	0,5	0,012200
25,291833	0,5	0,016550
25,300167	0,5	0,017550
25,308500	0,5	0,017100
25,316833	0,5	0,016650
25,325167	0,5	0,016150
25,333500	0,5	0,020750
25,341833	0,5	0,019350
25,350167	0,5	0,021550
25,358500	0,5	0,023850
25,366833	0,5	0,027150
25,375167	0,5	0,029550
25,383500	0,5	0,032500
25,391833	0,5	0,035200
25,400167	0,5	0,036700
25,408500	0,5	0,042300
25,416833	0,5	0,041050
25,425167	0,5	0,042450
25,433500	0,5	0,044250
25,441833	0,5	0,043850
25,450167	0,5	0,046850
25,458500	0,5	0,045350
25,466833	0,5	0,047050
25,475167	0,5	0,047650
25,483500	0,5	0,045550
25,491833	0,5	0,048700
25,500167	0,5	0,046150
25,508500	0,5	0,044600
25,516833	0,5	0,046600
25,525167	0,5	0,047200
25,533500	0,5	0,048100
25,541833	0,5	0,049400
25,550167	0,5	0,054200
25,558500	0,5	0,056100
25,566833	0,5	0,058150
25,575167	0,5	0,055700
25,583500	0,5	0,056100
25,591833	0,5	0,056950
25,600167	0,5	0,060000
25,608500	0,5	0,064350
25,616833	0,5	0,065100
25,625167	0,5	0,066600
25,633500	0,5	0,064800
25,641833	0,5	0,065150
25,650167	0,5	0,066500
25,658500	0,5	0,061000
25,666833	0,5	0,064000
25,675167	0,5	0,061100
25,683500	0,5	0,064200
25,691833	0,5	0,064600
25,700167	0,5	0,068800
25,708500	0,5	0,064250
25,716833	0,5	0,069550
25,725167	0,5	0,060950
25,733500	0,5	0,063450
25,741833	0,5	0,064200
25,750167	0,5	0,065800
25,758500	0,5	0,070850
25,766833	0,5	0,071950
25,775167	0,5	0,071300
25,783500	0,5	0,073050
25,791833	0,5	0,073100
25,800167	0,5	0,071950
25,808500	0,5	0,076400
25,816833	0,5	0,073400
25,825167	0,5	0,077200
25,833500	0,5	0,079100
25,841833	0,5	0,078500
25,850167	0,5	0,080200
25,858500	0,5	0,087750
25,866833	0,5	0,082750
25,875167	0,5	0,080600
25,883500	0,5	0,083150
25,891833	0,5	0,080950
25,900167	0,5	0,087850
25,908500	0,5	0,090050
25,916833	0,5	0,090000
25,925167	0,5	0,094700
25,933500	0,5	0,090700
25,941833	0,5	0,095100
25,950167	0,5	0,094950
25,958500	0,5	0,095050
25,966833	0,5	0,095750
25,975167	0,5	0,094300
25,983500	0,5	0,094850
25,991833	0,5	0,095100
26,000167	0,5	0,096600
