File Path	chrom://chromeleon01/ikbm_chromeleon/2022/ICS-5000/ED1/Esteban/20220612_Cell_7_4_eg.seq/355.smp/ED_1.channel/ED_1.chm
Channel	ED_1

Injection Information:
Data Vault	ikbm_chromeleon
Injection	CelS2_24h-EGS_1
Injection Number	32
Position	RD2
Comment	
Processing Method	Stop sequence after Cell Death
Instrument Method	ICS5000_PA200_FullNative_Ox_26min_ED1
Type	Unknown
Status	Finished
Injection Date	13.06.2022
Injection Time	06:48:48
Injection Volume (µl)	5,0
Dilution Factor	1,0000
Weight	1,0000

Chromatogram Data Information:
Time Min. (min)	0,000333
Time Max. (min)	26,000333
Data Points	3121
Detector	EDet1
Generating Data System	Chromeleon 7.2.9.11323
Exporting Data System	Chromeleon 7.2.9.0
Operator	Instrument Controller
Signal Quantity	
Signal Unit	nC
Signal Min.	-1,896200
Signal Max.	374,814906
Channel	ED_1
Driver Name	DC-5000
Channel Type	Evaluation
Min. Step (s)	0,5
Max. Step (s)	0,5
Average Step (s)	0,5

Signal Parameter Information:
Signal Info	

Chromatogram Data:
Time (min)	Step (s)	Value (nC)
0,000333	n.a.	-0,001200
0,008667	0,5	-0,059450
0,017000	0,5	-0,046800
0,025333	0,5	-0,044200
0,033667	0,5	-0,040200
0,042000	0,5	-0,037800
0,050333	0,5	-0,029600
0,058667	0,5	-0,030600
0,067000	0,5	-0,014800
0,075333	0,5	-0,011400
0,083667	0,5	-0,024850
0,092000	0,5	-0,036850
0,100333	0,5	-0,032100
0,108667	0,5	-0,023850
0,117000	0,5	0,000250
0,125333	0,5	0,001800
0,133667	0,5	0,000000
0,142000	0,5	-0,001450
0,150333	0,5	-0,006050
0,158667	0,5	-0,007400
0,167000	0,5	-0,012350
0,175333	0,5	-0,011350
0,183667	0,5	-0,017900
0,192000	0,5	-0,012350
0,200333	0,5	-0,012400
0,208667	0,5	-0,009650
0,217000	0,5	0,001050
0,225333	0,5	0,001000
0,233667	0,5	-0,019600
0,242000	0,5	-0,018950
0,250333	0,5	-0,024750
0,258667	0,5	-0,002700
0,267000	0,5	0,000450
0,275333	0,5	-0,002450
0,283667	0,5	-0,006900
0,292000	0,5	-0,002650
0,300333	0,5	0,003800
0,308667	0,5	0,016550
0,317000	0,5	0,006950
0,325333	0,5	-0,015850
0,333667	0,5	-0,018150
0,342000	0,5	-0,020200
0,350333	0,5	-0,017350
0,358667	0,5	-0,028600
0,367000	0,5	-0,003000
0,375333	0,5	-0,020150
0,383667	0,5	-0,026150
0,392000	0,5	-0,030600
0,400333	0,5	-0,022500
0,408667	0,5	-0,005650
0,417000	0,5	-0,002300
0,425333	0,5	-0,011300
0,433667	0,5	-0,005700
0,442000	0,5	-0,006750
0,450333	0,5	-0,006550
0,458667	0,5	-0,008050
0,467000	0,5	-0,011750
0,475333	0,5	-0,016900
0,483667	0,5	-0,017300
0,492000	0,5	-0,012200
0,500333	0,5	-0,016600
0,508667	0,5	-0,020300
0,517000	0,5	-0,003100
0,525333	0,5	-0,023900
0,533667	0,5	-0,024750
0,542000	0,5	-0,019600
0,550333	0,5	-0,018250
0,558667	0,5	0,009600
0,567000	0,5	-0,005450
0,575333	0,5	0,000500
0,583667	0,5	-0,006600
0,592000	0,5	0,004150
0,600333	0,5	0,001400
0,608667	0,5	0,004150
0,617000	0,5	-0,000350
0,625333	0,5	0,002750
0,633667	0,5	-0,000150
0,642000	0,5	-0,002500
0,650333	0,5	-0,006650
0,658667	0,5	-0,010450
0,667000	0,5	0,003000
0,675333	0,5	-0,009500
0,683667	0,5	-0,009250
0,692000	0,5	-0,003900
0,700333	0,5	0,007000
0,708667	0,5	0,017100
0,717000	0,5	0,018400
0,725333	0,5	0,011050
0,733667	0,5	0,018050
0,742000	0,5	0,017750
0,750333	0,5	0,020350
0,758667	0,5	0,012750
0,767000	0,5	0,016150
0,775333	0,5	0,011500
0,783667	0,5	0,017150
0,792000	0,5	0,020000
0,800333	0,5	0,015300
0,808667	0,5	0,016100
0,817000	0,5	0,023750
0,825333	0,5	0,009400
0,833667	0,5	0,008050
0,842000	0,5	0,014750
0,850333	0,5	0,029600
0,858667	0,5	0,044150
0,867000	0,5	0,037550
0,875333	0,5	0,037150
0,883667	0,5	0,042950
0,892000	0,5	0,041600
0,900333	0,5	0,037400
0,908667	0,5	0,042800
0,917000	0,5	0,037500
0,925333	0,5	0,038850
0,933667	0,5	0,039400
0,942000	0,5	0,037650
0,950333	0,5	0,033850
0,958667	0,5	0,047200
0,967000	0,5	0,038600
0,975333	0,5	0,032200
0,983667	0,5	0,034550
0,992000	0,5	0,046800
1,000333	0,5	0,058200
1,008667	0,5	0,064950
1,017000	0,5	0,061850
1,025333	0,5	0,068200
1,033667	0,5	0,067850
1,042000	0,5	0,065350
1,050333	0,5	0,067550
1,058667	0,5	0,064000
1,067000	0,5	0,066100
1,075333	0,5	0,065000
1,083667	0,5	0,064950
1,092000	0,5	0,046600
1,100333	0,5	0,056000
1,108667	0,5	0,062750
1,117000	0,5	0,059300
1,125333	0,5	0,048050
1,133667	0,5	0,052750
1,142000	0,5	0,060300
1,150333	0,5	0,078400
1,158667	0,5	0,084350
1,167000	0,5	0,085300
1,175333	0,5	0,083450
1,183667	0,5	0,082200
1,192000	0,5	0,082250
1,200333	0,5	0,074250
1,208667	0,5	0,073550
1,217000	0,5	0,068000
1,225333	0,5	0,073250
1,233667	0,5	0,065150
1,242000	0,5	0,056200
1,250333	0,5	0,064750
1,258667	0,5	0,071250
1,267000	0,5	0,057650
1,275333	0,5	0,056000
1,283667	0,5	0,052950
1,292000	0,5	0,068500
1,300333	0,5	0,075300
1,308667	0,5	0,071050
1,317000	0,5	0,062150
1,325333	0,5	0,066850
1,333667	0,5	0,059300
1,342000	0,5	0,061650
1,350333	0,5	0,059200
1,358667	0,5	0,057500
1,367000	0,5	0,048350
1,375333	0,5	0,044550
1,383667	0,5	0,040350
1,392000	0,5	0,029200
1,400333	0,5	0,043250
1,408667	0,5	0,030150
1,417000	0,5	0,021650
1,425333	0,5	0,015500
1,433667	0,5	0,019050
1,442000	0,5	0,029950
1,450333	0,5	0,034600
1,458667	0,5	0,020600
1,467000	0,5	0,027250
1,475333	0,5	0,019400
1,483667	0,5	0,018600
1,492000	0,5	0,007050
1,500333	0,5	-0,000300
1,508667	0,5	-0,010300
1,517000	0,5	-0,016250
1,525333	0,5	-0,016450
1,533667	0,5	-0,026500
1,542000	0,5	-0,038950
1,550333	0,5	-0,019500
1,558667	0,5	-0,059550
1,567000	0,5	-0,139050
1,575333	0,5	-0,375900
1,583667	0,5	-0,802350
1,592000	0,5	-0,984900
1,600333	0,5	-0,056600
1,608667	0,5	3,644050
1,617000	0,5	12,998700
1,625333	0,5	30,635950
1,633667	0,5	52,923351
1,642000	0,5	69,378051
1,650333	0,5	71,750101
1,658667	0,5	61,911651
1,667000	0,5	47,702101
1,675333	0,5	35,007251
1,683667	0,5	25,648400
1,692000	0,5	19,334950
1,700333	0,5	15,193650
1,708667	0,5	12,435600
1,717000	0,5	10,575900
1,725333	0,5	9,279450
1,733667	0,5	8,363800
1,742000	0,5	7,717950
1,750333	0,5	7,250200
1,758667	0,5	6,938200
1,767000	0,5	6,772450
1,775333	0,5	6,692450
1,783667	0,5	6,635200
1,792000	0,5	6,531350
1,800333	0,5	6,361800
1,808667	0,5	6,122200
1,817000	0,5	5,865300
1,825333	0,5	5,578900
1,833667	0,5	5,297150
1,842000	0,5	5,052200
1,850333	0,5	4,881350
1,858667	0,5	4,757350
1,867000	0,5	4,689300
1,875333	0,5	4,608250
1,883667	0,5	4,556750
1,892000	0,5	4,670900
1,900333	0,5	5,255550
1,908667	0,5	6,922800
1,917000	0,5	10,403800
1,925333	0,5	15,316900
1,933667	0,5	19,225600
1,942000	0,5	19,655100
1,950333	0,5	16,854800
1,958667	0,5	13,025850
1,967000	0,5	9,805200
1,975333	0,5	7,641250
1,983667	0,5	6,359150
1,992000	0,5	5,730750
2,000333	0,5	5,569800
2,008667	0,5	5,860600
2,017000	0,5	6,472200
2,025333	0,5	7,026100
2,033667	0,5	7,195900
2,042000	0,5	6,985300
2,050333	0,5	6,548550
2,058667	0,5	6,012300
2,067000	0,5	5,484400
2,075333	0,5	5,097850
2,083667	0,5	4,891600
2,092000	0,5	4,809250
2,100333	0,5	4,780400
2,108667	0,5	4,795450
2,117000	0,5	4,852400
2,125333	0,5	4,868450
2,133667	0,5	4,818100
2,142000	0,5	4,687800
2,150333	0,5	4,528200
2,158667	0,5	4,430450
2,167000	0,5	4,413050
2,175333	0,5	4,477300
2,183667	0,5	4,614850
2,192000	0,5	4,768500
2,200333	0,5	4,938100
2,208667	0,5	5,144650
2,217000	0,5	5,440250
2,225333	0,5	5,810200
2,233667	0,5	6,155350
2,242000	0,5	6,269700
2,250333	0,5	6,082900
2,258667	0,5	5,735700
2,267000	0,5	5,453800
2,275333	0,5	5,306650
2,283667	0,5	5,293400
2,292000	0,5	5,352750
2,300333	0,5	5,476400
2,308667	0,5	5,691400
2,317000	0,5	6,023350
2,325333	0,5	6,565250
2,333667	0,5	7,479400
2,342000	0,5	9,010800
2,350333	0,5	11,099150
2,358667	0,5	13,185800
2,367000	0,5	14,585500
2,375333	0,5	15,293800
2,383667	0,5	16,091400
2,392000	0,5	18,115350
2,400333	0,5	22,339650
2,408667	0,5	29,978700
2,417000	0,5	44,161201
2,425333	0,5	72,676751
2,433667	0,5	127,998002
2,442000	0,5	215,096153
2,450333	0,5	311,492305
2,458667	0,5	373,580156
2,467000	0,5	374,814906
2,475333	0,5	324,909105
2,483667	0,5	253,039654
2,492000	0,5	184,879503
2,500333	0,5	132,729452
2,508667	0,5	97,901401
2,517000	0,5	97,874651
2,525333	0,5	61,191751
2,533667	0,5	51,232901
2,542000	0,5	43,012201
2,550333	0,5	36,120351
2,558667	0,5	30,454550
2,567000	0,5	25,967350
2,575333	0,5	22,492350
2,583667	0,5	19,889100
2,592000	0,5	17,906300
2,600333	0,5	16,440950
2,608667	0,5	15,338750
2,617000	0,5	14,494350
2,625333	0,5	13,833600
2,633667	0,5	13,294350
2,642000	0,5	12,918400
2,650333	0,5	12,706650
2,658667	0,5	12,607200
2,667000	0,5	12,496950
2,675333	0,5	12,247850
2,683667	0,5	11,798750
2,692000	0,5	11,220100
2,700333	0,5	10,611450
2,708667	0,5	10,095500
2,717000	0,5	9,689400
2,725333	0,5	9,420350
2,733667	0,5	9,272250
2,742000	0,5	9,249250
2,750333	0,5	9,455500
2,758667	0,5	9,948800
2,767000	0,5	10,722450
2,775333	0,5	11,561050
2,783667	0,5	12,089950
2,792000	0,5	12,044800
2,800333	0,5	11,409200
2,808667	0,5	10,427100
2,817000	0,5	9,396950
2,825333	0,5	8,513700
2,833667	0,5	7,828850
2,842000	0,5	7,308400
2,850333	0,5	6,909400
2,858667	0,5	6,576800
2,867000	0,5	6,300300
2,875333	0,5	6,069700
2,883667	0,5	5,864500
2,892000	0,5	5,671800
2,900333	0,5	5,516050
2,908667	0,5	5,376000
2,917000	0,5	5,262250
2,925333	0,5	5,154450
2,933667	0,5	5,052950
2,942000	0,5	4,945000
2,950333	0,5	4,845550
2,958667	0,5	4,743750
2,967000	0,5	4,631450
2,975333	0,5	4,509800
2,983667	0,5	4,381550
2,992000	0,5	4,260750
3,000333	0,5	4,154100
3,008667	0,5	4,060300
3,017000	0,5	3,970150
3,025333	0,5	3,888800
3,033667	0,5	3,795750
3,042000	0,5	3,695200
3,050333	0,5	3,600600
3,058667	0,5	3,507350
3,067000	0,5	3,421800
3,075333	0,5	3,340900
3,083667	0,5	3,259950
3,092000	0,5	3,204900
3,100333	0,5	3,146650
3,108667	0,5	3,098750
3,117000	0,5	3,047050
3,125333	0,5	2,998950
3,133667	0,5	2,937550
3,142000	0,5	2,875850
3,150333	0,5	2,811900
3,158667	0,5	2,736850
3,167000	0,5	2,675200
3,175333	0,5	2,606200
3,183667	0,5	2,518750
3,192000	0,5	2,447350
3,200333	0,5	2,391850
3,208667	0,5	2,344250
3,217000	0,5	2,309350
3,225333	0,5	2,266800
3,233667	0,5	2,237600
3,242000	0,5	2,208150
3,250333	0,5	2,179400
3,258667	0,5	2,146400
3,267000	0,5	2,112750
3,275333	0,5	2,066450
3,283667	0,5	2,026250
3,292000	0,5	1,979450
3,300333	0,5	1,928100
3,308667	0,5	1,869300
3,317000	0,5	1,831250
3,325333	0,5	1,790000
3,333667	0,5	1,747350
3,342000	0,5	1,716000
3,350333	0,5	1,703550
3,358667	0,5	1,712450
3,367000	0,5	1,722300
3,375333	0,5	1,744600
3,383667	0,5	1,778150
3,392000	0,5	1,837050
3,400333	0,5	1,917050
3,408667	0,5	2,036600
3,417000	0,5	2,215700
3,425333	0,5	2,503400
3,433667	0,5	2,927750
3,442000	0,5	3,526700
3,450333	0,5	4,274000
3,458667	0,5	5,091950
3,467000	0,5	5,935750
3,475333	0,5	6,683350
3,483667	0,5	7,355200
3,492000	0,5	8,059250
3,500333	0,5	8,958050
3,508667	0,5	10,212200
3,517000	0,5	11,813300
3,525333	0,5	13,596900
3,533667	0,5	15,221400
3,542000	0,5	16,282050
3,550333	0,5	16,462100
3,558667	0,5	15,669150
3,567000	0,5	14,068600
3,575333	0,5	11,970950
3,583667	0,5	9,753950
3,592000	0,5	7,700950
3,600333	0,5	6,004800
3,608667	0,5	4,708550
3,617000	0,5	3,816200
3,625333	0,5	3,201300
3,633667	0,5	2,813150
3,642000	0,5	2,565000
3,650333	0,5	2,408100
3,658667	0,5	2,311200
3,667000	0,5	2,246600
3,675333	0,5	2,233250
3,683667	0,5	2,287600
3,692000	0,5	2,396950
3,700333	0,5	2,557250
3,708667	0,5	2,733850
3,717000	0,5	2,874700
3,725333	0,5	2,954050
3,733667	0,5	2,929800
3,742000	0,5	2,809800
3,750333	0,5	2,589950
3,758667	0,5	2,338400
3,767000	0,5	2,080150
3,775333	0,5	1,823200
3,783667	0,5	1,613850
3,792000	0,5	1,444700
3,800333	0,5	1,317150
3,808667	0,5	1,225900
3,817000	0,5	1,133050
3,825333	0,5	1,065550
3,833667	0,5	1,007000
3,842000	0,5	0,967150
3,850333	0,5	0,927700
3,858667	0,5	0,901100
3,867000	0,5	0,876750
3,875333	0,5	0,861200
3,883667	0,5	0,854500
3,892000	0,5	0,847300
3,900333	0,5	0,844800
3,908667	0,5	0,855250
3,917000	0,5	0,859000
3,925333	0,5	0,854750
3,933667	0,5	0,867150
3,942000	0,5	0,873050
3,950333	0,5	0,888100
3,958667	0,5	0,893900
3,967000	0,5	0,901200
3,975333	0,5	0,896000
3,983667	0,5	0,905050
3,992000	0,5	0,901000
4,000333	0,5	0,911950
4,008667	0,5	0,909550
4,017000	0,5	0,913250
4,025333	0,5	0,915100
4,033667	0,5	0,921900
4,042000	0,5	0,920700
4,050333	0,5	0,929650
4,058667	0,5	0,936700
4,067000	0,5	0,936950
4,075333	0,5	0,937250
4,083667	0,5	0,945950
4,092000	0,5	0,953900
4,100333	0,5	0,969400
4,108667	0,5	0,975150
4,117000	0,5	0,971000
4,125333	0,5	0,979800
4,133667	0,5	0,981350
4,142000	0,5	0,993650
4,150333	0,5	1,002300
4,158667	0,5	1,026600
4,167000	0,5	1,051300
4,175333	0,5	1,099800
4,183667	0,5	1,167550
4,192000	0,5	1,258900
4,200333	0,5	1,392200
4,208667	0,5	1,590350
4,217000	0,5	1,849450
4,225333	0,5	2,219350
4,233667	0,5	2,719350
4,242000	0,5	3,350000
4,250333	0,5	4,105300
4,258667	0,5	4,907650
4,267000	0,5	5,695600
4,275333	0,5	6,351250
4,283667	0,5	6,790600
4,292000	0,5	6,936850
4,300333	0,5	6,793950
4,308667	0,5	6,390850
4,317000	0,5	5,815800
4,325333	0,5	5,143900
4,333667	0,5	4,465550
4,342000	0,5	3,819350
4,350333	0,5	3,277350
4,358667	0,5	2,809350
4,367000	0,5	2,434400
4,375333	0,5	2,136700
4,383667	0,5	1,906600
4,392000	0,5	1,731500
4,400333	0,5	1,586000
4,408667	0,5	1,463450
4,417000	0,5	1,366250
4,425333	0,5	1,283250
4,433667	0,5	1,212150
4,442000	0,5	1,142450
4,450333	0,5	1,082400
4,458667	0,5	1,032550
4,467000	0,5	0,989050
4,475333	0,5	0,956500
4,483667	0,5	0,922000
4,492000	0,5	0,895550
4,500333	0,5	0,882700
4,508667	0,5	0,852950
4,517000	0,5	0,824700
4,525333	0,5	0,795250
4,533667	0,5	0,773000
4,542000	0,5	0,753500
4,550333	0,5	0,721600
4,558667	0,5	0,698150
4,567000	0,5	0,681200
4,575333	0,5	0,668950
4,583667	0,5	0,658500
4,592000	0,5	0,650550
4,600333	0,5	0,636750
4,608667	0,5	0,627000
4,617000	0,5	0,620850
4,625333	0,5	0,602550
4,633667	0,5	0,587400
4,642000	0,5	0,567750
4,650333	0,5	0,562100
4,658667	0,5	0,537750
4,667000	0,5	0,523650
4,675333	0,5	0,510900
4,683667	0,5	0,506800
4,692000	0,5	0,508500
4,700333	0,5	0,504450
4,708667	0,5	0,492550
4,717000	0,5	0,494950
4,725333	0,5	0,483700
4,733667	0,5	0,482600
4,742000	0,5	0,479750
4,750333	0,5	0,478850
4,758667	0,5	0,472850
4,767000	0,5	0,474650
4,775333	0,5	0,473050
4,783667	0,5	0,473000
4,792000	0,5	0,477000
4,800333	0,5	0,489350
4,808667	0,5	0,495700
4,817000	0,5	0,518300
4,825333	0,5	0,549850
4,833667	0,5	0,593800
4,842000	0,5	0,650900
4,850333	0,5	0,703950
4,858667	0,5	0,771250
4,867000	0,5	0,825900
4,875333	0,5	0,885700
4,883667	0,5	0,927200
4,892000	0,5	0,965700
4,900333	0,5	0,978450
4,908667	0,5	0,985950
4,917000	0,5	0,981900
4,925333	0,5	0,959850
4,933667	0,5	0,941750
4,942000	0,5	0,942450
4,950333	0,5	0,927650
4,958667	0,5	0,916300
4,967000	0,5	0,911200
4,975333	0,5	0,908400
4,983667	0,5	0,913600
4,992000	0,5	0,911950
5,000333	0,5	0,910550
5,008667	0,5	0,907400
5,017000	0,5	0,898450
5,025333	0,5	0,888800
5,033667	0,5	0,875500
5,042000	0,5	0,850450
5,050333	0,5	0,822650
5,058667	0,5	0,781950
5,067000	0,5	0,737450
5,075333	0,5	0,682700
5,083667	0,5	0,639600
5,092000	0,5	0,601050
5,100333	0,5	0,561750
5,108667	0,5	0,526350
5,117000	0,5	0,507550
5,125333	0,5	0,494700
5,133667	0,5	0,496950
5,142000	0,5	0,498650
5,150333	0,5	0,491850
5,158667	0,5	0,494450
5,167000	0,5	0,496650
5,175333	0,5	0,497400
5,183667	0,5	0,492650
5,192000	0,5	0,493300
5,200333	0,5	0,481650
5,208667	0,5	0,476000
5,217000	0,5	0,462700
5,225333	0,5	0,451750
5,233667	0,5	0,441200
5,242000	0,5	0,439700
5,250333	0,5	0,420100
5,258667	0,5	0,411800
5,267000	0,5	0,407400
5,275333	0,5	0,406600
5,283667	0,5	0,411450
5,292000	0,5	0,404850
5,300333	0,5	0,409750
5,308667	0,5	0,412400
5,317000	0,5	0,413550
5,325333	0,5	0,410150
5,333667	0,5	0,410050
5,342000	0,5	0,401900
5,350333	0,5	0,398450
5,358667	0,5	0,388650
5,367000	0,5	0,384550
5,375333	0,5	0,370500
5,383667	0,5	0,372450
5,392000	0,5	0,369600
5,400333	0,5	0,366650
5,408667	0,5	0,363000
5,417000	0,5	0,370250
5,425333	0,5	0,383100
5,433667	0,5	0,396350
5,442000	0,5	0,405800
5,450333	0,5	0,426650
5,458667	0,5	0,450650
5,467000	0,5	0,480000
5,475333	0,5	0,520050
5,483667	0,5	0,562850
5,492000	0,5	0,612450
5,500333	0,5	0,664450
5,508667	0,5	0,707100
5,517000	0,5	0,733100
5,525333	0,5	0,741850
5,533667	0,5	0,745950
5,542000	0,5	0,718400
5,550333	0,5	0,680550
5,558667	0,5	0,631850
5,567000	0,5	0,588650
5,575333	0,5	0,553150
5,583667	0,5	0,507950
5,592000	0,5	0,477600
5,600333	0,5	0,448300
5,608667	0,5	0,432800
5,617000	0,5	0,419250
5,625333	0,5	0,412450
5,633667	0,5	0,409250
5,642000	0,5	0,412100
5,650333	0,5	0,416750
5,658667	0,5	0,419450
5,667000	0,5	0,423350
5,675333	0,5	0,425000
5,683667	0,5	0,437650
5,692000	0,5	0,431200
5,700333	0,5	0,436950
5,708667	0,5	0,430650
5,717000	0,5	0,437500
5,725333	0,5	0,441900
5,733667	0,5	0,442700
5,742000	0,5	0,438550
5,750333	0,5	0,441200
5,758667	0,5	0,448400
5,767000	0,5	0,464750
5,775333	0,5	0,495300
5,783667	0,5	0,543950
5,792000	0,5	0,603050
5,800333	0,5	0,683700
5,808667	0,5	0,767800
5,817000	0,5	0,845150
5,825333	0,5	0,910850
5,833667	0,5	0,952750
5,842000	0,5	0,947550
5,850333	0,5	0,919400
5,858667	0,5	0,859550
5,867000	0,5	0,785850
5,875333	0,5	0,715200
5,883667	0,5	0,636950
5,892000	0,5	0,572600
5,900333	0,5	0,522150
5,908667	0,5	0,492050
5,917000	0,5	0,471200
5,925333	0,5	0,466750
5,933667	0,5	0,458000
5,942000	0,5	0,457300
5,950333	0,5	0,451950
5,958667	0,5	0,440900
5,967000	0,5	0,429500
5,975333	0,5	0,423950
5,983667	0,5	0,414850
5,992000	0,5	0,403900
6,000333	0,5	0,392800
6,008667	0,5	0,385850
6,017000	0,5	0,379950
6,025333	0,5	0,365450
6,033667	0,5	0,347000
6,042000	0,5	0,323200
6,050333	0,5	0,298400
6,058667	0,5	0,273100
6,067000	0,5	0,249900
6,075333	0,5	0,229750
6,083667	0,5	0,216450
6,092000	0,5	0,208600
6,100333	0,5	0,205450
6,108667	0,5	0,200850
6,117000	0,5	0,212450
6,125333	0,5	0,232400
6,133667	0,5	0,251800
6,142000	0,5	0,274650
6,150333	0,5	0,306550
6,158667	0,5	0,347500
6,167000	0,5	0,387650
6,175333	0,5	0,414300
6,183667	0,5	0,432250
6,192000	0,5	0,443500
6,200333	0,5	0,441850
6,208667	0,5	0,430250
6,217000	0,5	0,412550
6,225333	0,5	0,396300
6,233667	0,5	0,383150
6,242000	0,5	0,380950
6,250333	0,5	0,387750
6,258667	0,5	0,406950
6,267000	0,5	0,453950
6,275333	0,5	0,514450
6,283667	0,5	0,575000
6,292000	0,5	0,645200
6,300333	0,5	0,719800
6,308667	0,5	0,784700
6,317000	0,5	0,831500
6,325333	0,5	0,850950
6,333667	0,5	0,843800
6,342000	0,5	0,816500
6,350333	0,5	0,779700
6,358667	0,5	0,744550
6,367000	0,5	0,720350
6,375333	0,5	0,738150
6,383667	0,5	0,806200
6,392000	0,5	0,942750
6,400333	0,5	1,173750
6,408667	0,5	1,490700
6,417000	0,5	1,924300
6,425333	0,5	2,452200
6,433667	0,5	3,060000
6,442000	0,5	3,726450
6,450333	0,5	4,429300
6,458667	0,5	5,140650
6,467000	0,5	5,856450
6,475333	0,5	6,556250
6,483667	0,5	7,294100
6,492000	0,5	8,100100
6,500333	0,5	9,080750
6,508667	0,5	10,392100
6,517000	0,5	12,308600
6,525333	0,5	15,259450
6,533667	0,5	19,879650
6,542000	0,5	26,930800
6,550333	0,5	37,137701
6,558667	0,5	50,790651
6,567000	0,5	67,398801
6,575333	0,5	85,240501
6,583667	0,5	102,027252
6,592000	0,5	115,331602
6,600333	0,5	123,454802
6,608667	0,5	125,788152
6,617000	0,5	122,729202
6,625333	0,5	115,527552
6,633667	0,5	105,653952
6,642000	0,5	94,542101
6,650333	0,5	83,209851
6,658667	0,5	72,317901
6,667000	0,5	62,107101
6,675333	0,5	52,578301
6,683667	0,5	43,667151
6,692000	0,5	35,503801
6,700333	0,5	28,314900
6,708667	0,5	22,289600
6,717000	0,5	17,478300
6,725333	0,5	13,774400
6,733667	0,5	11,011250
6,742000	0,5	8,981850
6,750333	0,5	7,508900
6,758667	0,5	6,427800
6,767000	0,5	5,612000
6,775333	0,5	4,974000
6,783667	0,5	4,464500
6,792000	0,5	4,045800
6,800333	0,5	3,691550
6,808667	0,5	3,392650
6,817000	0,5	3,139400
6,825333	0,5	2,922150
6,833667	0,5	2,742500
6,842000	0,5	2,586750
6,850333	0,5	2,456150
6,858667	0,5	2,341700
6,867000	0,5	2,244050
6,875333	0,5	2,146950
6,883667	0,5	2,057600
6,892000	0,5	1,973300
6,900333	0,5	1,892950
6,908667	0,5	1,808400
6,917000	0,5	1,723800
6,925333	0,5	1,632200
6,933667	0,5	1,551550
6,942000	0,5	1,472600
6,950333	0,5	1,402400
6,958667	0,5	1,339600
6,967000	0,5	1,291350
6,975333	0,5	1,249400
6,983667	0,5	1,212200
6,992000	0,5	1,185200
7,000333	0,5	1,160200
7,008667	0,5	1,156550
7,017000	0,5	1,150850
7,025333	0,5	1,155350
7,033667	0,5	1,175500
7,042000	0,5	1,206500
7,050333	0,5	1,251200
7,058667	0,5	1,299250
7,067000	0,5	1,348150
7,075333	0,5	1,397000
7,083667	0,5	1,439150
7,092000	0,5	1,474900
7,100333	0,5	1,505350
7,108667	0,5	1,520500
7,117000	0,5	1,543600
7,125333	0,5	1,562700
7,133667	0,5	1,578600
7,142000	0,5	1,579050
7,150333	0,5	1,569800
7,158667	0,5	1,552700
7,167000	0,5	1,504700
7,175333	0,5	1,442200
7,183667	0,5	1,370650
7,192000	0,5	1,293450
7,200333	0,5	1,220900
7,208667	0,5	1,148900
7,217000	0,5	1,082900
7,225333	0,5	1,020400
7,233667	0,5	0,972200
7,242000	0,5	0,926200
7,250333	0,5	0,891600
7,258667	0,5	0,862500
7,267000	0,5	0,841250
7,275333	0,5	0,824150
7,283667	0,5	0,813650
7,292000	0,5	0,806000
7,300333	0,5	0,812150
7,308667	0,5	0,831650
7,317000	0,5	0,856600
7,325333	0,5	0,886400
7,333667	0,5	0,930500
7,342000	0,5	0,977350
7,350333	0,5	1,018150
7,358667	0,5	1,050750
7,367000	0,5	1,077400
7,375333	0,5	1,101350
7,383667	0,5	1,131700
7,392000	0,5	1,184100
7,400333	0,5	1,251800
7,408667	0,5	1,351350
7,417000	0,5	1,470750
7,425333	0,5	1,601350
7,433667	0,5	1,726000
7,442000	0,5	1,813050
7,450333	0,5	1,857600
7,458667	0,5	1,842550
7,467000	0,5	1,764250
7,475333	0,5	1,645150
7,483667	0,5	1,504700
7,492000	0,5	1,359300
7,500333	0,5	1,228000
7,508667	0,5	1,113700
7,517000	0,5	1,032200
7,525333	0,5	0,967200
7,533667	0,5	0,924400
7,542000	0,5	0,896300
7,550333	0,5	0,886200
7,558667	0,5	0,886500
7,567000	0,5	0,901700
7,575333	0,5	0,925150
7,583667	0,5	0,962050
7,592000	0,5	1,003650
7,600333	0,5	1,051800
7,608667	0,5	1,081700
7,617000	0,5	1,104950
7,625333	0,5	1,111300
7,633667	0,5	1,112700
7,642000	0,5	1,102750
7,650333	0,5	1,085350
7,658667	0,5	1,064700
7,667000	0,5	1,045100
7,675333	0,5	1,029650
7,683667	0,5	1,018600
7,692000	0,5	1,011800
7,700333	0,5	1,015050
7,708667	0,5	1,029550
7,717000	0,5	1,058650
7,725333	0,5	1,095500
7,733667	0,5	1,143300
7,742000	0,5	1,192950
7,750333	0,5	1,228350
7,758667	0,5	1,238000
7,767000	0,5	1,216550
7,775333	0,5	1,171550
7,783667	0,5	1,109200
7,792000	0,5	1,052150
7,800333	0,5	1,004850
7,808667	0,5	0,967600
7,817000	0,5	0,940450
7,825333	0,5	0,920600
7,833667	0,5	0,906550
7,842000	0,5	0,898600
7,850333	0,5	0,897750
7,858667	0,5	0,908500
7,867000	0,5	0,925700
7,875333	0,5	0,953950
7,883667	0,5	0,986800
7,892000	0,5	1,025800
7,900333	0,5	1,070250
7,908667	0,5	1,112350
7,917000	0,5	1,156100
7,925333	0,5	1,205650
7,933667	0,5	1,245150
7,942000	0,5	1,282650
7,950333	0,5	1,318450
7,958667	0,5	1,342550
7,967000	0,5	1,358100
7,975333	0,5	1,362400
7,983667	0,5	1,357550
7,992000	0,5	1,345000
8,000333	0,5	1,332300
8,008667	0,5	1,327800
8,017000	0,5	1,320400
8,025333	0,5	1,307150
8,033667	0,5	1,283500
8,042000	0,5	1,254250
8,050333	0,5	1,212200
8,058667	0,5	1,172800
8,067000	0,5	1,130700
8,075333	0,5	1,093100
8,083667	0,5	1,066550
8,092000	0,5	1,045100
8,100333	0,5	1,031350
8,108667	0,5	1,032550
8,117000	0,5	1,048500
8,125333	0,5	1,092100
8,133667	0,5	1,153700
8,142000	0,5	1,246050
8,150333	0,5	1,348850
8,158667	0,5	1,447750
8,167000	0,5	1,515700
8,175333	0,5	1,534350
8,183667	0,5	1,497700
8,192000	0,5	1,427650
8,200333	0,5	1,336050
8,208667	0,5	1,252550
8,217000	0,5	1,188300
8,225333	0,5	1,157200
8,233667	0,5	1,145100
8,242000	0,5	1,146700
8,250333	0,5	1,148050
8,258667	0,5	1,154200
8,267000	0,5	1,162450
8,275333	0,5	1,170250
8,283667	0,5	1,196250
8,292000	0,5	1,243250
8,300333	0,5	1,326600
8,308667	0,5	1,460100
8,317000	0,5	1,667550
8,325333	0,5	1,974300
8,333667	0,5	2,409450
8,342000	0,5	2,978800
8,350333	0,5	3,676850
8,358667	0,5	4,486800
8,367000	0,5	5,399600
8,375333	0,5	6,412000
8,383667	0,5	7,558150
8,392000	0,5	8,934400
8,400333	0,5	10,814650
8,408667	0,5	13,717850
8,417000	0,5	18,533750
8,425333	0,5	26,430800
8,433667	0,5	38,430001
8,442000	0,5	54,714301
8,450333	0,5	73,972151
8,458667	0,5	93,492751
8,467000	0,5	110,039602
8,475333	0,5	121,139902
8,483667	0,5	125,652452
8,492000	0,5	123,388952
8,500333	0,5	114,857802
8,508667	0,5	101,212602
8,517000	0,5	84,351001
8,525333	0,5	66,694451
8,533667	0,5	50,480501
8,542000	0,5	37,034351
8,550333	0,5	26,743450
8,558667	0,5	19,337850
8,567000	0,5	14,256900
8,575333	0,5	10,880200
8,583667	0,5	8,678200
8,592000	0,5	7,236000
8,600333	0,5	6,262400
8,608667	0,5	5,579400
8,617000	0,5	5,059700
8,625333	0,5	4,649550
8,633667	0,5	4,312900
8,642000	0,5	4,020800
8,650333	0,5	3,753300
8,658667	0,5	3,501450
8,667000	0,5	3,272650
8,675333	0,5	3,067100
8,683667	0,5	2,902950
8,692000	0,5	2,783600
8,700333	0,5	2,713550
8,708667	0,5	2,686650
8,717000	0,5	2,688650
8,725333	0,5	2,699550
8,733667	0,5	2,697800
8,742000	0,5	2,676150
8,750333	0,5	2,624200
8,758667	0,5	2,557950
8,767000	0,5	2,483250
8,775333	0,5	2,401300
8,783667	0,5	2,332400
8,792000	0,5	2,250000
8,800333	0,5	2,159850
8,808667	0,5	2,059800
8,817000	0,5	1,966700
8,825333	0,5	1,884300
8,833667	0,5	1,830150
8,842000	0,5	1,798400
8,850333	0,5	1,788300
8,858667	0,5	1,782250
8,867000	0,5	1,770350
8,875333	0,5	1,749250
8,883667	0,5	1,715600
8,892000	0,5	1,676100
8,900333	0,5	1,640400
8,908667	0,5	1,600650
8,917000	0,5	1,564300
8,925333	0,5	1,538950
8,933667	0,5	1,517050
8,942000	0,5	1,497700
8,950333	0,5	1,481000
8,958667	0,5	1,466550
8,967000	0,5	1,443200
8,975333	0,5	1,414050
8,983667	0,5	1,371850
8,992000	0,5	1,327000
9,000333	0,5	1,281700
9,008667	0,5	1,248550
9,017000	0,5	1,221700
9,025333	0,5	1,202700
9,033667	0,5	1,189700
9,042000	0,5	1,177600
9,050333	0,5	1,166850
9,058667	0,5	1,156500
9,067000	0,5	1,148400
9,075333	0,5	1,144650
9,083667	0,5	1,144600
9,092000	0,5	1,142900
9,100333	0,5	1,141550
9,108667	0,5	1,148500
9,117000	0,5	1,163400
9,125333	0,5	1,175350
9,133667	0,5	1,188950
9,142000	0,5	1,203550
9,150333	0,5	1,217300
9,158667	0,5	1,235800
9,167000	0,5	1,260950
9,175333	0,5	1,296250
9,183667	0,5	1,344900
9,192000	0,5	1,400850
9,200333	0,5	1,455150
9,208667	0,5	1,492750
9,217000	0,5	1,501450
9,225333	0,5	1,475450
9,233667	0,5	1,415400
9,242000	0,5	1,339450
9,250333	0,5	1,259300
9,258667	0,5	1,192100
9,267000	0,5	1,141300
9,275333	0,5	1,107050
9,283667	0,5	1,079850
9,292000	0,5	1,061300
9,300333	0,5	1,043400
9,308667	0,5	1,029450
9,317000	0,5	1,011100
9,325333	0,5	0,997350
9,333667	0,5	0,987900
9,342000	0,5	0,978850
9,350333	0,5	0,972600
9,358667	0,5	0,965350
9,367000	0,5	0,969900
9,375333	0,5	0,978350
9,383667	0,5	0,985450
9,392000	0,5	0,996300
9,400333	0,5	1,005950
9,408667	0,5	1,014900
9,417000	0,5	1,018300
9,425333	0,5	1,015900
9,433667	0,5	1,007350
9,442000	0,5	0,994150
9,450333	0,5	0,981650
9,458667	0,5	0,975150
9,467000	0,5	0,973450
9,475333	0,5	0,967050
9,483667	0,5	0,968150
9,492000	0,5	0,963000
9,500333	0,5	0,963200
9,508667	0,5	0,962100
9,517000	0,5	0,957150
9,525333	0,5	0,953750
9,533667	0,5	0,951900
9,542000	0,5	0,948350
9,550333	0,5	0,942700
9,558667	0,5	0,943850
9,567000	0,5	0,945700
9,575333	0,5	0,955800
9,583667	0,5	0,965850
9,592000	0,5	0,983900
9,600333	0,5	1,005550
9,608667	0,5	1,031350
9,617000	0,5	1,050350
9,625333	0,5	1,063100
9,633667	0,5	1,072000
9,642000	0,5	1,080400
9,650333	0,5	1,102950
9,658667	0,5	1,140650
9,667000	0,5	1,197100
9,675333	0,5	1,264150
9,683667	0,5	1,334750
9,692000	0,5	1,398800
9,700333	0,5	1,442500
9,708667	0,5	1,463000
9,717000	0,5	1,460800
9,725333	0,5	1,438000
9,733667	0,5	1,393350
9,742000	0,5	1,344600
9,750333	0,5	1,293150
9,758667	0,5	1,244100
9,767000	0,5	1,200550
9,775333	0,5	1,159450
9,783667	0,5	1,124250
9,792000	0,5	1,091550
9,800333	0,5	1,065100
9,808667	0,5	1,051600
9,817000	0,5	1,059450
9,825333	0,5	1,093600
9,833667	0,5	1,158900
9,842000	0,5	1,253000
9,850333	0,5	1,372950
9,858667	0,5	1,494300
9,867000	0,5	1,602600
9,875333	0,5	1,665000
9,883667	0,5	1,669200
9,892000	0,5	1,626000
9,900333	0,5	1,546100
9,908667	0,5	1,449300
9,917000	0,5	1,365450
9,925333	0,5	1,290900
9,933667	0,5	1,235850
9,942000	0,5	1,194550
9,950333	0,5	1,157350
9,958667	0,5	1,113050
9,967000	0,5	1,074350
9,975333	0,5	1,025000
9,983667	0,5	0,975300
9,992000	0,5	0,936300
10,000333	0,5	0,903850
10,008667	0,5	0,886050
10,017000	0,5	0,875700
10,025333	0,5	0,878400
10,033667	0,5	0,883250
10,042000	0,5	0,891700
10,050333	0,5	0,903500
10,058667	0,5	0,918900
10,067000	0,5	0,928800
10,075333	0,5	0,936600
10,083667	0,5	0,947850
10,092000	0,5	0,954400
10,100333	0,5	0,968250
10,108667	0,5	0,988300
10,117000	0,5	1,027550
10,125333	0,5	1,077300
10,133667	0,5	1,140150
10,142000	0,5	1,211900
10,150333	0,5	1,298250
10,158667	0,5	1,390500
10,167000	0,5	1,497700
10,175333	0,5	1,611000
10,183667	0,5	1,745900
10,192000	0,5	1,884800
10,200333	0,5	2,031350
10,208667	0,5	2,162800
10,217000	0,5	2,273250
10,225333	0,5	2,350100
10,233667	0,5	2,379450
10,242000	0,5	2,363400
10,250333	0,5	2,287800
10,258667	0,5	2,169300
10,267000	0,5	2,019450
10,275333	0,5	1,848600
10,283667	0,5	1,684950
10,292000	0,5	1,549100
10,300333	0,5	1,462750
10,308667	0,5	1,434250
10,317000	0,5	1,463550
10,325333	0,5	1,557400
10,333667	0,5	1,706650
10,342000	0,5	1,886400
10,350333	0,5	2,052750
10,358667	0,5	2,174300
10,367000	0,5	2,208750
10,375333	0,5	2,147550
10,383667	0,5	1,997100
10,392000	0,5	1,788850
10,400333	0,5	1,557800
10,408667	0,5	1,354400
10,417000	0,5	1,177550
10,425333	0,5	1,046700
10,433667	0,5	0,955450
10,442000	0,5	0,908650
10,450333	0,5	0,891900
10,458667	0,5	0,889900
10,467000	0,5	0,902750
10,475333	0,5	0,915750
10,483667	0,5	0,934000
10,492000	0,5	0,951200
10,500333	0,5	0,972500
10,508667	0,5	0,994050
10,517000	0,5	1,010400
10,525333	0,5	1,021500
10,533667	0,5	1,010450
10,542000	0,5	0,993800
10,550333	0,5	0,955550
10,558667	0,5	0,918400
10,567000	0,5	0,874500
10,575333	0,5	0,831150
10,583667	0,5	0,792150
10,592000	0,5	0,751900
10,600333	0,5	0,724300
10,608667	0,5	0,698850
10,617000	0,5	0,671350
10,625333	0,5	0,656450
10,633667	0,5	0,644550
10,642000	0,5	0,646250
10,650333	0,5	0,659550
10,658667	0,5	0,679400
10,667000	0,5	0,706400
10,675333	0,5	0,741550
10,683667	0,5	0,781100
10,692000	0,5	0,821750
10,700333	0,5	0,870600
10,708667	0,5	0,944500
10,717000	0,5	1,037750
10,725333	0,5	1,158200
10,733667	0,5	1,294300
10,742000	0,5	1,429800
10,750333	0,5	1,534500
10,758667	0,5	1,580550
10,767000	0,5	1,552250
10,775333	0,5	1,466000
10,783667	0,5	1,335450
10,792000	0,5	1,200000
10,800333	0,5	1,073450
10,808667	0,5	0,984550
10,817000	0,5	0,928800
10,825333	0,5	0,912500
10,833667	0,5	0,917850
10,842000	0,5	0,934000
10,850333	0,5	0,964600
10,858667	0,5	0,980500
10,867000	0,5	0,977050
10,875333	0,5	0,956000
10,883667	0,5	0,920650
10,892000	0,5	0,877200
10,900333	0,5	0,830600
10,908667	0,5	0,781150
10,917000	0,5	0,740300
10,925333	0,5	0,707850
10,933667	0,5	0,686100
10,942000	0,5	0,677400
10,950333	0,5	0,683100
10,958667	0,5	0,694950
10,967000	0,5	0,724600
10,975333	0,5	0,764150
10,983667	0,5	0,808600
10,992000	0,5	0,846900
11,000333	0,5	0,886650
11,008667	0,5	0,913750
11,017000	0,5	0,935550
11,025333	0,5	0,961800
11,033667	0,5	1,016100
11,042000	0,5	1,103950
11,050333	0,5	1,227550
11,058667	0,5	1,373250
11,067000	0,5	1,522750
11,075333	0,5	1,644300
11,083667	0,5	1,709650
11,092000	0,5	1,715850
11,100333	0,5	1,664500
11,108667	0,5	1,576850
11,117000	0,5	1,473000
11,125333	0,5	1,368300
11,133667	0,5	1,260600
11,142000	0,5	1,161550
11,150333	0,5	1,074700
11,158667	0,5	0,990100
11,167000	0,5	0,904800
11,175333	0,5	0,834000
11,183667	0,5	0,770950
11,192000	0,5	0,725650
11,200333	0,5	0,688500
11,208667	0,5	0,660400
11,217000	0,5	0,642650
11,225333	0,5	0,632300
11,233667	0,5	0,637200
11,242000	0,5	0,647750
11,250333	0,5	0,669550
11,258667	0,5	0,701050
11,267000	0,5	0,756150
11,275333	0,5	0,828800
11,283667	0,5	0,923600
11,292000	0,5	1,045600
11,300333	0,5	1,180400
11,308667	0,5	1,313250
11,317000	0,5	1,417350
11,325333	0,5	1,467350
11,333667	0,5	1,463750
11,342000	0,5	1,393100
11,350333	0,5	1,275250
11,358667	0,5	1,128300
11,367000	0,5	0,983150
11,375333	0,5	0,857700
11,383667	0,5	0,760850
11,392000	0,5	0,696250
11,400333	0,5	0,663100
11,408667	0,5	0,648850
11,417000	0,5	0,647500
11,425333	0,5	0,659100
11,433667	0,5	0,665600
11,442000	0,5	0,683950
11,450333	0,5	0,691650
11,458667	0,5	0,693350
11,467000	0,5	0,694100
11,475333	0,5	0,698750
11,483667	0,5	0,718250
11,492000	0,5	0,754000
11,500333	0,5	0,790850
11,508667	0,5	0,833600
11,517000	0,5	0,871650
11,525333	0,5	0,876800
11,533667	0,5	0,859950
11,542000	0,5	0,831700
11,550333	0,5	0,803050
11,558667	0,5	0,783850
11,567000	0,5	0,789850
11,575333	0,5	0,813500
11,583667	0,5	0,847250
11,592000	0,5	0,880400
11,600333	0,5	0,921850
11,608667	0,5	0,971250
11,617000	0,5	1,065350
11,625333	0,5	1,231400
11,633667	0,5	1,444550
11,642000	0,5	1,471250
11,650333	0,5	1,207750
11,658667	0,5	0,805000
11,667000	0,5	0,470750
11,675333	0,5	0,212150
11,683667	0,5	0,037900
11,692000	0,5	-0,066500
11,700333	0,5	-0,119700
11,708667	0,5	-0,138900
11,717000	0,5	-0,147000
11,725333	0,5	-0,155650
11,733667	0,5	-0,160450
11,742000	0,5	-0,165250
11,750333	0,5	-0,183600
11,758667	0,5	-0,201850
11,767000	0,5	-0,229750
11,775333	0,5	-0,251700
11,783667	0,5	-0,275300
11,792000	0,5	-0,300200
11,800333	0,5	-0,319600
11,808667	0,5	-0,333400
11,817000	0,5	-0,349900
11,825333	0,5	-0,356250
11,833667	0,5	-0,360900
11,842000	0,5	-0,358850
11,850333	0,5	-0,351050
11,858667	0,5	-0,345800
11,867000	0,5	-0,336550
11,875333	0,5	-0,335450
11,883667	0,5	-0,324400
11,892000	0,5	-0,315450
11,900333	0,5	-0,316150
11,908667	0,5	-0,311050
11,917000	0,5	-0,312650
11,925333	0,5	-0,310400
11,933667	0,5	-0,304600
11,942000	0,5	-0,301750
11,950333	0,5	-0,296550
11,958667	0,5	-0,295650
11,967000	0,5	-0,295850
11,975333	0,5	-0,298750
11,983667	0,5	-0,302750
11,992000	0,5	-0,312950
12,000333	0,5	-0,321500
12,008667	0,5	-0,325650
12,017000	0,5	-0,338650
12,025333	0,5	-0,350200
12,033667	0,5	-0,354200
12,042000	0,5	-0,357600
12,050333	0,5	-0,368300
12,058667	0,5	-0,378050
12,067000	0,5	-0,386900
12,075333	0,5	-0,391500
12,083667	0,5	-0,395600
12,092000	0,5	-0,395950
12,100333	0,5	-0,400800
12,108667	0,5	-0,401400
12,117000	0,5	-0,405950
12,125333	0,5	-0,407600
12,133667	0,5	-0,406050
12,142000	0,5	-0,402650
12,150333	0,5	-0,399450
12,158667	0,5	-0,391500
12,167000	0,5	-0,393600
12,175333	0,5	-0,386650
12,183667	0,5	-0,377300
12,192000	0,5	-0,368550
12,200333	0,5	-0,368000
12,208667	0,5	-0,364250
12,217000	0,5	-0,355300
12,225333	0,5	-0,341550
12,233667	0,5	-0,328550
12,242000	0,5	-0,317300
12,250333	0,5	-0,304550
12,258667	0,5	-0,292900
12,267000	0,5	-0,284700
12,275333	0,5	-0,277050
12,283667	0,5	-0,272750
12,292000	0,5	-0,268200
12,300333	0,5	-0,264050
12,308667	0,5	-0,254150
12,317000	0,5	-0,259350
12,325333	0,5	-0,246050
12,333667	0,5	-0,237900
12,342000	0,5	-0,232400
12,350333	0,5	-0,230250
12,358667	0,5	-0,233250
12,367000	0,5	-0,231900
12,375333	0,5	-0,232600
12,383667	0,5	-0,234800
12,392000	0,5	-0,239900
12,400333	0,5	-0,243800
12,408667	0,5	-0,246450
12,417000	0,5	-0,247050
12,425333	0,5	-0,245800
12,433667	0,5	-0,243050
12,442000	0,5	-0,237100
12,450333	0,5	-0,237150
12,458667	0,5	-0,227200
12,467000	0,5	-0,226200
12,475333	0,5	-0,214050
12,483667	0,5	-0,211200
12,492000	0,5	-0,203650
12,500333	0,5	-0,201800
12,508667	0,5	-0,198000
12,517000	0,5	-0,193050
12,525333	0,5	-0,181800
12,533667	0,5	-0,175400
12,542000	0,5	-0,167050
12,550333	0,5	-0,160400
12,558667	0,5	-0,151450
12,567000	0,5	-0,143350
12,575333	0,5	-0,137350
12,583667	0,5	-0,128500
12,592000	0,5	-0,119900
12,600333	0,5	-0,107000
12,608667	0,5	-0,099700
12,617000	0,5	-0,090150
12,625333	0,5	-0,073700
12,633667	0,5	-0,066750
12,642000	0,5	-0,062700
12,650333	0,5	-0,060450
12,658667	0,5	-0,062750
12,667000	0,5	-0,052200
12,675333	0,5	-0,051750
12,683667	0,5	-0,041500
12,692000	0,5	-0,037500
12,700333	0,5	-0,027800
12,708667	0,5	-0,017000
12,717000	0,5	-0,005150
12,725333	0,5	0,008150
12,733667	0,5	0,025250
12,742000	0,5	0,047850
12,750333	0,5	0,065250
12,758667	0,5	0,081250
12,767000	0,5	0,109950
12,775333	0,5	0,135700
12,783667	0,5	0,159600
12,792000	0,5	0,184300
12,800333	0,5	0,204400
12,808667	0,5	0,229750
12,817000	0,5	0,254150
12,825333	0,5	0,279350
12,833667	0,5	0,295050
12,842000	0,5	0,307350
12,850333	0,5	0,311950
12,858667	0,5	0,311500
12,867000	0,5	0,301800
12,875333	0,5	0,288000
12,883667	0,5	0,271750
12,892000	0,5	0,257050
12,900333	0,5	0,232600
12,908667	0,5	0,208400
12,917000	0,5	0,194750
12,925333	0,5	0,185400
12,933667	0,5	0,173900
12,942000	0,5	0,157700
12,950333	0,5	0,152500
12,958667	0,5	0,146600
12,967000	0,5	0,148850
12,975333	0,5	0,144650
12,983667	0,5	0,147850
12,992000	0,5	0,140500
13,000333	0,5	0,143950
13,008667	0,5	0,137250
13,017000	0,5	0,142950
13,025333	0,5	0,142500
13,033667	0,5	0,147850
13,042000	0,5	0,150300
13,050333	0,5	0,155500
13,058667	0,5	0,153900
13,067000	0,5	0,160600
13,075333	0,5	0,160950
13,083667	0,5	0,162500
13,092000	0,5	0,160250
13,100333	0,5	0,162600
13,108667	0,5	0,167850
13,117000	0,5	0,171350
13,125333	0,5	0,173950
13,133667	0,5	0,179800
13,142000	0,5	0,184500
13,150333	0,5	0,189500
13,158667	0,5	0,194150
13,167000	0,5	0,195500
13,175333	0,5	0,198050
13,183667	0,5	0,202950
13,192000	0,5	0,200900
13,200333	0,5	0,187350
13,208667	0,5	0,184250
13,217000	0,5	0,182450
13,225333	0,5	0,179900
13,233667	0,5	0,174250
13,242000	0,5	0,162350
13,250333	0,5	0,162850
13,258667	0,5	0,165100
13,267000	0,5	0,161250
13,275333	0,5	0,156900
13,283667	0,5	0,158150
13,292000	0,5	0,157100
13,300333	0,5	0,157050
13,308667	0,5	0,155000
13,317000	0,5	0,158600
13,325333	0,5	0,153350
13,333667	0,5	0,158350
13,342000	0,5	0,160800
13,350333	0,5	0,156400
13,358667	0,5	0,163850
13,367000	0,5	0,172950
13,375333	0,5	0,181850
13,383667	0,5	0,202100
13,392000	0,5	0,225500
13,400333	0,5	0,272200
13,408667	0,5	0,324200
13,417000	0,5	0,379350
13,425333	0,5	0,433050
13,433667	0,5	0,471500
13,442000	0,5	0,493200
13,450333	0,5	0,493300
13,458667	0,5	0,472950
13,467000	0,5	0,431350
13,475333	0,5	0,387900
13,483667	0,5	0,341500
13,492000	0,5	0,308500
13,500333	0,5	0,273900
13,508667	0,5	0,259700
13,517000	0,5	0,235100
13,525333	0,5	0,220650
13,533667	0,5	0,201500
13,542000	0,5	0,184650
13,550333	0,5	0,175350
13,558667	0,5	0,162950
13,567000	0,5	0,154600
13,575333	0,5	0,154150
13,583667	0,5	0,152050
13,592000	0,5	0,164150
13,600333	0,5	0,179100
13,608667	0,5	0,202200
13,617000	0,5	0,234450
13,625333	0,5	0,278000
13,633667	0,5	0,328550
13,642000	0,5	0,379100
13,650333	0,5	0,432550
13,658667	0,5	0,479150
13,667000	0,5	0,497500
13,675333	0,5	0,488200
13,683667	0,5	0,451550
13,692000	0,5	0,399600
13,700333	0,5	0,355150
13,708667	0,5	0,305250
13,717000	0,5	0,272700
13,725333	0,5	0,247550
13,733667	0,5	0,243350
13,742000	0,5	0,248800
13,750333	0,5	0,261300
13,758667	0,5	0,272300
13,767000	0,5	0,287450
13,775333	0,5	0,294400
13,783667	0,5	0,294700
13,792000	0,5	0,283000
13,800333	0,5	0,286750
13,808667	0,5	0,309450
13,817000	0,5	0,346700
13,825333	0,5	0,403750
13,833667	0,5	0,469300
13,842000	0,5	0,539100
13,850333	0,5	0,579350
13,858667	0,5	0,597850
13,867000	0,5	0,571150
13,875333	0,5	0,528750
13,883667	0,5	0,458450
13,892000	0,5	0,399300
13,900333	0,5	0,343450
13,908667	0,5	0,308750
13,917000	0,5	0,283350
13,925333	0,5	0,263950
13,933667	0,5	0,236450
13,942000	0,5	0,210700
13,950333	0,5	0,195100
13,958667	0,5	0,187800
13,967000	0,5	0,194600
13,975333	0,5	0,214700
13,983667	0,5	0,267850
13,992000	0,5	0,340900
14,000333	0,5	0,407950
14,008667	0,5	0,463150
14,017000	0,5	0,499700
14,025333	0,5	0,507050
14,033667	0,5	0,490250
14,042000	0,5	0,452400
14,050333	0,5	0,401600
14,058667	0,5	0,343850
14,067000	0,5	0,290500
14,075333	0,5	0,242400
14,083667	0,5	0,189850
14,092000	0,5	0,164900
14,100333	0,5	0,151750
14,108667	0,5	0,154050
14,117000	0,5	0,179900
14,125333	0,5	0,211100
14,133667	0,5	0,271150
14,142000	0,5	0,338300
14,150333	0,5	0,388800
14,158667	0,5	0,423700
14,167000	0,5	0,425700
14,175333	0,5	0,405500
14,183667	0,5	0,363700
14,192000	0,5	0,315100
14,200333	0,5	0,251000
14,208667	0,5	0,200700
14,217000	0,5	0,162750
14,225333	0,5	0,139900
14,233667	0,5	0,114700
14,242000	0,5	0,127100
14,250333	0,5	0,146050
14,258667	0,5	0,164550
14,267000	0,5	0,186400
14,275333	0,5	0,201550
14,283667	0,5	0,219150
14,292000	0,5	0,222200
14,300333	0,5	0,201700
14,308667	0,5	0,175350
14,317000	0,5	0,144150
14,325333	0,5	0,109300
14,333667	0,5	0,076400
14,342000	0,5	0,052600
14,350333	0,5	0,041650
14,358667	0,5	0,032700
14,367000	0,5	0,041800
14,375333	0,5	0,051750
14,383667	0,5	0,051300
14,392000	0,5	0,065950
14,400333	0,5	0,067900
14,408667	0,5	0,062000
14,417000	0,5	0,058350
14,425333	0,5	0,044600
14,433667	0,5	0,056700
14,442000	0,5	0,066700
14,450333	0,5	0,094400
14,458667	0,5	0,120900
14,467000	0,5	0,158650
14,475333	0,5	0,196200
14,483667	0,5	0,214450
14,492000	0,5	0,216850
14,500333	0,5	0,193650
14,508667	0,5	0,166000
14,517000	0,5	0,123850
14,525333	0,5	0,075050
14,533667	0,5	0,035150
14,542000	0,5	0,006700
14,550333	0,5	-0,024700
14,558667	0,5	-0,043450
14,567000	0,5	-0,058550
14,575333	0,5	-0,061400
14,583667	0,5	-0,058050
14,592000	0,5	-0,046850
14,600333	0,5	-0,050000
14,608667	0,5	-0,039700
14,617000	0,5	-0,039700
14,625333	0,5	-0,038950
14,633667	0,5	-0,042700
14,642000	0,5	-0,050400
14,650333	0,5	-0,061550
14,658667	0,5	-0,068650
14,667000	0,5	-0,072800
14,675333	0,5	-0,079400
14,683667	0,5	-0,074700
14,692000	0,5	-0,069500
14,700333	0,5	-0,079350
14,708667	0,5	-0,064450
14,717000	0,5	-0,064700
14,725333	0,5	-0,061650
14,733667	0,5	-0,057400
14,742000	0,5	-0,068850
14,750333	0,5	-0,072450
14,758667	0,5	-0,084400
14,767000	0,5	-0,093700
14,775333	0,5	-0,099900
14,783667	0,5	-0,103800
14,792000	0,5	-0,110600
14,800333	0,5	-0,109550
14,808667	0,5	-0,095350
14,817000	0,5	-0,086250
14,825333	0,5	-0,080600
14,833667	0,5	-0,064850
14,842000	0,5	-0,058650
14,850333	0,5	-0,061450
14,858667	0,5	-0,070200
14,867000	0,5	-0,080250
14,875333	0,5	-0,080250
14,883667	0,5	-0,091400
14,892000	0,5	-0,101200
14,900333	0,5	-0,109350
14,908667	0,5	-0,117250
14,917000	0,5	-0,128600
14,925333	0,5	-0,132150
14,933667	0,5	-0,145450
14,942000	0,5	-0,150800
14,950333	0,5	-0,156200
14,958667	0,5	-0,155150
14,967000	0,5	-0,169600
14,975333	0,5	-0,168850
14,983667	0,5	-0,165850
14,992000	0,5	-0,169900
15,000333	0,5	-0,170600
15,008667	0,5	-0,174500
15,017000	0,5	-0,165450
15,025333	0,5	-0,163800
15,033667	0,5	-0,155600
15,042000	0,5	-0,160000
15,050333	0,5	-0,161000
15,058667	0,5	-0,172250
15,067000	0,5	-0,179450
15,075333	0,5	-0,190850
15,083667	0,5	-0,200800
15,092000	0,5	-0,214500
15,100333	0,5	-0,217400
15,108667	0,5	-0,219200
15,117000	0,5	-0,230400
15,125333	0,5	-0,224250
15,133667	0,5	-0,224600
15,142000	0,5	-0,230300
15,150333	0,5	-0,231550
15,158667	0,5	-0,247550
15,167000	0,5	-0,240950
15,175333	0,5	-0,236000
15,183667	0,5	-0,234150
15,192000	0,5	-0,235500
15,200333	0,5	-0,233600
15,208667	0,5	-0,226700
15,217000	0,5	-0,228100
15,225333	0,5	-0,223500
15,233667	0,5	-0,226600
15,242000	0,5	-0,224800
15,250333	0,5	-0,226700
15,258667	0,5	-0,223200
15,267000	0,5	-0,232500
15,275333	0,5	-0,225100
15,283667	0,5	-0,237100
15,292000	0,5	-0,246900
15,300333	0,5	-0,263600
15,308667	0,5	-0,271550
15,317000	0,5	-0,266300
15,325333	0,5	-0,268150
15,333667	0,5	-0,268600
15,342000	0,5	-0,264850
15,350333	0,5	-0,264250
15,358667	0,5	-0,260950
15,367000	0,5	-0,254050
15,375333	0,5	-0,253550
15,383667	0,5	-0,248450
15,392000	0,5	-0,252850
15,400333	0,5	-0,238150
15,408667	0,5	-0,242300
15,417000	0,5	-0,240300
15,425333	0,5	-0,230450
15,433667	0,5	-0,223350
15,442000	0,5	-0,221700
15,450333	0,5	-0,217350
15,458667	0,5	-0,224800
15,467000	0,5	-0,208100
15,475333	0,5	-0,208350
15,483667	0,5	-0,203600
15,492000	0,5	-0,211450
15,500333	0,5	-0,208850
15,508667	0,5	-0,207500
15,517000	0,5	-0,206850
15,525333	0,5	-0,199450
15,533667	0,5	-0,201300
15,542000	0,5	-0,183800
15,550333	0,5	-0,176800
15,558667	0,5	-0,166200
15,567000	0,5	-0,152650
15,575333	0,5	-0,138550
15,583667	0,5	-0,129350
15,592000	0,5	-0,128500
15,600333	0,5	-0,129900
15,608667	0,5	-0,126950
15,617000	0,5	-0,129700
15,625333	0,5	-0,127800
15,633667	0,5	-0,138750
15,642000	0,5	-0,150750
15,650333	0,5	-0,165350
15,658667	0,5	-0,175550
15,667000	0,5	-0,187850
15,675333	0,5	-0,200000
15,683667	0,5	-0,204900
15,692000	0,5	-0,215300
15,700333	0,5	-0,221400
15,708667	0,5	-0,227200
15,717000	0,5	-0,224600
15,725333	0,5	-0,229300
15,733667	0,5	-0,234400
15,742000	0,5	-0,241000
15,750333	0,5	-0,242100
15,758667	0,5	-0,240550
15,767000	0,5	-0,229500
15,775333	0,5	-0,227650
15,783667	0,5	-0,223000
15,792000	0,5	-0,232900
15,800333	0,5	-0,231050
15,808667	0,5	-0,238000
15,817000	0,5	-0,243850
15,825333	0,5	-0,249650
15,833667	0,5	-0,252350
15,842000	0,5	-0,248650
15,850333	0,5	-0,256450
15,858667	0,5	-0,244750
15,867000	0,5	-0,230600
15,875333	0,5	-0,220200
15,883667	0,5	-0,217850
15,892000	0,5	-0,224900
15,900333	0,5	-0,230850
15,908667	0,5	-0,229250
15,917000	0,5	-0,239950
15,925333	0,5	-0,248600
15,933667	0,5	-0,264450
15,942000	0,5	-0,267450
15,950333	0,5	-0,281100
15,958667	0,5	-0,285800
15,967000	0,5	-0,295600
15,975333	0,5	-0,298850
15,983667	0,5	-0,298600
15,992000	0,5	-0,299100
16,000333	0,5	-0,311500
16,008667	0,5	-0,299350
16,017000	0,5	-0,296550
16,025333	0,5	-0,301200
16,033667	0,5	-0,304200
16,042000	0,5	-0,314900
16,050333	0,5	-0,303750
16,058667	0,5	-0,301700
16,067000	0,5	-0,296300
16,075333	0,5	-0,302550
16,083667	0,5	-0,300800
16,092000	0,5	-0,307350
16,100333	0,5	-0,303650
16,108667	0,5	-0,299650
16,117000	0,5	-0,303200
16,125333	0,5	-0,306500
16,133667	0,5	-0,301450
16,142000	0,5	-0,310100
16,150333	0,5	-0,308650
16,158667	0,5	-0,297550
16,167000	0,5	-0,297500
16,175333	0,5	-0,302300
16,183667	0,5	-0,309900
16,192000	0,5	-0,320700
16,200333	0,5	-0,314700
16,208667	0,5	-0,313000
16,217000	0,5	-0,315100
16,225333	0,5	-0,314300
16,233667	0,5	-0,316600
16,242000	0,5	-0,314350
16,250333	0,5	-0,317300
16,258667	0,5	-0,314800
16,267000	0,5	-0,318700
16,275333	0,5	-0,318750
16,283667	0,5	-0,314850
16,292000	0,5	-0,314650
16,300333	0,5	-0,314400
16,308667	0,5	-0,307500
16,317000	0,5	-0,312750
16,325333	0,5	-0,320100
16,333667	0,5	-0,332300
16,342000	0,5	-0,335750
16,350333	0,5	-0,332450
16,358667	0,5	-0,331350
16,367000	0,5	-0,330900
16,375333	0,5	-0,330150
16,383667	0,5	-0,333800
16,392000	0,5	-0,329700
16,400333	0,5	-0,323150
16,408667	0,5	-0,323550
16,417000	0,5	-0,323900
16,425333	0,5	-0,324050
16,433667	0,5	-0,313650
16,442000	0,5	-0,321850
16,450333	0,5	-0,313000
16,458667	0,5	-0,308200
16,467000	0,5	-0,309100
16,475333	0,5	-0,317800
16,483667	0,5	-0,334250
16,492000	0,5	-0,329100
16,500333	0,5	-0,331500
16,508667	0,5	-0,332250
16,517000	0,5	-0,334450
16,525333	0,5	-0,336100
16,533667	0,5	-0,331950
16,542000	0,5	-0,331050
16,550333	0,5	-0,333000
16,558667	0,5	-0,332650
16,567000	0,5	-0,333900
16,575333	0,5	-0,321750
16,583667	0,5	-0,326600
16,592000	0,5	-0,330950
16,600333	0,5	-0,316700
16,608667	0,5	-0,311350
16,617000	0,5	-0,312300
16,625333	0,5	-0,315650
16,633667	0,5	-0,319700
16,642000	0,5	-0,308100
16,650333	0,5	-0,303050
16,658667	0,5	-0,292100
16,667000	0,5	-0,285300
16,675333	0,5	-0,278950
16,683667	0,5	-0,276700
16,692000	0,5	-0,270100
16,700333	0,5	-0,265550
16,708667	0,5	-0,269000
16,717000	0,5	-0,263700
16,725333	0,5	-0,259000
16,733667	0,5	-0,263450
16,742000	0,5	-0,260550
16,750333	0,5	-0,251200
16,758667	0,5	-0,250350
16,767000	0,5	-0,237800
16,775333	0,5	-0,244650
16,783667	0,5	-0,234400
16,792000	0,5	-0,222700
16,800333	0,5	-0,203150
16,808667	0,5	-0,190000
16,817000	0,5	-0,176350
16,825333	0,5	-0,168150
16,833667	0,5	-0,159900
16,842000	0,5	-0,158850
16,850333	0,5	-0,158800
16,858667	0,5	-0,168950
16,867000	0,5	-0,170850
16,875333	0,5	-0,180400
16,883667	0,5	-0,204850
16,892000	0,5	-0,200200
16,900333	0,5	-0,201150
16,908667	0,5	-0,206350
16,917000	0,5	-0,211900
16,925333	0,5	-0,225550
16,933667	0,5	-0,219000
16,942000	0,5	-0,215450
16,950333	0,5	-0,215350
16,958667	0,5	-0,205000
16,967000	0,5	-0,200600
16,975333	0,5	-0,196500
16,983667	0,5	-0,198400
16,992000	0,5	-0,183400
17,000333	0,5	-0,182700
17,008667	0,5	-0,179100
17,017000	0,5	-0,169600
17,025333	0,5	-0,168350
17,033667	0,5	-0,168900
17,042000	0,5	-0,155300
17,050333	0,5	-0,146600
17,058667	0,5	-0,149600
17,067000	0,5	-0,157500
17,075333	0,5	-0,171000
17,083667	0,5	-0,166550
17,092000	0,5	-0,172900
17,100333	0,5	-0,174200
17,108667	0,5	-0,185800
17,117000	0,5	-0,184050
17,125333	0,5	-0,190150
17,133667	0,5	-0,188200
17,142000	0,5	-0,190850
17,150333	0,5	-0,192950
17,158667	0,5	-0,191000
17,167000	0,5	-0,185950
17,175333	0,5	-0,205400
17,183667	0,5	-0,206650
17,192000	0,5	-0,203350
17,200333	0,5	-0,206350
17,208667	0,5	-0,212900
17,217000	0,5	-0,224950
17,225333	0,5	-0,225550
17,233667	0,5	-0,220750
17,242000	0,5	-0,216800
17,250333	0,5	-0,219500
17,258667	0,5	-0,220800
17,267000	0,5	-0,225400
17,275333	0,5	-0,230800
17,283667	0,5	-0,238600
17,292000	0,5	-0,239100
17,300333	0,5	-0,248650
17,308667	0,5	-0,238250
17,317000	0,5	-0,240000
17,325333	0,5	-0,250550
17,333667	0,5	-0,248150
17,342000	0,5	-0,248050
17,350333	0,5	-0,253950
17,358667	0,5	-0,262300
17,367000	0,5	-0,276900
17,375333	0,5	-0,286350
17,383667	0,5	-0,276850
17,392000	0,5	-0,279700
17,400333	0,5	-0,281050
17,408667	0,5	-0,279400
17,417000	0,5	-0,283350
17,425333	0,5	-0,286600
17,433667	0,5	-0,281350
17,442000	0,5	-0,290150
17,450333	0,5	-0,287250
17,458667	0,5	-0,293950
17,467000	0,5	-0,295750
17,475333	0,5	-0,312900
17,483667	0,5	-0,301550
17,492000	0,5	-0,308650
17,500333	0,5	-0,310500
17,508667	0,5	-0,320750
17,517000	0,5	-0,335100
17,525333	0,5	-0,332650
17,533667	0,5	-0,331050
17,542000	0,5	-0,332450
17,550333	0,5	-0,337200
17,558667	0,5	-0,340600
17,567000	0,5	-0,345350
17,575333	0,5	-0,344250
17,583667	0,5	-0,351050
17,592000	0,5	-0,351700
17,600333	0,5	-0,349900
17,608667	0,5	-0,342800
17,617000	0,5	-0,355750
17,625333	0,5	-0,354000
17,633667	0,5	-0,352250
17,642000	0,5	-0,355350
17,650333	0,5	-0,363550
17,658667	0,5	-0,370550
17,667000	0,5	-0,384950
17,675333	0,5	-0,382900
17,683667	0,5	-0,383900
17,692000	0,5	-0,385250
17,700333	0,5	-0,388700
17,708667	0,5	-0,387550
17,717000	0,5	-0,389650
17,725333	0,5	-0,391650
17,733667	0,5	-0,386600
17,742000	0,5	-0,391000
17,750333	0,5	-0,389150
17,758667	0,5	-0,391450
17,767000	0,5	-0,403450
17,775333	0,5	-0,394100
17,783667	0,5	-0,393150
17,792000	0,5	-0,401550
17,800333	0,5	-0,403700
17,808667	0,5	-0,417450
17,817000	0,5	-0,418250
17,825333	0,5	-0,420250
17,833667	0,5	-0,417700
17,842000	0,5	-0,419850
17,850333	0,5	-0,416500
17,858667	0,5	-0,416350
17,867000	0,5	-0,419850
17,875333	0,5	-0,414250
17,883667	0,5	-0,415600
17,892000	0,5	-0,412600
17,900333	0,5	-0,410200
17,908667	0,5	-0,416200
17,917000	0,5	-0,420050
17,925333	0,5	-0,413050
17,933667	0,5	-0,414750
17,942000	0,5	-0,415350
17,950333	0,5	-0,432300
17,958667	0,5	-0,434650
17,967000	0,5	-0,440600
17,975333	0,5	-0,436750
17,983667	0,5	-0,442300
17,992000	0,5	-0,438050
18,000333	0,5	-0,441350
18,008667	0,5	-0,440700
18,017000	0,5	-0,443050
18,025333	0,5	-0,445300
18,033667	0,5	-0,450650
18,042000	0,5	-0,451900
18,050333	0,5	-0,445150
18,058667	0,5	-0,463350
18,067000	0,5	-0,458900
18,075333	0,5	-0,458300
18,083667	0,5	-0,462300
18,092000	0,5	-0,471050
18,100333	0,5	-0,483650
18,108667	0,5	-0,486300
18,117000	0,5	-0,483450
18,125333	0,5	-0,492050
18,133667	0,5	-0,493550
18,142000	0,5	-0,499250
18,150333	0,5	-0,501100
18,158667	0,5	-0,508000
18,167000	0,5	-0,514300
18,175333	0,5	-0,516100
18,183667	0,5	-0,522350
18,192000	0,5	-0,519000
18,200333	0,5	-0,515800
18,208667	0,5	-0,536100
18,217000	0,5	-0,522600
18,225333	0,5	-0,522050
18,233667	0,5	-0,529900
18,242000	0,5	-0,531250
18,250333	0,5	-0,551250
18,258667	0,5	-0,545150
18,267000	0,5	-0,556050
18,275333	0,5	-0,548400
18,283667	0,5	-0,553950
18,292000	0,5	-0,548400
18,300333	0,5	-0,550850
18,308667	0,5	-0,547150
18,317000	0,5	-0,551700
18,325333	0,5	-0,553550
18,333667	0,5	-0,552100
18,342000	0,5	-0,548500
18,350333	0,5	-0,550200
18,358667	0,5	-0,558200
18,367000	0,5	-0,551200
18,375333	0,5	-0,556750
18,383667	0,5	-0,554150
18,392000	0,5	-0,568650
18,400333	0,5	-0,572850
18,408667	0,5	-0,571250
18,417000	0,5	-0,561100
18,425333	0,5	-0,563200
18,433667	0,5	-0,558350
18,442000	0,5	-0,563600
18,450333	0,5	-0,556350
18,458667	0,5	-0,563400
18,467000	0,5	-0,563150
18,475333	0,5	-0,559250
18,483667	0,5	-0,560350
18,492000	0,5	-0,557750
18,500333	0,5	-0,558550
18,508667	0,5	-0,554400
18,517000	0,5	-0,549300
18,525333	0,5	-0,548350
18,533667	0,5	-0,553750
18,542000	0,5	-0,560450
18,550333	0,5	-0,568550
18,558667	0,5	-0,562750
18,567000	0,5	-0,563600
18,575333	0,5	-0,559000
18,583667	0,5	-0,555850
18,592000	0,5	-0,553000
18,600333	0,5	-0,554050
18,608667	0,5	-0,545900
18,617000	0,5	-0,545250
18,625333	0,5	-0,541100
18,633667	0,5	-0,535450
18,642000	0,5	-0,534250
18,650333	0,5	-0,538050
18,658667	0,5	-0,520850
18,667000	0,5	-0,515700
18,675333	0,5	-0,511000
18,683667	0,5	-0,513400
18,692000	0,5	-0,520300
18,700333	0,5	-0,520050
18,708667	0,5	-0,528900
18,717000	0,5	-0,531750
18,725333	0,5	-0,542150
18,733667	0,5	-0,546850
18,742000	0,5	-0,551600
18,750333	0,5	-0,554650
18,758667	0,5	-0,569200
18,767000	0,5	-0,566800
18,775333	0,5	-0,571250
18,783667	0,5	-0,564600
18,792000	0,5	-0,575300
18,800333	0,5	-0,571400
18,808667	0,5	-0,567800
18,817000	0,5	-0,571850
18,825333	0,5	-0,570650
18,833667	0,5	-0,583100
18,842000	0,5	-0,581050
18,850333	0,5	-0,583000
18,858667	0,5	-0,584800
18,867000	0,5	-0,587250
18,875333	0,5	-0,588650
18,883667	0,5	-0,592400
18,892000	0,5	-0,593650
18,900333	0,5	-0,596350
18,908667	0,5	-0,594550
18,917000	0,5	-0,597150
18,925333	0,5	-0,597800
18,933667	0,5	-0,595750
18,942000	0,5	-0,607850
18,950333	0,5	-0,599400
18,958667	0,5	-0,600300
18,967000	0,5	-0,603600
18,975333	0,5	-0,603900
18,983667	0,5	-0,619550
18,992000	0,5	-0,616750
19,000333	0,5	-0,614800
19,008667	0,5	-0,614750
19,017000	0,5	-0,613800
19,025333	0,5	-0,609850
19,033667	0,5	-0,605500
19,042000	0,5	-0,602550
19,050333	0,5	-0,598850
19,058667	0,5	-0,605350
19,067000	0,5	-0,602900
19,075333	0,5	-0,604000
19,083667	0,5	-0,601650
19,092000	0,5	-0,607150
19,100333	0,5	-0,591600
19,108667	0,5	-0,594550
19,117000	0,5	-0,594000
19,125333	0,5	-0,603600
19,133667	0,5	-0,605700
19,142000	0,5	-0,607750
19,150333	0,5	-0,613500
19,158667	0,5	-0,625300
19,167000	0,5	-0,625350
19,175333	0,5	-0,641550
19,183667	0,5	-0,643500
19,192000	0,5	-0,645900
19,200333	0,5	-0,646800
19,208667	0,5	-0,641100
19,217000	0,5	-0,644150
19,225333	0,5	-0,637350
19,233667	0,5	-0,646250
19,242000	0,5	-0,638200
19,250333	0,5	-0,639900
19,258667	0,5	-0,639350
19,267000	0,5	-0,648850
19,275333	0,5	-0,652200
19,283667	0,5	-0,655450
19,292000	0,5	-0,647250
19,300333	0,5	-0,643850
19,308667	0,5	-0,636750
19,317000	0,5	-0,627600
19,325333	0,5	-0,608200
19,333667	0,5	-0,588150
19,342000	0,5	-0,557900
19,350333	0,5	-0,535750
19,358667	0,5	-0,520100
19,367000	0,5	-0,499150
19,375333	0,5	-0,503900
19,383667	0,5	-0,526350
19,392000	0,5	-0,535400
19,400333	0,5	-0,543100
19,408667	0,5	-0,544200
19,417000	0,5	-0,539900
19,425333	0,5	-0,528500
19,433667	0,5	-0,492850
19,442000	0,5	-0,451050
19,450333	0,5	-0,420250
19,458667	0,5	-0,411350
19,467000	0,5	-0,415250
19,475333	0,5	-0,451500
19,483667	0,5	-0,489000
19,492000	0,5	-0,529350
19,500333	0,5	-0,562800
19,508667	0,5	-0,578400
19,517000	0,5	-0,588200
19,525333	0,5	-0,598250
19,533667	0,5	-0,602400
19,542000	0,5	-0,585600
19,550333	0,5	-0,590350
19,558667	0,5	-0,586700
19,567000	0,5	-0,598900
19,575333	0,5	-0,601800
19,583667	0,5	-0,600100
19,592000	0,5	-0,593000
19,600333	0,5	-0,594850
19,608667	0,5	-0,579200
19,617000	0,5	-0,560700
19,625333	0,5	-0,532500
19,633667	0,5	-0,508200
19,642000	0,5	-0,483900
19,650333	0,5	-0,474450
19,658667	0,5	-0,471350
19,667000	0,5	-0,477300
19,675333	0,5	-0,512150
19,683667	0,5	-0,532850
19,692000	0,5	-0,551650
19,700333	0,5	-0,574200
19,708667	0,5	-0,596500
19,717000	0,5	-0,616800
19,725333	0,5	-0,624750
19,733667	0,5	-0,625800
19,742000	0,5	-0,627050
19,750333	0,5	-0,628000
19,758667	0,5	-0,633100
19,767000	0,5	-0,620250
19,775333	0,5	-0,624500
19,783667	0,5	-0,617050
19,792000	0,5	-0,619000
19,800333	0,5	-0,617650
19,808667	0,5	-0,608550
19,817000	0,5	-0,606100
19,825333	0,5	-0,613650
19,833667	0,5	-0,601450
19,842000	0,5	-0,594800
19,850333	0,5	-0,607400
19,858667	0,5	-0,610150
19,867000	0,5	-0,616550
19,875333	0,5	-0,610650
19,883667	0,5	-0,611650
19,892000	0,5	-0,603800
19,900333	0,5	-0,610100
19,908667	0,5	-0,601700
19,917000	0,5	-0,602600
19,925333	0,5	-0,590850
19,933667	0,5	-0,590600
19,942000	0,5	-0,585500
19,950333	0,5	-0,581800
19,958667	0,5	-0,570450
19,967000	0,5	-0,577600
19,975333	0,5	-0,567200
19,983667	0,5	-0,558200
19,992000	0,5	-0,555350
20,000333	0,5	-0,555950
20,008667	0,5	-0,574650
20,017000	0,5	-0,567650
20,025333	0,5	-0,568300
20,033667	0,5	-0,560900
20,042000	0,5	-0,568200
20,050333	0,5	-0,559550
20,058667	0,5	-0,557850
20,067000	0,5	-0,549500
20,075333	0,5	-0,552050
20,083667	0,5	-0,551700
20,092000	0,5	-0,549300
20,100333	0,5	-0,550450
20,108667	0,5	-0,541700
20,117000	0,5	-0,555750
20,125333	0,5	-0,543600
20,133667	0,5	-0,541800
20,142000	0,5	-0,545550
20,150333	0,5	-0,555250
20,158667	0,5	-0,570300
20,167000	0,5	-0,557350
20,175333	0,5	-0,555850
20,183667	0,5	-0,552850
20,192000	0,5	-0,550300
20,200333	0,5	-0,553900
20,208667	0,5	-0,547250
20,217000	0,5	-0,549250
20,225333	0,5	-0,540200
20,233667	0,5	-0,548700
20,242000	0,5	-0,547900
20,250333	0,5	-0,539400
20,258667	0,5	-0,538850
20,267000	0,5	-0,557050
20,275333	0,5	-0,545300
20,283667	0,5	-0,551150
20,292000	0,5	-0,557800
20,300333	0,5	-0,566350
20,308667	0,5	-0,579250
20,317000	0,5	-0,572600
20,325333	0,5	-0,573800
20,333667	0,5	-0,573200
20,342000	0,5	-0,575900
20,350333	0,5	-0,573550
20,358667	0,5	-0,573800
20,367000	0,5	-0,567600
20,375333	0,5	-0,568200
20,383667	0,5	-0,566350
20,392000	0,5	-0,561650
20,400333	0,5	-0,554200
20,408667	0,5	-0,557700
20,417000	0,5	-0,555400
20,425333	0,5	-0,555400
20,433667	0,5	-0,554400
20,442000	0,5	-0,568050
20,450333	0,5	-0,578800
20,458667	0,5	-0,578950
20,467000	0,5	-0,576300
20,475333	0,5	-0,569350
20,483667	0,5	-0,562000
20,492000	0,5	-0,560350
20,500333	0,5	-0,560050
20,508667	0,5	-0,551000
20,517000	0,5	-0,553050
20,525333	0,5	-0,554200
20,533667	0,5	-0,549000
20,542000	0,5	-0,536400
20,550333	0,5	-0,531500
20,558667	0,5	-0,536100
20,567000	0,5	-0,529450
20,575333	0,5	-0,530300
20,583667	0,5	-0,530550
20,592000	0,5	-0,536700
20,600333	0,5	-0,544400
20,608667	0,5	-0,547150
20,617000	0,5	-0,540350
20,625333	0,5	-0,536850
20,633667	0,5	-0,533000
20,642000	0,5	-0,535000
20,650333	0,5	-0,530500
20,658667	0,5	-0,525200
20,667000	0,5	-0,520250
20,675333	0,5	-0,519100
20,683667	0,5	-0,501600
20,692000	0,5	-0,491050
20,700333	0,5	-0,487500
20,708667	0,5	-0,485800
20,717000	0,5	-0,486000
20,725333	0,5	-0,488550
20,733667	0,5	-0,490300
20,742000	0,5	-0,509200
20,750333	0,5	-0,505600
20,758667	0,5	-0,494850
20,767000	0,5	-0,493300
20,775333	0,5	-0,480050
20,783667	0,5	-0,476200
20,792000	0,5	-0,471300
20,800333	0,5	-0,466700
20,808667	0,5	-0,451800
20,817000	0,5	-0,452100
20,825333	0,5	-0,442700
20,833667	0,5	-0,424900
20,842000	0,5	-0,409200
20,850333	0,5	-0,411300
20,858667	0,5	-0,403150
20,867000	0,5	-0,398550
20,875333	0,5	-0,400450
20,883667	0,5	-0,407700
20,892000	0,5	-0,410750
20,900333	0,5	-0,395550
20,908667	0,5	-0,390600
20,917000	0,5	-0,386550
20,925333	0,5	-0,384800
20,933667	0,5	-0,380600
20,942000	0,5	-0,379050
20,950333	0,5	-0,371000
20,958667	0,5	-0,370900
20,967000	0,5	-0,359900
20,975333	0,5	-0,349700
20,983667	0,5	-0,328000
20,992000	0,5	-0,311600
21,000333	0,5	-0,316150
21,008667	0,5	-0,311850
21,017000	0,5	-0,307000
21,025333	0,5	-0,308950
21,033667	0,5	-0,315950
21,042000	0,5	-0,317000
21,050333	0,5	-0,303700
21,058667	0,5	-0,291800
21,067000	0,5	-0,287600
21,075333	0,5	-0,281750
21,083667	0,5	-0,280650
21,092000	0,5	-0,267100
21,100333	0,5	-0,264850
21,108667	0,5	-0,257800
21,117000	0,5	-0,254350
21,125333	0,5	-0,226300
21,133667	0,5	-0,206050
21,142000	0,5	-0,202450
21,150333	0,5	-0,203300
21,158667	0,5	-0,200450
21,167000	0,5	-0,210500
21,175333	0,5	-0,212300
21,183667	0,5	-0,221400
21,192000	0,5	-0,212500
21,200333	0,5	-0,202450
21,208667	0,5	-0,199750
21,217000	0,5	-0,188900
21,225333	0,5	-0,185400
21,233667	0,5	-0,177150
21,242000	0,5	-0,172150
21,250333	0,5	-0,154300
21,258667	0,5	-0,146850
21,267000	0,5	-0,123650
21,275333	0,5	-0,094350
21,283667	0,5	-0,063800
21,292000	0,5	-0,052450
21,300333	0,5	-0,029050
21,308667	0,5	-0,012000
21,317000	0,5	0,006850
21,325333	0,5	0,018650
21,333667	0,5	0,020200
21,342000	0,5	0,023950
21,350333	0,5	0,023200
21,358667	0,5	0,017250
21,367000	0,5	0,017950
21,375333	0,5	0,017650
21,383667	0,5	0,020800
21,392000	0,5	0,027300
21,400333	0,5	0,035000
21,408667	0,5	0,048600
21,417000	0,5	0,074950
21,425333	0,5	0,099550
21,433667	0,5	0,118750
21,442000	0,5	0,118950
21,450333	0,5	0,119500
21,458667	0,5	0,123700
21,467000	0,5	0,113150
21,475333	0,5	0,111400
21,483667	0,5	0,119450
21,492000	0,5	0,129000
21,500333	0,5	0,145300
21,508667	0,5	0,155200
21,517000	0,5	0,172750
21,525333	0,5	0,186050
21,533667	0,5	0,201350
21,542000	0,5	0,209300
21,550333	0,5	0,223600
21,558667	0,5	0,237550
21,567000	0,5	0,269700
21,575333	0,5	0,294300
21,583667	0,5	0,298400
21,592000	0,5	0,310200
21,600333	0,5	0,314450
21,608667	0,5	0,313750
21,617000	0,5	0,324400
21,625333	0,5	0,334150
21,633667	0,5	0,347500
21,642000	0,5	0,370450
21,650333	0,5	0,390700
21,658667	0,5	0,406200
21,667000	0,5	0,420000
21,675333	0,5	0,430300
21,683667	0,5	0,443300
21,692000	0,5	0,460750
21,700333	0,5	0,471850
21,708667	0,5	0,504700
21,717000	0,5	0,532600
21,725333	0,5	0,549900
21,733667	0,5	0,554350
21,742000	0,5	0,572350
21,750333	0,5	0,579300
21,758667	0,5	0,594550
21,767000	0,5	0,597350
21,775333	0,5	0,614700
21,783667	0,5	0,640800
21,792000	0,5	0,659250
21,800333	0,5	0,684000
21,808667	0,5	0,707000
21,817000	0,5	0,737600
21,825333	0,5	0,765000
21,833667	0,5	0,792850
21,842000	0,5	0,812150
21,850333	0,5	0,855500
21,858667	0,5	0,903050
21,867000	0,5	0,944400
21,875333	0,5	0,962800
21,883667	0,5	0,987300
21,892000	0,5	1,011550
21,900333	0,5	1,028100
21,908667	0,5	1,034050
21,917000	0,5	1,046650
21,925333	0,5	1,071600
21,933667	0,5	1,082600
21,942000	0,5	1,096350
21,950333	0,5	1,108850
21,958667	0,5	1,127450
21,967000	0,5	1,141450
21,975333	0,5	1,164350
21,983667	0,5	1,185950
21,992000	0,5	1,214350
22,000333	0,5	1,245500
22,008667	0,5	1,284750
22,017000	0,5	1,296950
22,025333	0,5	1,326600
22,033667	0,5	1,349400
22,042000	0,5	1,376300
22,050333	0,5	1,397800
22,058667	0,5	1,413200
22,067000	0,5	1,443750
22,075333	0,5	1,482200
22,083667	0,5	1,519350
22,092000	0,5	1,548000
22,100333	0,5	1,592450
22,108667	0,5	1,635150
22,117000	0,5	1,672850
22,125333	0,5	1,699650
22,133667	0,5	1,723200
22,142000	0,5	1,748950
22,150333	0,5	1,779600
22,158667	0,5	1,800650
22,167000	0,5	1,823200
22,175333	0,5	1,867600
22,183667	0,5	1,899850
22,192000	0,5	1,929250
22,200333	0,5	1,959500
22,208667	0,5	1,985450
22,217000	0,5	2,026250
22,225333	0,5	2,062700
22,233667	0,5	2,099400
22,242000	0,5	2,144900
22,250333	0,5	2,184850
22,258667	0,5	2,229150
22,267000	0,5	2,279200
22,275333	0,5	2,330500
22,283667	0,5	2,376800
22,292000	0,5	2,432800
22,300333	0,5	2,483250
22,308667	0,5	2,531300
22,317000	0,5	2,583600
22,325333	0,5	2,630400
22,333667	0,5	2,661350
22,342000	0,5	2,705800
22,350333	0,5	2,733550
22,358667	0,5	2,772550
22,367000	0,5	2,824750
22,375333	0,5	2,866300
22,383667	0,5	2,913300
22,392000	0,5	2,957450
22,400333	0,5	3,008500
22,408667	0,5	3,058650
22,417000	0,5	3,116450
22,425333	0,5	3,160400
22,433667	0,5	3,219200
22,442000	0,5	3,261100
22,450333	0,5	3,321250
22,458667	0,5	3,373650
22,467000	0,5	3,444850
22,475333	0,5	3,496100
22,483667	0,5	3,548700
22,492000	0,5	3,594700
22,500333	0,5	3,646750
22,508667	0,5	3,701800
22,517000	0,5	3,760200
22,525333	0,5	3,822550
22,533667	0,5	3,880300
22,542000	0,5	3,939650
22,550333	0,5	3,992000
22,558667	0,5	4,046600
22,567000	0,5	4,096250
22,575333	0,5	4,149100
22,583667	0,5	4,193000
22,592000	0,5	4,230050
22,600333	0,5	4,267400
22,608667	0,5	4,343400
22,617000	0,5	4,386000
22,625333	0,5	4,418900
22,633667	0,5	4,443850
22,642000	0,5	4,454750
22,650333	0,5	4,470900
22,658667	0,5	4,487900
22,667000	0,5	4,502250
22,675333	0,5	4,512600
22,683667	0,5	4,512350
22,692000	0,5	4,514450
22,700333	0,5	4,511900
22,708667	0,5	4,500700
22,717000	0,5	4,491450
22,725333	0,5	4,471600
22,733667	0,5	4,422250
22,742000	0,5	4,381400
22,750333	0,5	4,355300
22,758667	0,5	4,312350
22,767000	0,5	4,255300
22,775333	0,5	4,172400
22,783667	0,5	4,086800
22,792000	0,5	3,979800
22,800333	0,5	3,879650
22,808667	0,5	3,769550
22,817000	0,5	3,661700
22,825333	0,5	3,549950
22,833667	0,5	3,435050
22,842000	0,5	3,317700
22,850333	0,5	3,199750
22,858667	0,5	3,077850
22,867000	0,5	2,960100
22,875333	0,5	2,837800
22,883667	0,5	2,679600
22,892000	0,5	2,560250
22,900333	0,5	2,441600
22,908667	0,5	2,298250
22,917000	0,5	2,147250
22,925333	0,5	1,990850
22,933667	0,5	1,839700
22,942000	0,5	1,675250
22,950333	0,5	1,508300
22,958667	0,5	1,360350
22,967000	0,5	1,211850
22,975333	0,5	1,062400
22,983667	0,5	0,922950
22,992000	0,5	0,784400
23,000333	0,5	0,650650
23,008667	0,5	0,519100
23,017000	0,5	0,386000
23,025333	0,5	0,289450
23,033667	0,5	0,163150
23,042000	0,5	0,039950
23,050333	0,5	-0,112000
23,058667	0,5	-0,223950
23,067000	0,5	-0,331950
23,075333	0,5	-0,422900
23,083667	0,5	-0,516450
23,092000	0,5	-0,616250
23,100333	0,5	-0,705000
23,108667	0,5	-0,782800
23,117000	0,5	-0,858250
23,125333	0,5	-0,932650
23,133667	0,5	-1,002100
23,142000	0,5	-1,066300
23,150333	0,5	-1,121000
23,158667	0,5	-1,185450
23,167000	0,5	-1,229400
23,175333	0,5	-1,269650
23,183667	0,5	-1,317150
23,192000	0,5	-1,378050
23,200333	0,5	-1,455400
23,208667	0,5	-1,507950
23,217000	0,5	-1,545000
23,225333	0,5	-1,581900
23,233667	0,5	-1,604150
23,242000	0,5	-1,645400
23,250333	0,5	-1,671850
23,258667	0,5	-1,701450
23,267000	0,5	-1,718200
23,275333	0,5	-1,742200
23,283667	0,5	-1,750300
23,292000	0,5	-1,767850
23,300333	0,5	-1,782150
23,308667	0,5	-1,793400
23,317000	0,5	-1,790050
23,325333	0,5	-1,825150
23,333667	0,5	-1,802300
23,342000	0,5	-1,831250
23,350333	0,5	-1,867250
23,358667	0,5	-1,875650
23,367000	0,5	-1,886850
23,375333	0,5	-1,887650
23,383667	0,5	-1,886750
23,392000	0,5	-1,889750
23,400333	0,5	-1,896200
23,408667	0,5	-1,893400
23,417000	0,5	-1,894050
23,425333	0,5	-1,886350
23,433667	0,5	-1,881600
23,442000	0,5	-1,878850
23,450333	0,5	-1,872150
23,458667	0,5	-1,861400
23,467000	0,5	-1,870950
23,475333	0,5	-1,870200
23,483667	0,5	-1,829050
23,492000	0,5	-1,822100
23,500333	0,5	-1,836000
23,508667	0,5	-1,834000
23,517000	0,5	-1,827000
23,525333	0,5	-1,818900
23,533667	0,5	-1,813000
23,542000	0,5	-1,811100
23,550333	0,5	-1,802200
23,558667	0,5	-1,793150
23,567000	0,5	-1,782300
23,575333	0,5	-1,774300
23,583667	0,5	-1,761400
23,592000	0,5	-1,750100
23,600333	0,5	-1,739350
23,608667	0,5	-1,732750
23,617000	0,5	-1,793650
23,625333	0,5	-1,753300
23,633667	0,5	-1,704850
23,642000	0,5	-1,678800
23,650333	0,5	-1,674900
23,658667	0,5	-1,667300
23,667000	0,5	-1,658200
23,675333	0,5	-1,650850
23,683667	0,5	-1,637500
23,692000	0,5	-1,630300
23,700333	0,5	-1,618700
23,708667	0,5	-1,606000
23,717000	0,5	-1,592900
23,725333	0,5	-1,584350
23,733667	0,5	-1,571000
23,742000	0,5	-1,558900
23,750333	0,5	-1,546950
23,758667	0,5	-1,581700
23,767000	0,5	-1,612050
23,775333	0,5	-1,589700
23,783667	0,5	-1,526600
23,792000	0,5	-1,500600
23,800333	0,5	-1,484450
23,808667	0,5	-1,473950
23,817000	0,5	-1,468550
23,825333	0,5	-1,450900
23,833667	0,5	-1,438050
23,842000	0,5	-1,420300
23,850333	0,5	-1,406950
23,858667	0,5	-1,389300
23,867000	0,5	-1,374800
23,875333	0,5	-1,359250
23,883667	0,5	-1,346300
23,892000	0,5	-1,333250
23,900333	0,5	-1,321400
23,908667	0,5	-1,416450
23,917000	0,5	-1,387000
23,925333	0,5	-1,353400
23,933667	0,5	-1,295150
23,942000	0,5	-1,267250
23,950333	0,5	-1,252950
23,958667	0,5	-1,240150
23,967000	0,5	-1,246650
23,975333	0,5	-1,226850
23,983667	0,5	-1,213250
23,992000	0,5	-1,199350
24,000333	0,5	-1,184650
24,008667	0,5	-1,166050
24,017000	0,5	-1,156200
24,025333	0,5	-1,135950
24,033667	0,5	-1,119150
24,042000	0,5	-1,109300
24,050333	0,5	-1,105500
24,058667	0,5	-1,195600
24,067000	0,5	-1,138050
24,075333	0,5	-1,121000
24,083667	0,5	-1,060600
24,092000	0,5	-1,042150
24,100333	0,5	-1,024750
24,108667	0,5	-1,017500
24,117000	0,5	-1,016600
24,125333	0,5	-0,996900
24,133667	0,5	-0,979150
24,142000	0,5	-0,967250
24,150333	0,5	-0,954250
24,158667	0,5	-0,941450
24,167000	0,5	-0,925000
24,175333	0,5	-0,914250
24,183667	0,5	-0,904250
24,192000	0,5	-0,889000
24,200333	0,5	-0,950800
24,208667	0,5	-0,957500
24,217000	0,5	-0,926900
24,225333	0,5	-0,885200
24,233667	0,5	-0,843900
24,242000	0,5	-0,826750
24,250333	0,5	-0,822250
24,258667	0,5	-0,810500
24,267000	0,5	-0,805750
24,275333	0,5	-0,791600
24,283667	0,5	-0,781500
24,292000	0,5	-0,759550
24,300333	0,5	-0,749600
24,308667	0,5	-0,733100
24,317000	0,5	-0,725300
24,325333	0,5	-0,710350
24,333667	0,5	-0,697500
24,342000	0,5	-0,690450
24,350333	0,5	-0,753350
24,358667	0,5	-0,739050
24,367000	0,5	-0,712100
24,375333	0,5	-0,682350
24,383667	0,5	-0,655750
24,392000	0,5	-0,647400
24,400333	0,5	-0,641900
24,408667	0,5	-0,640750
24,417000	0,5	-0,635100
24,425333	0,5	-0,620150
24,433667	0,5	-0,604800
24,442000	0,5	-0,596750
24,450333	0,5	-0,580050
24,458667	0,5	-0,572700
24,467000	0,5	-0,557400
24,475333	0,5	-0,550000
24,483667	0,5	-0,538350
24,492000	0,5	-0,539600
24,500333	0,5	-0,583150
24,508667	0,5	-0,565250
24,517000	0,5	-0,540300
24,525333	0,5	-0,516450
24,533667	0,5	-0,499600
24,542000	0,5	-0,493650
24,550333	0,5	-0,495250
24,558667	0,5	-0,493000
24,567000	0,5	-0,497650
24,575333	0,5	-0,482900
24,583667	0,5	-0,475950
24,592000	0,5	-0,462700
24,600333	0,5	-0,460250
24,608667	0,5	-0,447450
24,617000	0,5	-0,440800
24,625333	0,5	-0,433250
24,633667	0,5	-0,427300
24,642000	0,5	-0,447450
24,650333	0,5	-0,453750
24,658667	0,5	-0,441850
24,667000	0,5	-0,422850
24,675333	0,5	-0,403550
24,683667	0,5	-0,395300
24,692000	0,5	-0,390350
24,700333	0,5	-0,392200
24,708667	0,5	-0,390200
24,717000	0,5	-0,381650
24,725333	0,5	-0,376550
24,733667	0,5	-0,371500
24,742000	0,5	-0,365850
24,750333	0,5	-0,357550
24,758667	0,5	-0,354700
24,767000	0,5	-0,351400
24,775333	0,5	-0,348900
24,783667	0,5	-0,343600
24,792000	0,5	-0,369900
24,800333	0,5	-0,357150
24,808667	0,5	-0,355550
24,817000	0,5	-0,330900
24,825333	0,5	-0,322000
24,833667	0,5	-0,315150
24,842000	0,5	-0,311950
24,850333	0,5	-0,316000
24,858667	0,5	-0,309150
24,867000	0,5	-0,309800
24,875333	0,5	-0,302700
24,883667	0,5	-0,302600
24,892000	0,5	-0,293100
24,900333	0,5	-0,290250
24,908667	0,5	-0,282550
24,917000	0,5	-0,280450
24,925333	0,5	-0,276900
24,933667	0,5	-0,281850
24,942000	0,5	-0,292400
24,950333	0,5	-0,286100
24,958667	0,5	-0,280000
24,967000	0,5	-0,271200
24,975333	0,5	-0,265750
24,983667	0,5	-0,263050
24,992000	0,5	-0,261350
25,000333	0,5	-0,265850
25,008667	0,5	-0,261000
25,017000	0,5	-0,255300
25,025333	0,5	-0,255100
25,033667	0,5	-0,249750
25,042000	0,5	-0,247850
25,050333	0,5	-0,243700
25,058667	0,5	-0,243700
25,067000	0,5	-0,239000
25,075333	0,5	-0,237350
25,083667	0,5	-0,240300
25,092000	0,5	-0,241200
25,100333	0,5	-0,236500
25,108667	0,5	-0,230300
25,117000	0,5	-0,223100
25,125333	0,5	-0,221950
25,133667	0,5	-0,223300
25,142000	0,5	-0,224250
25,150333	0,5	-0,225850
25,158667	0,5	-0,227500
25,167000	0,5	-0,224450
25,175333	0,5	-0,224500
25,183667	0,5	-0,221800
25,192000	0,5	-0,217850
25,200333	0,5	-0,214450
25,208667	0,5	-0,212800
25,217000	0,5	-0,209800
25,225333	0,5	-0,209250
25,233667	0,5	-0,215350
25,242000	0,5	-0,210050
25,250333	0,5	-0,208050
25,258667	0,5	-0,203750
25,267000	0,5	-0,200650
25,275333	0,5	-0,200450
25,283667	0,5	-0,202600
25,292000	0,5	-0,205350
25,300333	0,5	-0,206900
25,308667	0,5	-0,202700
25,317000	0,5	-0,203900
25,325333	0,5	-0,202850
25,333667	0,5	-0,201450
25,342000	0,5	-0,199850
25,350333	0,5	-0,201250
25,358667	0,5	-0,199900
25,367000	0,5	-0,197550
25,375333	0,5	-0,194050
25,383667	0,5	-0,196650
25,392000	0,5	-0,195800
25,400333	0,5	-0,192950
25,408667	0,5	-0,192650
25,417000	0,5	-0,191000
25,425333	0,5	-0,189650
25,433667	0,5	-0,189650
25,442000	0,5	-0,193800
25,450333	0,5	-0,191000
25,458667	0,5	-0,191350
25,467000	0,5	-0,191250
25,475333	0,5	-0,189550
25,483667	0,5	-0,192650
25,492000	0,5	-0,193300
25,500333	0,5	-0,191150
25,508667	0,5	-0,192250
25,517000	0,5	-0,191300
25,525333	0,5	-0,188650
25,533667	0,5	-0,189700
25,542000	0,5	-0,189550
25,550333	0,5	-0,189050
25,558667	0,5	-0,188700
25,567000	0,5	-0,187850
25,575333	0,5	-0,187750
25,583667	0,5	-0,187200
25,592000	0,5	-0,186400
25,600333	0,5	-0,185000
25,608667	0,5	-0,185700
25,617000	0,5	-0,186550
25,625333	0,5	-0,182750
25,633667	0,5	-0,182800
25,642000	0,5	-0,183100
25,650333	0,5	-0,185900
25,658667	0,5	-0,188150
25,667000	0,5	-0,185300
25,675333	0,5	-0,183750
25,683667	0,5	-0,184900
25,692000	0,5	-0,182800
25,700333	0,5	-0,184450
25,708667	0,5	-0,186450
25,717000	0,5	-0,183150
25,725333	0,5	-0,183950
25,733667	0,5	-0,179400
25,742000	0,5	-0,179850
25,750333	0,5	-0,180000
25,758667	0,5	-0,178000
25,767000	0,5	-0,180800
25,775333	0,5	-0,179050
25,783667	0,5	-0,178750
25,792000	0,5	-0,175750
25,800333	0,5	-0,177650
25,808667	0,5	-0,178150
25,817000	0,5	-0,178500
25,825333	0,5	-0,170950
25,833667	0,5	-0,172150
25,842000	0,5	-0,168800
25,850333	0,5	-0,175350
25,858667	0,5	-0,176750
25,867000	0,5	-0,174550
25,875333	0,5	-0,173600
25,883667	0,5	-0,169550
25,892000	0,5	-0,170200
25,900333	0,5	-0,169400
25,908667	0,5	-0,169250
25,917000	0,5	-0,166600
25,925333	0,5	-0,166550
25,933667	0,5	-0,167400
25,942000	0,5	-0,164650
25,950333	0,5	-0,167100
25,958667	0,5	-0,164000
25,967000	0,5	-0,160000
25,975333	0,5	-0,163900
25,983667	0,5	-0,162650
25,992000	0,5	-0,157150
26,000333	0,5	-0,163750
