File Path	chrom://chromeleon01/ikbm_chromeleon/2022/ICS-5000/ED1/Esteban/20220612_Cell_7_4_eg.seq/408.smp/ED_1.channel/ED_1.chm
Channel	ED_1

Injection Information:
Data Vault	ikbm_chromeleon
Injection	CelS2_00.5h-EGS_1
Injection Number	119
Position	BC3
Comment	
Processing Method	Stop sequence after Cell Death
Instrument Method	ICS5000_PA200_FullNative_Ox_26min_ED1
Type	Unknown
Status	Finished
Injection Date	15.06.2022
Injection Time	00:22:06
Injection Volume (µl)	5,0
Dilution Factor	1,0000
Weight	1,0000

Chromatogram Data Information:
Time Min. (min)	0,000333
Time Max. (min)	26,000333
Data Points	3121
Detector	EDet1
Generating Data System	Chromeleon 7.2.9.11323
Exporting Data System	Chromeleon 7.2.9.0
Operator	Instrument Controller
Signal Quantity	
Signal Unit	nC
Signal Min.	-3,052700
Signal Max.	31,244500
Channel	ED_1
Driver Name	DC-5000
Channel Type	Evaluation
Min. Step (s)	0,5
Max. Step (s)	0,5
Average Step (s)	0,5

Signal Parameter Information:
Signal Info	

Chromatogram Data:
Time (min)	Step (s)	Value (nC)
0,000333	n.a.	-0,087600
0,008667	0,5	-0,103500
0,017000	0,5	-0,088200
0,025333	0,5	-0,079250
0,033667	0,5	-0,070300
0,042000	0,5	-0,061200
0,050333	0,5	-0,063700
0,058667	0,5	-0,052450
0,067000	0,5	-0,070750
0,075333	0,5	-0,048350
0,083667	0,5	-0,038000
0,092000	0,5	-0,067350
0,100333	0,5	-0,073250
0,108667	0,5	-0,065900
0,117000	0,5	-0,038450
0,125333	0,5	-0,011250
0,133667	0,5	-0,027800
0,142000	0,5	-0,022100
0,150333	0,5	-0,037900
0,158667	0,5	-0,027850
0,167000	0,5	-0,038550
0,175333	0,5	-0,035250
0,183667	0,5	-0,046300
0,192000	0,5	-0,042850
0,200333	0,5	-0,041650
0,208667	0,5	-0,054500
0,217000	0,5	-0,070650
0,225333	0,5	-0,038650
0,233667	0,5	-0,061550
0,242000	0,5	-0,074800
0,250333	0,5	-0,075200
0,258667	0,5	-0,068200
0,267000	0,5	-0,032100
0,275333	0,5	-0,035650
0,283667	0,5	-0,034150
0,292000	0,5	-0,034850
0,300333	0,5	-0,012100
0,308667	0,5	-0,026500
0,317000	0,5	-0,044150
0,325333	0,5	-0,064700
0,333667	0,5	-0,069200
0,342000	0,5	-0,076350
0,350333	0,5	-0,073150
0,358667	0,5	-0,080300
0,367000	0,5	-0,080100
0,375333	0,5	-0,051800
0,383667	0,5	-0,074100
0,392000	0,5	-0,086400
0,400333	0,5	-0,085050
0,408667	0,5	-0,080300
0,417000	0,5	-0,040300
0,425333	0,5	-0,048850
0,433667	0,5	-0,063600
0,442000	0,5	-0,062000
0,450333	0,5	-0,059450
0,458667	0,5	-0,061100
0,467000	0,5	-0,063400
0,475333	0,5	-0,067600
0,483667	0,5	-0,072600
0,492000	0,5	-0,065900
0,500333	0,5	-0,066100
0,508667	0,5	-0,056650
0,517000	0,5	-0,076250
0,525333	0,5	-0,044550
0,533667	0,5	-0,082950
0,542000	0,5	-0,079400
0,550333	0,5	-0,074700
0,558667	0,5	-0,057350
0,567000	0,5	-0,020450
0,575333	0,5	-0,033600
0,583667	0,5	-0,043900
0,592000	0,5	-0,041400
0,600333	0,5	-0,044900
0,608667	0,5	-0,037850
0,617000	0,5	-0,037200
0,625333	0,5	-0,046750
0,633667	0,5	-0,044500
0,642000	0,5	-0,047600
0,650333	0,5	-0,032700
0,658667	0,5	-0,047850
0,667000	0,5	-0,036750
0,675333	0,5	-0,034600
0,683667	0,5	-0,052250
0,692000	0,5	-0,050250
0,700333	0,5	-0,039350
0,708667	0,5	-0,021150
0,717000	0,5	0,008850
0,725333	0,5	-0,004750
0,733667	0,5	0,007800
0,742000	0,5	-0,004100
0,750333	0,5	0,007150
0,758667	0,5	-0,003500
0,767000	0,5	0,001750
0,775333	0,5	-0,003950
0,783667	0,5	-0,006100
0,792000	0,5	-0,000750
0,800333	0,5	-0,012800
0,808667	0,5	-0,013000
0,817000	0,5	0,001800
0,825333	0,5	-0,005000
0,833667	0,5	-0,018700
0,842000	0,5	-0,010800
0,850333	0,5	0,003800
0,858667	0,5	0,034250
0,867000	0,5	0,047400
0,875333	0,5	0,051950
0,883667	0,5	0,037750
0,892000	0,5	0,047550
0,900333	0,5	0,036100
0,908667	0,5	0,044950
0,917000	0,5	0,036500
0,925333	0,5	0,038600
0,933667	0,5	0,038900
0,942000	0,5	0,045950
0,950333	0,5	0,036250
0,958667	0,5	0,038200
0,967000	0,5	0,051450
0,975333	0,5	0,035050
0,983667	0,5	0,029500
0,992000	0,5	0,032750
1,000333	0,5	0,052400
1,008667	0,5	0,074800
1,017000	0,5	0,088500
1,025333	0,5	0,073650
1,033667	0,5	0,078700
1,042000	0,5	0,077000
1,050333	0,5	0,082600
1,058667	0,5	0,076350
1,067000	0,5	0,074050
1,075333	0,5	0,066250
1,083667	0,5	0,068000
1,092000	0,5	0,070700
1,100333	0,5	0,067400
1,108667	0,5	0,074750
1,117000	0,5	0,085350
1,125333	0,5	0,060400
1,133667	0,5	0,060650
1,142000	0,5	0,060700
1,150333	0,5	0,089850
1,158667	0,5	0,108200
1,167000	0,5	0,098350
1,175333	0,5	0,102400
1,183667	0,5	0,098450
1,192000	0,5	0,104850
1,200333	0,5	0,089850
1,208667	0,5	0,094950
1,217000	0,5	0,088750
1,225333	0,5	0,098900
1,233667	0,5	0,094400
1,242000	0,5	0,098150
1,250333	0,5	0,080850
1,258667	0,5	0,118200
1,267000	0,5	0,092000
1,275333	0,5	0,083950
1,283667	0,5	0,078750
1,292000	0,5	0,095450
1,300333	0,5	0,119100
1,308667	0,5	0,125350
1,317000	0,5	0,115100
1,325333	0,5	0,122300
1,333667	0,5	0,119050
1,342000	0,5	0,123700
1,350333	0,5	0,124400
1,358667	0,5	0,120050
1,367000	0,5	0,117850
1,375333	0,5	0,111800
1,383667	0,5	0,116700
1,392000	0,5	0,102650
1,400333	0,5	0,097600
1,408667	0,5	0,125200
1,417000	0,5	0,105700
1,425333	0,5	0,101150
1,433667	0,5	0,105700
1,442000	0,5	0,107300
1,450333	0,5	0,147000
1,458667	0,5	0,136600
1,467000	0,5	0,140500
1,475333	0,5	0,133200
1,483667	0,5	0,140100
1,492000	0,5	0,132500
1,500333	0,5	0,130800
1,508667	0,5	0,124850
1,517000	0,5	0,123250
1,525333	0,5	0,126150
1,533667	0,5	0,131650
1,542000	0,5	0,131750
1,550333	0,5	0,117200
1,558667	0,5	0,128150
1,567000	0,5	0,029300
1,575333	0,5	-0,227650
1,583667	0,5	-0,708800
1,592000	0,5	-0,991900
1,600333	0,5	-0,351500
1,608667	0,5	2,047300
1,617000	0,5	7,310950
1,625333	0,5	15,963400
1,633667	0,5	25,519650
1,642000	0,5	31,244500
1,650333	0,5	30,649350
1,658667	0,5	25,735950
1,667000	0,5	19,933250
1,675333	0,5	15,220950
1,683667	0,5	11,992900
1,692000	0,5	9,946850
1,700333	0,5	8,713900
1,708667	0,5	8,061800
1,717000	0,5	7,839400
1,725333	0,5	7,859750
1,733667	0,5	7,726400
1,742000	0,5	7,277550
1,750333	0,5	6,664850
1,758667	0,5	6,040350
1,767000	0,5	5,552850
1,775333	0,5	5,178900
1,783667	0,5	5,000950
1,792000	0,5	5,102750
1,800333	0,5	5,617450
1,808667	0,5	6,455650
1,817000	0,5	7,378800
1,825333	0,5	8,066050
1,833667	0,5	8,360600
1,842000	0,5	8,263400
1,850333	0,5	7,855100
1,858667	0,5	7,246550
1,867000	0,5	6,629550
1,875333	0,5	6,113900
1,883667	0,5	5,722250
1,892000	0,5	5,452100
1,900333	0,5	5,247900
1,908667	0,5	5,045000
1,917000	0,5	4,810950
1,925333	0,5	4,580000
1,933667	0,5	4,370000
1,942000	0,5	4,205000
1,950333	0,5	4,046300
1,958667	0,5	3,896600
1,967000	0,5	3,748550
1,975333	0,5	3,638700
1,983667	0,5	3,548650
1,992000	0,5	3,540900
2,000333	0,5	3,565050
2,008667	0,5	3,559050
2,017000	0,5	3,517000
2,025333	0,5	3,459150
2,033667	0,5	3,402700
2,042000	0,5	3,378950
2,050333	0,5	3,371100
2,058667	0,5	3,411800
2,067000	0,5	3,516950
2,075333	0,5	3,751700
2,083667	0,5	4,206100
2,092000	0,5	4,950900
2,100333	0,5	5,812350
2,108667	0,5	6,366200
2,117000	0,5	6,354250
2,125333	0,5	5,935250
2,133667	0,5	5,523200
2,142000	0,5	5,345050
2,150333	0,5	5,376350
2,158667	0,5	5,537350
2,167000	0,5	5,852500
2,175333	0,5	6,166400
2,183667	0,5	6,286400
2,192000	0,5	6,092900
2,200333	0,5	5,732400
2,208667	0,5	5,410050
2,217000	0,5	5,234400
2,225333	0,5	5,171200
2,233667	0,5	5,230700
2,242000	0,5	5,404000
2,250333	0,5	5,666800
2,258667	0,5	5,916300
2,267000	0,5	6,019700
2,275333	0,5	5,989300
2,283667	0,5	5,864100
2,292000	0,5	5,790400
2,300333	0,5	5,720150
2,308667	0,5	5,684550
2,317000	0,5	5,681350
2,325333	0,5	5,721750
2,333667	0,5	5,793400
2,342000	0,5	5,855000
2,350333	0,5	5,886700
2,358667	0,5	5,947950
2,367000	0,5	6,016550
2,375333	0,5	6,134750
2,383667	0,5	6,262650
2,392000	0,5	6,383400
2,400333	0,5	6,475700
2,408667	0,5	6,555350
2,417000	0,5	6,646800
2,425333	0,5	6,721750
2,433667	0,5	6,778850
2,442000	0,5	6,831450
2,450333	0,5	6,799100
2,458667	0,5	6,770100
2,467000	0,5	6,753550
2,475333	0,5	6,748400
2,483667	0,5	6,770250
2,492000	0,5	6,740150
2,500333	0,5	6,729600
2,508667	0,5	6,709050
2,517000	0,5	6,708500
2,525333	0,5	6,689750
2,533667	0,5	6,678700
2,542000	0,5	6,656450
2,550333	0,5	6,638000
2,558667	0,5	6,619500
2,567000	0,5	6,608700
2,575333	0,5	6,581650
2,583667	0,5	6,561500
2,592000	0,5	6,560200
2,600333	0,5	6,532200
2,608667	0,5	6,529350
2,617000	0,5	6,549350
2,625333	0,5	6,607500
2,633667	0,5	6,677300
2,642000	0,5	6,700650
2,650333	0,5	6,661350
2,658667	0,5	6,578300
2,667000	0,5	6,452150
2,675333	0,5	6,322150
2,683667	0,5	6,195600
2,692000	0,5	6,088650
2,700333	0,5	5,994050
2,708667	0,5	5,920650
2,717000	0,5	5,844700
2,725333	0,5	5,772700
2,733667	0,5	5,704700
2,742000	0,5	5,648600
2,750333	0,5	5,560550
2,758667	0,5	5,499950
2,767000	0,5	5,435850
2,775333	0,5	5,389750
2,783667	0,5	5,350500
2,792000	0,5	5,286000
2,800333	0,5	5,237600
2,808667	0,5	5,207700
2,817000	0,5	5,199500
2,825333	0,5	5,219100
2,833667	0,5	5,282350
2,842000	0,5	5,421450
2,850333	0,5	5,728700
2,858667	0,5	6,285050
2,867000	0,5	7,153850
2,875333	0,5	8,255250
2,883667	0,5	9,369500
2,892000	0,5	10,119850
2,900333	0,5	10,336550
2,908667	0,5	10,050700
2,917000	0,5	9,428750
2,925333	0,5	8,691850
2,933667	0,5	7,994450
2,942000	0,5	7,409650
2,950333	0,5	7,000400
2,958667	0,5	6,758900
2,967000	0,5	6,724700
2,975333	0,5	6,955350
2,983667	0,5	7,591950
2,992000	0,5	8,830000
3,000333	0,5	10,846650
3,008667	0,5	13,669350
3,017000	0,5	16,959650
3,025333	0,5	20,201200
3,033667	0,5	22,744300
3,042000	0,5	24,142850
3,050333	0,5	24,343650
3,058667	0,5	23,478950
3,067000	0,5	21,739800
3,075333	0,5	19,408450
3,083667	0,5	16,752050
3,092000	0,5	14,143100
3,100333	0,5	11,813100
3,108667	0,5	9,921450
3,117000	0,5	8,450150
3,125333	0,5	7,356300
3,133667	0,5	6,536550
3,142000	0,5	5,928800
3,150333	0,5	5,495500
3,158667	0,5	5,210100
3,167000	0,5	5,071750
3,175333	0,5	5,081750
3,183667	0,5	5,141950
3,192000	0,5	5,139800
3,200333	0,5	5,024400
3,208667	0,5	4,769900
3,217000	0,5	4,418450
3,225333	0,5	4,014250
3,233667	0,5	3,619200
3,242000	0,5	3,265550
3,250333	0,5	2,995050
3,258667	0,5	2,772750
3,267000	0,5	2,601100
3,275333	0,5	2,456650
3,283667	0,5	2,345300
3,292000	0,5	2,243850
3,300333	0,5	2,166000
3,308667	0,5	2,099100
3,317000	0,5	2,023350
3,325333	0,5	1,982750
3,333667	0,5	1,923450
3,342000	0,5	1,859200
3,350333	0,5	1,814600
3,358667	0,5	1,778400
3,367000	0,5	1,757650
3,375333	0,5	1,727400
3,383667	0,5	1,684650
3,392000	0,5	1,669450
3,400333	0,5	1,652400
3,408667	0,5	1,668500
3,417000	0,5	1,690350
3,425333	0,5	1,740800
3,433667	0,5	1,789000
3,442000	0,5	1,844000
3,450333	0,5	1,873400
3,458667	0,5	1,866250
3,467000	0,5	1,816500
3,475333	0,5	1,780850
3,483667	0,5	1,676850
3,492000	0,5	1,587700
3,500333	0,5	1,507600
3,508667	0,5	1,462750
3,517000	0,5	1,440750
3,525333	0,5	1,402300
3,533667	0,5	1,370550
3,542000	0,5	1,338150
3,550333	0,5	1,309200
3,558667	0,5	1,278450
3,567000	0,5	1,253300
3,575333	0,5	1,228350
3,583667	0,5	1,223600
3,592000	0,5	1,229450
3,600333	0,5	1,265800
3,608667	0,5	1,305100
3,617000	0,5	1,388650
3,625333	0,5	1,500150
3,633667	0,5	1,579550
3,642000	0,5	1,648900
3,650333	0,5	1,682950
3,658667	0,5	1,668500
3,667000	0,5	1,624600
3,675333	0,5	1,520850
3,683667	0,5	1,399600
3,692000	0,5	1,280900
3,700333	0,5	1,186600
3,708667	0,5	1,109350
3,717000	0,5	1,051450
3,725333	0,5	1,004850
3,733667	0,5	0,967350
3,742000	0,5	0,943150
3,750333	0,5	0,908700
3,758667	0,5	0,887700
3,767000	0,5	0,875150
3,775333	0,5	0,870050
3,783667	0,5	0,839350
3,792000	0,5	0,838050
3,800333	0,5	0,833550
3,808667	0,5	0,858100
3,817000	0,5	0,868850
3,825333	0,5	0,859800
3,833667	0,5	0,848050
3,842000	0,5	0,848050
3,850333	0,5	0,838100
3,858667	0,5	0,836750
3,867000	0,5	0,831000
3,875333	0,5	0,831250
3,883667	0,5	0,830350
3,892000	0,5	0,830750
3,900333	0,5	0,830550
3,908667	0,5	0,825350
3,917000	0,5	0,838500
3,925333	0,5	0,824250
3,933667	0,5	0,808450
3,942000	0,5	0,806800
3,950333	0,5	0,814200
3,958667	0,5	0,827300
3,967000	0,5	0,840750
3,975333	0,5	0,822500
3,983667	0,5	0,820900
3,992000	0,5	0,803900
4,000333	0,5	0,799250
4,008667	0,5	0,779450
4,017000	0,5	0,767800
4,025333	0,5	0,750250
4,033667	0,5	0,737900
4,042000	0,5	0,729850
4,050333	0,5	0,704700
4,058667	0,5	0,699100
4,067000	0,5	0,705000
4,075333	0,5	0,679850
4,083667	0,5	0,671850
4,092000	0,5	0,673650
4,100333	0,5	0,682750
4,108667	0,5	0,703350
4,117000	0,5	0,696600
4,125333	0,5	0,700050
4,133667	0,5	0,688150
4,142000	0,5	0,688950
4,150333	0,5	0,680800
4,158667	0,5	0,685500
4,167000	0,5	0,671050
4,175333	0,5	0,672500
4,183667	0,5	0,659750
4,192000	0,5	0,661400
4,200333	0,5	0,646150
4,208667	0,5	0,658500
4,217000	0,5	0,656350
4,225333	0,5	0,641450
4,233667	0,5	0,632700
4,242000	0,5	0,638700
4,250333	0,5	0,655300
4,258667	0,5	0,668200
4,267000	0,5	0,664200
4,275333	0,5	0,658200
4,283667	0,5	0,667050
4,292000	0,5	0,668500
4,300333	0,5	0,666000
4,308667	0,5	0,660850
4,317000	0,5	0,661600
4,325333	0,5	0,663350
4,333667	0,5	0,674500
4,342000	0,5	0,690950
4,350333	0,5	0,697700
4,358667	0,5	0,721200
4,367000	0,5	0,729600
4,375333	0,5	0,725750
4,383667	0,5	0,734850
4,392000	0,5	0,741450
4,400333	0,5	0,763700
4,408667	0,5	0,759650
4,417000	0,5	0,730950
4,425333	0,5	0,713750
4,433667	0,5	0,696550
4,442000	0,5	0,677650
4,450333	0,5	0,659400
4,458667	0,5	0,648600
4,467000	0,5	0,628800
4,475333	0,5	0,627300
4,483667	0,5	0,615350
4,492000	0,5	0,615800
4,500333	0,5	0,596700
4,508667	0,5	0,617450
4,517000	0,5	0,593750
4,525333	0,5	0,592650
4,533667	0,5	0,586200
4,542000	0,5	0,593750
4,550333	0,5	0,609600
4,558667	0,5	0,608050
4,567000	0,5	0,598550
4,575333	0,5	0,603700
4,583667	0,5	0,600450
4,592000	0,5	0,600650
4,600333	0,5	0,596450
4,608667	0,5	0,588950
4,617000	0,5	0,587550
4,625333	0,5	0,584300
4,633667	0,5	0,589000
4,642000	0,5	0,580050
4,650333	0,5	0,576350
4,658667	0,5	0,590950
4,667000	0,5	0,574750
4,675333	0,5	0,571050
4,683667	0,5	0,578900
4,692000	0,5	0,597750
4,700333	0,5	0,626600
4,708667	0,5	0,628000
4,717000	0,5	0,636850
4,725333	0,5	0,634750
4,733667	0,5	0,643200
4,742000	0,5	0,638300
4,750333	0,5	0,641200
4,758667	0,5	0,636800
4,767000	0,5	0,636100
4,775333	0,5	0,631650
4,783667	0,5	0,621600
4,792000	0,5	0,610400
4,800333	0,5	0,611600
4,808667	0,5	0,605150
4,817000	0,5	0,580750
4,825333	0,5	0,580050
4,833667	0,5	0,573000
4,842000	0,5	0,593200
4,850333	0,5	0,605450
4,858667	0,5	0,610550
4,867000	0,5	0,598600
4,875333	0,5	0,601850
4,883667	0,5	0,595650
4,892000	0,5	0,600750
4,900333	0,5	0,592150
4,908667	0,5	0,590600
4,917000	0,5	0,591200
4,925333	0,5	0,592650
4,933667	0,5	0,595100
4,942000	0,5	0,601400
4,950333	0,5	0,614800
4,958667	0,5	0,612850
4,967000	0,5	0,606200
4,975333	0,5	0,613200
4,983667	0,5	0,625200
4,992000	0,5	0,653000
5,000333	0,5	0,677650
5,008667	0,5	0,685750
5,017000	0,5	0,706150
5,025333	0,5	0,720400
5,033667	0,5	0,751700
5,042000	0,5	0,777800
5,050333	0,5	0,819950
5,058667	0,5	0,861150
5,067000	0,5	0,917650
5,075333	0,5	0,977150
5,083667	0,5	1,043000
5,092000	0,5	1,112600
5,100333	0,5	1,212800
5,108667	0,5	1,281250
5,117000	0,5	1,371100
5,125333	0,5	1,477300
5,133667	0,5	1,596700
5,142000	0,5	1,738050
5,150333	0,5	1,854300
5,158667	0,5	1,973150
5,167000	0,5	2,085200
5,175333	0,5	2,185900
5,183667	0,5	2,256400
5,192000	0,5	2,304250
5,200333	0,5	2,308050
5,208667	0,5	2,280800
5,217000	0,5	2,213650
5,225333	0,5	2,120800
5,233667	0,5	1,984150
5,242000	0,5	1,855950
5,250333	0,5	1,723450
5,258667	0,5	1,566550
5,267000	0,5	1,427000
5,275333	0,5	1,312750
5,283667	0,5	1,217050
5,292000	0,5	1,144300
5,300333	0,5	1,063800
5,308667	0,5	1,004950
5,317000	0,5	0,954300
5,325333	0,5	0,928200
5,333667	0,5	0,896800
5,342000	0,5	0,881450
5,350333	0,5	0,862750
5,358667	0,5	0,851350
5,367000	0,5	0,852350
5,375333	0,5	0,847400
5,383667	0,5	0,841150
5,392000	0,5	0,851250
5,400333	0,5	0,844150
5,408667	0,5	0,832350
5,417000	0,5	0,832750
5,425333	0,5	0,836000
5,433667	0,5	0,860750
5,442000	0,5	0,861550
5,450333	0,5	0,862000
5,458667	0,5	0,859200
5,467000	0,5	0,867750
5,475333	0,5	0,862700
5,483667	0,5	0,875400
5,492000	0,5	0,880500
5,500333	0,5	0,883400
5,508667	0,5	0,894700
5,517000	0,5	0,899450
5,525333	0,5	0,909800
5,533667	0,5	0,907850
5,542000	0,5	0,928650
5,550333	0,5	0,916700
5,558667	0,5	0,912650
5,567000	0,5	0,905750
5,575333	0,5	0,908400
5,583667	0,5	0,913750
5,592000	0,5	0,905200
5,600333	0,5	0,879300
5,608667	0,5	0,871550
5,617000	0,5	0,849100
5,625333	0,5	0,842550
5,633667	0,5	0,822850
5,642000	0,5	0,809550
5,650333	0,5	0,796950
5,658667	0,5	0,786500
5,667000	0,5	0,781000
5,675333	0,5	0,769500
5,683667	0,5	0,762450
5,692000	0,5	0,776250
5,700333	0,5	0,761050
5,708667	0,5	0,759400
5,717000	0,5	0,759950
5,725333	0,5	0,777700
5,733667	0,5	0,800600
5,742000	0,5	0,804550
5,750333	0,5	0,813950
5,758667	0,5	0,810650
5,767000	0,5	0,819350
5,775333	0,5	0,821300
5,783667	0,5	0,833100
5,792000	0,5	0,835400
5,800333	0,5	0,845300
5,808667	0,5	0,854250
5,817000	0,5	0,857500
5,825333	0,5	0,857750
5,833667	0,5	0,881600
5,842000	0,5	0,894050
5,850333	0,5	0,901450
5,858667	0,5	0,923350
5,867000	0,5	0,946600
5,875333	0,5	0,991700
5,883667	0,5	1,034000
5,892000	0,5	1,078450
5,900333	0,5	1,116450
5,908667	0,5	1,183950
5,917000	0,5	1,262400
5,925333	0,5	1,367800
5,933667	0,5	1,497250
5,942000	0,5	1,659700
5,950333	0,5	1,844050
5,958667	0,5	2,060050
5,967000	0,5	2,276300
5,975333	0,5	2,505250
5,983667	0,5	2,730750
5,992000	0,5	2,911850
6,000333	0,5	3,035900
6,008667	0,5	3,113200
6,017000	0,5	3,125400
6,025333	0,5	3,088500
6,033667	0,5	2,979300
6,042000	0,5	2,821450
6,050333	0,5	2,630950
6,058667	0,5	2,428000
6,067000	0,5	2,224950
6,075333	0,5	2,024250
6,083667	0,5	1,845600
6,092000	0,5	1,685750
6,100333	0,5	1,554950
6,108667	0,5	1,442300
6,117000	0,5	1,343400
6,125333	0,5	1,265250
6,133667	0,5	1,222300
6,142000	0,5	1,160950
6,150333	0,5	1,120700
6,158667	0,5	1,095250
6,167000	0,5	1,079550
6,175333	0,5	1,082250
6,183667	0,5	1,068700
6,192000	0,5	1,055200
6,200333	0,5	1,056750
6,208667	0,5	1,049750
6,217000	0,5	1,053950
6,225333	0,5	1,053400
6,233667	0,5	1,058350
6,242000	0,5	1,063300
6,250333	0,5	1,070200
6,258667	0,5	1,079500
6,267000	0,5	1,073550
6,275333	0,5	1,084750
6,283667	0,5	1,105400
6,292000	0,5	1,102450
6,300333	0,5	1,102250
6,308667	0,5	1,109750
6,317000	0,5	1,118350
6,325333	0,5	1,128750
6,333667	0,5	1,114750
6,342000	0,5	1,113150
6,350333	0,5	1,104600
6,358667	0,5	1,098350
6,367000	0,5	1,086000
6,375333	0,5	1,085650
6,383667	0,5	1,076550
6,392000	0,5	1,076250
6,400333	0,5	1,078650
6,408667	0,5	1,079250
6,417000	0,5	1,070750
6,425333	0,5	1,080200
6,433667	0,5	1,079500
6,442000	0,5	1,073800
6,450333	0,5	1,071550
6,458667	0,5	1,080950
6,467000	0,5	1,101850
6,475333	0,5	1,107150
6,483667	0,5	1,114750
6,492000	0,5	1,112400
6,500333	0,5	1,122100
6,508667	0,5	1,122450
6,517000	0,5	1,128050
6,525333	0,5	1,127550
6,533667	0,5	1,136450
6,542000	0,5	1,141850
6,550333	0,5	1,153250
6,558667	0,5	1,161900
6,567000	0,5	1,166050
6,575333	0,5	1,180650
6,583667	0,5	1,180950
6,592000	0,5	1,184450
6,600333	0,5	1,189600
6,608667	0,5	1,201500
6,617000	0,5	1,222700
6,625333	0,5	1,232850
6,633667	0,5	1,230250
6,642000	0,5	1,237500
6,650333	0,5	1,240250
6,658667	0,5	1,243750
6,667000	0,5	1,243800
6,675333	0,5	1,251100
6,683667	0,5	1,250650
6,692000	0,5	1,255800
6,700333	0,5	1,259800
6,708667	0,5	1,259650
6,717000	0,5	1,257750
6,725333	0,5	1,272850
6,733667	0,5	1,263350
6,742000	0,5	1,265000
6,750333	0,5	1,268100
6,758667	0,5	1,278750
6,767000	0,5	1,300150
6,775333	0,5	1,309600
6,783667	0,5	1,312600
6,792000	0,5	1,315850
6,800333	0,5	1,316950
6,808667	0,5	1,312350
6,817000	0,5	1,316300
6,825333	0,5	1,316600
6,833667	0,5	1,319950
6,842000	0,5	1,317350
6,850333	0,5	1,317850
6,858667	0,5	1,309000
6,867000	0,5	1,319350
6,875333	0,5	1,324550
6,883667	0,5	1,316400
6,892000	0,5	1,315500
6,900333	0,5	1,322750
6,908667	0,5	1,338550
6,917000	0,5	1,352550
6,925333	0,5	1,353900
6,933667	0,5	1,356450
6,942000	0,5	1,356950
6,950333	0,5	1,357850
6,958667	0,5	1,357800
6,967000	0,5	1,361800
6,975333	0,5	1,357350
6,983667	0,5	1,358350
6,992000	0,5	1,358250
7,000333	0,5	1,350000
7,008667	0,5	1,346550
7,017000	0,5	1,361300
7,025333	0,5	1,366350
7,033667	0,5	1,370450
7,042000	0,5	1,386450
7,050333	0,5	1,406000
7,058667	0,5	1,446700
7,067000	0,5	1,472850
7,075333	0,5	1,490950
7,083667	0,5	1,493300
7,092000	0,5	1,488100
7,100333	0,5	1,465600
7,108667	0,5	1,437600
7,117000	0,5	1,404200
7,125333	0,5	1,373750
7,133667	0,5	1,350100
7,142000	0,5	1,337800
7,150333	0,5	1,324700
7,158667	0,5	1,312100
7,167000	0,5	1,316300
7,175333	0,5	1,300650
7,183667	0,5	1,292100
7,192000	0,5	1,280800
7,200333	0,5	1,275250
7,208667	0,5	1,277450
7,217000	0,5	1,265050
7,225333	0,5	1,245300
7,233667	0,5	1,241150
7,242000	0,5	1,222850
7,250333	0,5	1,218650
7,258667	0,5	1,211000
7,267000	0,5	1,206550
7,275333	0,5	1,197300
7,283667	0,5	1,191300
7,292000	0,5	1,184350
7,300333	0,5	1,172000
7,308667	0,5	1,161250
7,317000	0,5	1,163850
7,325333	0,5	1,146050
7,333667	0,5	1,136600
7,342000	0,5	1,130600
7,350333	0,5	1,136300
7,358667	0,5	1,145250
7,367000	0,5	1,135250
7,375333	0,5	1,133000
7,383667	0,5	1,130550
7,392000	0,5	1,131800
7,400333	0,5	1,132550
7,408667	0,5	1,130950
7,417000	0,5	1,123300
7,425333	0,5	1,119700
7,433667	0,5	1,120450
7,442000	0,5	1,118750
7,450333	0,5	1,107700
7,458667	0,5	1,109500
7,467000	0,5	1,102950
7,475333	0,5	1,091950
7,483667	0,5	1,083150
7,492000	0,5	1,078650
7,500333	0,5	1,078000
7,508667	0,5	1,076750
7,517000	0,5	1,076300
7,525333	0,5	1,075400
7,533667	0,5	1,077450
7,542000	0,5	1,083450
7,550333	0,5	1,086750
7,558667	0,5	1,086250
7,567000	0,5	1,080000
7,575333	0,5	1,070450
7,583667	0,5	1,062550
7,592000	0,5	1,043250
7,600333	0,5	1,026250
7,608667	0,5	1,013700
7,617000	0,5	1,000750
7,625333	0,5	0,985500
7,633667	0,5	0,978500
7,642000	0,5	0,975300
7,650333	0,5	0,979700
7,658667	0,5	0,978650
7,667000	0,5	0,974800
7,675333	0,5	0,975550
7,683667	0,5	0,984850
7,692000	0,5	0,985250
7,700333	0,5	1,035950
7,708667	0,5	1,075950
7,717000	0,5	1,119150
7,725333	0,5	1,153950
7,733667	0,5	1,181800
7,742000	0,5	1,196500
7,750333	0,5	1,189500
7,758667	0,5	1,166150
7,767000	0,5	1,116700
7,775333	0,5	1,061050
7,783667	0,5	1,013100
7,792000	0,5	0,982000
7,800333	0,5	0,963650
7,808667	0,5	0,949750
7,817000	0,5	0,940200
7,825333	0,5	0,937550
7,833667	0,5	0,931100
7,842000	0,5	0,930850
7,850333	0,5	0,927200
7,858667	0,5	0,918300
7,867000	0,5	0,909300
7,875333	0,5	0,900550
7,883667	0,5	0,890200
7,892000	0,5	0,878200
7,900333	0,5	0,874950
7,908667	0,5	0,870250
7,917000	0,5	0,866200
7,925333	0,5	0,861200
7,933667	0,5	0,861400
7,942000	0,5	0,864400
7,950333	0,5	0,871950
7,958667	0,5	0,872900
7,967000	0,5	0,886450
7,975333	0,5	0,898300
7,983667	0,5	0,909400
7,992000	0,5	0,914450
8,000333	0,5	0,908350
8,008667	0,5	0,891100
8,017000	0,5	0,871300
8,025333	0,5	0,854450
8,033667	0,5	0,844100
8,042000	0,5	0,848250
8,050333	0,5	0,875600
8,058667	0,5	0,904950
8,067000	0,5	0,932450
8,075333	0,5	0,951050
8,083667	0,5	0,957750
8,092000	0,5	0,975450
8,100333	0,5	0,994950
8,108667	0,5	1,039050
8,117000	0,5	1,093250
8,125333	0,5	1,165600
8,133667	0,5	1,256250
8,142000	0,5	1,388050
8,150333	0,5	1,601450
8,158667	0,5	1,992350
8,167000	0,5	2,674550
8,175333	0,5	3,728300
8,183667	0,5	5,056450
8,192000	0,5	6,329750
8,200333	0,5	7,107250
8,208667	0,5	7,070700
8,217000	0,5	6,273250
8,225333	0,5	5,039500
8,233667	0,5	3,770600
8,242000	0,5	2,730400
8,250333	0,5	1,993450
8,258667	0,5	1,531300
8,267000	0,5	1,259300
8,275333	0,5	1,109300
8,283667	0,5	1,025450
8,292000	0,5	0,975200
8,300333	0,5	0,941900
8,308667	0,5	0,911750
8,317000	0,5	0,888600
8,325333	0,5	0,869400
8,333667	0,5	0,858050
8,342000	0,5	0,850950
8,350333	0,5	0,850850
8,358667	0,5	0,832350
8,367000	0,5	0,804000
8,375333	0,5	0,777700
8,383667	0,5	0,757800
8,392000	0,5	0,752750
8,400333	0,5	0,742900
8,408667	0,5	0,739800
8,417000	0,5	0,737700
8,425333	0,5	0,733950
8,433667	0,5	0,729800
8,442000	0,5	0,722750
8,450333	0,5	0,710550
8,458667	0,5	0,699300
8,467000	0,5	0,687450
8,475333	0,5	0,683850
8,483667	0,5	0,679650
8,492000	0,5	0,678150
8,500333	0,5	0,681750
8,508667	0,5	0,681550
8,517000	0,5	0,682400
8,525333	0,5	0,686400
8,533667	0,5	0,694600
8,542000	0,5	0,698250
8,550333	0,5	0,700800
8,558667	0,5	0,706350
8,567000	0,5	0,719650
8,575333	0,5	0,730950
8,583667	0,5	0,740900
8,592000	0,5	0,745100
8,600333	0,5	0,733750
8,608667	0,5	0,715800
8,617000	0,5	0,701900
8,625333	0,5	0,689600
8,633667	0,5	0,685400
8,642000	0,5	0,686550
8,650333	0,5	0,691050
8,658667	0,5	0,689050
8,667000	0,5	0,692800
8,675333	0,5	0,692600
8,683667	0,5	0,698050
8,692000	0,5	0,690600
8,700333	0,5	0,684950
8,708667	0,5	0,674150
8,717000	0,5	0,667200
8,725333	0,5	0,668400
8,733667	0,5	0,675850
8,742000	0,5	0,687400
8,750333	0,5	0,704300
8,758667	0,5	0,723850
8,767000	0,5	0,744450
8,775333	0,5	0,764850
8,783667	0,5	0,782750
8,792000	0,5	0,794700
8,800333	0,5	0,785800
8,808667	0,5	0,767400
8,817000	0,5	0,746500
8,825333	0,5	0,725550
8,833667	0,5	0,717700
8,842000	0,5	0,717850
8,850333	0,5	0,721500
8,858667	0,5	0,731400
8,867000	0,5	0,759050
8,875333	0,5	0,795250
8,883667	0,5	0,839600
8,892000	0,5	0,887000
8,900333	0,5	0,931550
8,908667	0,5	0,989450
8,917000	0,5	1,066250
8,925333	0,5	1,191050
8,933667	0,5	1,421450
8,942000	0,5	1,861400
8,950333	0,5	2,624750
8,958667	0,5	3,776100
8,967000	0,5	5,121200
8,975333	0,5	6,230600
8,983667	0,5	6,637750
8,992000	0,5	6,200100
9,000333	0,5	5,141500
9,008667	0,5	3,881450
9,017000	0,5	2,771350
9,025333	0,5	1,964200
9,033667	0,5	1,451300
9,042000	0,5	1,154500
9,050333	0,5	0,994000
9,058667	0,5	0,903350
9,067000	0,5	0,856550
9,075333	0,5	0,830450
9,083667	0,5	0,818850
9,092000	0,5	0,808550
9,100333	0,5	0,796550
9,108667	0,5	0,784150
9,117000	0,5	0,777400
9,125333	0,5	0,776550
9,133667	0,5	0,787150
9,142000	0,5	0,801500
9,150333	0,5	0,813600
9,158667	0,5	0,826150
9,167000	0,5	0,835150
9,175333	0,5	0,840050
9,183667	0,5	0,841550
9,192000	0,5	0,846350
9,200333	0,5	0,850900
9,208667	0,5	0,854950
9,217000	0,5	0,863150
9,225333	0,5	0,869850
9,233667	0,5	0,883300
9,242000	0,5	0,892450
9,250333	0,5	0,897050
9,258667	0,5	0,892950
9,267000	0,5	0,891000
9,275333	0,5	0,900300
9,283667	0,5	0,913100
9,292000	0,5	0,930650
9,300333	0,5	0,946350
9,308667	0,5	0,959350
9,317000	0,5	0,957550
9,325333	0,5	0,939550
9,333667	0,5	0,913050
9,342000	0,5	0,886000
9,350333	0,5	0,864950
9,358667	0,5	0,845050
9,367000	0,5	0,829800
9,375333	0,5	0,814950
9,383667	0,5	0,805600
9,392000	0,5	0,802600
9,400333	0,5	0,796900
9,408667	0,5	0,797700
9,417000	0,5	0,802300
9,425333	0,5	0,806850
9,433667	0,5	0,812800
9,442000	0,5	0,815150
9,450333	0,5	0,827350
9,458667	0,5	0,837150
9,467000	0,5	0,843750
9,475333	0,5	0,855300
9,483667	0,5	0,864950
9,492000	0,5	0,875250
9,500333	0,5	0,888700
9,508667	0,5	0,898600
9,517000	0,5	0,910450
9,525333	0,5	0,913450
9,533667	0,5	0,917300
9,542000	0,5	0,914800
9,550333	0,5	0,909050
9,558667	0,5	0,905350
9,567000	0,5	0,909250
9,575333	0,5	0,916300
9,583667	0,5	0,927550
9,592000	0,5	0,945000
9,600333	0,5	0,968400
9,608667	0,5	0,999200
9,617000	0,5	1,040600
9,625333	0,5	1,088550
9,633667	0,5	1,140200
9,642000	0,5	1,189700
9,650333	0,5	1,228400
9,658667	0,5	1,259100
9,667000	0,5	1,272950
9,675333	0,5	1,278850
9,683667	0,5	1,272050
9,692000	0,5	1,258500
9,700333	0,5	1,237100
9,708667	0,5	1,213800
9,717000	0,5	1,194150
9,725333	0,5	1,179300
9,733667	0,5	1,167400
9,742000	0,5	1,164550
9,750333	0,5	1,164500
9,758667	0,5	1,166900
9,767000	0,5	1,174050
9,775333	0,5	1,181650
9,783667	0,5	1,193550
9,792000	0,5	1,204750
9,800333	0,5	1,210600
9,808667	0,5	1,217950
9,817000	0,5	1,220800
9,825333	0,5	1,233750
9,833667	0,5	1,246650
9,842000	0,5	1,256750
9,850333	0,5	1,266500
9,858667	0,5	1,272800
9,867000	0,5	1,282150
9,875333	0,5	1,286950
9,883667	0,5	1,287200
9,892000	0,5	1,289850
9,900333	0,5	1,298150
9,908667	0,5	1,299450
9,917000	0,5	1,308850
9,925333	0,5	1,319450
9,933667	0,5	1,335850
9,942000	0,5	1,355250
9,950333	0,5	1,377300
9,958667	0,5	1,398200
9,967000	0,5	1,412750
9,975333	0,5	1,430000
9,983667	0,5	1,437250
9,992000	0,5	1,438400
10,000333	0,5	1,440650
10,008667	0,5	1,439250
10,017000	0,5	1,448100
10,025333	0,5	1,458350
10,033667	0,5	1,473750
10,042000	0,5	1,489450
10,050333	0,5	1,511650
10,058667	0,5	1,539900
10,067000	0,5	1,585200
10,075333	0,5	1,646100
10,083667	0,5	1,724900
10,092000	0,5	1,829200
10,100333	0,5	1,953600
10,108667	0,5	2,099800
10,117000	0,5	2,255100
10,125333	0,5	2,418550
10,133667	0,5	2,567300
10,142000	0,5	2,687650
10,150333	0,5	2,769100
10,158667	0,5	2,793250
10,167000	0,5	2,767900
10,175333	0,5	2,681000
10,183667	0,5	2,552050
10,192000	0,5	2,391550
10,200333	0,5	2,223850
10,208667	0,5	2,066450
10,217000	0,5	1,929400
10,225333	0,5	1,812500
10,233667	0,5	1,722650
10,242000	0,5	1,656600
10,250333	0,5	1,619650
10,258667	0,5	1,591450
10,267000	0,5	1,574850
10,275333	0,5	1,575500
10,283667	0,5	1,576350
10,292000	0,5	1,576900
10,300333	0,5	1,572450
10,308667	0,5	1,568550
10,317000	0,5	1,561700
10,325333	0,5	1,548600
10,333667	0,5	1,537950
10,342000	0,5	1,526450
10,350333	0,5	1,521700
10,358667	0,5	1,516350
10,367000	0,5	1,508000
10,375333	0,5	1,506150
10,383667	0,5	1,504900
10,392000	0,5	1,501800
10,400333	0,5	1,501300
10,408667	0,5	1,504650
10,417000	0,5	1,506000
10,425333	0,5	1,511000
10,433667	0,5	1,510300
10,442000	0,5	1,509900
10,450333	0,5	1,506550
10,458667	0,5	1,506950
10,467000	0,5	1,504400
10,475333	0,5	1,508050
10,483667	0,5	1,508600
10,492000	0,5	1,509900
10,500333	0,5	1,512500
10,508667	0,5	1,518850
10,517000	0,5	1,525100
10,525333	0,5	1,529900
10,533667	0,5	1,536400
10,542000	0,5	1,546900
10,550333	0,5	1,556850
10,558667	0,5	1,564050
10,567000	0,5	1,567100
10,575333	0,5	1,566200
10,583667	0,5	1,561650
10,592000	0,5	1,547950
10,600333	0,5	1,532650
10,608667	0,5	1,518700
10,617000	0,5	1,511350
10,625333	0,5	1,499850
10,633667	0,5	1,490600
10,642000	0,5	1,480700
10,650333	0,5	1,468450
10,658667	0,5	1,463600
10,667000	0,5	1,456800
10,675333	0,5	1,450300
10,683667	0,5	1,444200
10,692000	0,5	1,441450
10,700333	0,5	1,435150
10,708667	0,5	1,426300
10,717000	0,5	1,422850
10,725333	0,5	1,412150
10,733667	0,5	1,403100
10,742000	0,5	1,400700
10,750333	0,5	1,396400
10,758667	0,5	1,402400
10,767000	0,5	1,409200
10,775333	0,5	1,418450
10,783667	0,5	1,424800
10,792000	0,5	1,425700
10,800333	0,5	1,417000
10,808667	0,5	1,404650
10,817000	0,5	1,390000
10,825333	0,5	1,367100
10,833667	0,5	1,346800
10,842000	0,5	1,325250
10,850333	0,5	1,299350
10,858667	0,5	1,281850
10,867000	0,5	1,265350
10,875333	0,5	1,248800
10,883667	0,5	1,234600
10,892000	0,5	1,217950
10,900333	0,5	1,211600
10,908667	0,5	1,208300
10,917000	0,5	1,203650
10,925333	0,5	1,200550
10,933667	0,5	1,196900
10,942000	0,5	1,193050
10,950333	0,5	1,194700
10,958667	0,5	1,196900
10,967000	0,5	1,205100
10,975333	0,5	1,212700
10,983667	0,5	1,224550
10,992000	0,5	1,232900
11,000333	0,5	1,227050
11,008667	0,5	1,218400
11,017000	0,5	1,205700
11,025333	0,5	1,180150
11,033667	0,5	1,156050
11,042000	0,5	1,129200
11,050333	0,5	1,109700
11,058667	0,5	1,091500
11,067000	0,5	1,078750
11,075333	0,5	1,064350
11,083667	0,5	1,055750
11,092000	0,5	1,046800
11,100333	0,5	1,041750
11,108667	0,5	1,039350
11,117000	0,5	1,034850
11,125333	0,5	1,039350
11,133667	0,5	1,041350
11,142000	0,5	1,048600
11,150333	0,5	1,051750
11,158667	0,5	1,071950
11,167000	0,5	1,084350
11,175333	0,5	1,092500
11,183667	0,5	1,094300
11,192000	0,5	1,083100
11,200333	0,5	1,072650
11,208667	0,5	1,057150
11,217000	0,5	1,035250
11,225333	0,5	1,018800
11,233667	0,5	1,007350
11,242000	0,5	0,995900
11,250333	0,5	0,987850
11,258667	0,5	0,979150
11,267000	0,5	0,975950
11,275333	0,5	0,971950
11,283667	0,5	0,979400
11,292000	0,5	0,979350
11,300333	0,5	0,979500
11,308667	0,5	0,996650
11,317000	0,5	1,008550
11,325333	0,5	1,021400
11,333667	0,5	1,033500
11,342000	0,5	1,038850
11,350333	0,5	1,051450
11,358667	0,5	1,048400
11,367000	0,5	1,046800
11,375333	0,5	1,034650
11,383667	0,5	1,018300
11,392000	0,5	0,996550
11,400333	0,5	0,975750
11,408667	0,5	0,944000
11,417000	0,5	0,913850
11,425333	0,5	0,885800
11,433667	0,5	0,864350
11,442000	0,5	0,842450
11,450333	0,5	0,837200
11,458667	0,5	0,846400
11,467000	0,5	0,857450
11,475333	0,5	0,878000
11,483667	0,5	0,896650
11,492000	0,5	0,922950
11,500333	0,5	0,940900
11,508667	0,5	0,952500
11,517000	0,5	0,951500
11,525333	0,5	0,951550
11,533667	0,5	0,943300
11,542000	0,5	0,935100
11,550333	0,5	0,926300
11,558667	0,5	0,920550
11,567000	0,5	0,909700
11,575333	0,5	0,905200
11,583667	0,5	0,897300
11,592000	0,5	0,890500
11,600333	0,5	0,891600
11,608667	0,5	0,891450
11,617000	0,5	0,887600
11,625333	0,5	0,884000
11,633667	0,5	0,878650
11,642000	0,5	0,875400
11,650333	0,5	0,875100
11,658667	0,5	0,868400
11,667000	0,5	0,861000
11,675333	0,5	0,853000
11,683667	0,5	0,850950
11,692000	0,5	0,839850
11,700333	0,5	0,835850
11,708667	0,5	0,830450
11,717000	0,5	0,830700
11,725333	0,5	0,829950
11,733667	0,5	0,830700
11,742000	0,5	0,824250
11,750333	0,5	0,829850
11,758667	0,5	0,830200
11,767000	0,5	0,830650
11,775333	0,5	0,827800
11,783667	0,5	0,827300
11,792000	0,5	0,830000
11,800333	0,5	0,833550
11,808667	0,5	0,842300
11,817000	0,5	0,847650
11,825333	0,5	0,857050
11,833667	0,5	0,863200
11,842000	0,5	0,876300
11,850333	0,5	0,887950
11,858667	0,5	0,898900
11,867000	0,5	0,912100
11,875333	0,5	0,923800
11,883667	0,5	0,925000
11,892000	0,5	0,929850
11,900333	0,5	0,935900
11,908667	0,5	0,937550
11,917000	0,5	0,940300
11,925333	0,5	0,938550
11,933667	0,5	0,941450
11,942000	0,5	0,947700
11,950333	0,5	0,958700
11,958667	0,5	0,969300
11,967000	0,5	0,979500
11,975333	0,5	0,994150
11,983667	0,5	1,005700
11,992000	0,5	1,016950
12,000333	0,5	1,036450
12,008667	0,5	1,052200
12,017000	0,5	1,079600
12,025333	0,5	1,100300
12,033667	0,5	1,127150
12,042000	0,5	1,168400
12,050333	0,5	1,217700
12,058667	0,5	1,258400
12,067000	0,5	1,292300
12,075333	0,5	1,315850
12,083667	0,5	1,338650
12,092000	0,5	1,348800
12,100333	0,5	1,341750
12,108667	0,5	1,325600
12,117000	0,5	1,304050
12,125333	0,5	1,276500
12,133667	0,5	1,258950
12,142000	0,5	1,240300
12,150333	0,5	1,225950
12,158667	0,5	1,217300
12,167000	0,5	1,206700
12,175333	0,5	1,198300
12,183667	0,5	1,182850
12,192000	0,5	1,181800
12,200333	0,5	1,174800
12,208667	0,5	1,165700
12,217000	0,5	1,160200
12,225333	0,5	1,155100
12,233667	0,5	1,161300
12,242000	0,5	1,167500
12,250333	0,5	1,164850
12,258667	0,5	1,166250
12,267000	0,5	1,165250
12,275333	0,5	1,165600
12,283667	0,5	1,159550
12,292000	0,5	1,156850
12,300333	0,5	1,146450
12,308667	0,5	1,143550
12,317000	0,5	1,146450
12,325333	0,5	1,139350
12,333667	0,5	1,132050
12,342000	0,5	1,137150
12,350333	0,5	1,136650
12,358667	0,5	1,133300
12,367000	0,5	1,131450
12,375333	0,5	1,130500
12,383667	0,5	1,139950
12,392000	0,5	1,142300
12,400333	0,5	1,141700
12,408667	0,5	1,142300
12,417000	0,5	1,141200
12,425333	0,5	1,133150
12,433667	0,5	1,129250
12,442000	0,5	1,118400
12,450333	0,5	1,114800
12,458667	0,5	1,109250
12,467000	0,5	1,107800
12,475333	0,5	1,095100
12,483667	0,5	1,095850
12,492000	0,5	1,096100
12,500333	0,5	1,092600
12,508667	0,5	1,086150
12,517000	0,5	1,080650
12,525333	0,5	1,077900
12,533667	0,5	1,078800
12,542000	0,5	1,081050
12,550333	0,5	1,078150
12,558667	0,5	1,076250
12,567000	0,5	1,074600
12,575333	0,5	1,076500
12,583667	0,5	1,075500
12,592000	0,5	1,077450
12,600333	0,5	1,078400
12,608667	0,5	1,080700
12,617000	0,5	1,081850
12,625333	0,5	1,081700
12,633667	0,5	1,086150
12,642000	0,5	1,090600
12,650333	0,5	1,089850
12,658667	0,5	1,088600
12,667000	0,5	1,079100
12,675333	0,5	1,078400
12,683667	0,5	1,079250
12,692000	0,5	1,077250
12,700333	0,5	1,078500
12,708667	0,5	1,077250
12,717000	0,5	1,077200
12,725333	0,5	1,080800
12,733667	0,5	1,083550
12,742000	0,5	1,078900
12,750333	0,5	1,084800
12,758667	0,5	1,089600
12,767000	0,5	1,089850
12,775333	0,5	1,089300
12,783667	0,5	1,097400
12,792000	0,5	1,092850
12,800333	0,5	1,089850
12,808667	0,5	1,081900
12,817000	0,5	1,073200
12,825333	0,5	1,069750
12,833667	0,5	1,068150
12,842000	0,5	1,062800
12,850333	0,5	1,060900
12,858667	0,5	1,056250
12,867000	0,5	1,054550
12,875333	0,5	1,051800
12,883667	0,5	1,052350
12,892000	0,5	1,048900
12,900333	0,5	1,045750
12,908667	0,5	1,044400
12,917000	0,5	1,029100
12,925333	0,5	1,023350
12,933667	0,5	1,018500
12,942000	0,5	1,009950
12,950333	0,5	1,003550
12,958667	0,5	0,991450
12,967000	0,5	0,984400
12,975333	0,5	0,984650
12,983667	0,5	0,983800
12,992000	0,5	0,986750
13,000333	0,5	0,985050
13,008667	0,5	0,988300
13,017000	0,5	0,995500
13,025333	0,5	1,000300
13,033667	0,5	1,003300
13,042000	0,5	0,999100
13,050333	0,5	1,002900
13,058667	0,5	1,001650
13,067000	0,5	0,992400
13,075333	0,5	1,001950
13,083667	0,5	1,011000
13,092000	0,5	1,012800
13,100333	0,5	1,014950
13,108667	0,5	1,005550
13,117000	0,5	1,008250
13,125333	0,5	1,005100
13,133667	0,5	1,007250
13,142000	0,5	1,008450
13,150333	0,5	1,017750
13,158667	0,5	1,018550
13,167000	0,5	1,020950
13,175333	0,5	1,018500
13,183667	0,5	1,013150
13,192000	0,5	1,005550
13,200333	0,5	1,010950
13,208667	0,5	1,011100
13,217000	0,5	1,013800
13,225333	0,5	1,020900
13,233667	0,5	1,016050
13,242000	0,5	1,009500
13,250333	0,5	0,994400
13,258667	0,5	0,984500
13,267000	0,5	0,987900
13,275333	0,5	0,992700
13,283667	0,5	0,994500
13,292000	0,5	0,995400
13,300333	0,5	0,985600
13,308667	0,5	0,977100
13,317000	0,5	0,967350
13,325333	0,5	0,967950
13,333667	0,5	0,964200
13,342000	0,5	0,961100
13,350333	0,5	0,962100
13,358667	0,5	0,956450
13,367000	0,5	0,948800
13,375333	0,5	0,955850
13,383667	0,5	0,952600
13,392000	0,5	0,950950
13,400333	0,5	0,945200
13,408667	0,5	0,938800
13,417000	0,5	0,945000
13,425333	0,5	0,939700
13,433667	0,5	0,940800
13,442000	0,5	0,939150
13,450333	0,5	0,939600
13,458667	0,5	0,935100
13,467000	0,5	0,930800
13,475333	0,5	0,921650
13,483667	0,5	0,920600
13,492000	0,5	0,916050
13,500333	0,5	0,919500
13,508667	0,5	0,906300
13,517000	0,5	0,911750
13,525333	0,5	0,909050
13,533667	0,5	0,904600
13,542000	0,5	0,898000
13,550333	0,5	0,887250
13,558667	0,5	0,885150
13,567000	0,5	0,886350
13,575333	0,5	0,885100
13,583667	0,5	0,884450
13,592000	0,5	0,882800
13,600333	0,5	0,878850
13,608667	0,5	0,881500
13,617000	0,5	0,879900
13,625333	0,5	0,879400
13,633667	0,5	0,875650
13,642000	0,5	0,877650
13,650333	0,5	0,870600
13,658667	0,5	0,865200
13,667000	0,5	0,871750
13,675333	0,5	0,869000
13,683667	0,5	0,864350
13,692000	0,5	0,858150
13,700333	0,5	0,848550
13,708667	0,5	0,848700
13,717000	0,5	0,849000
13,725333	0,5	0,854950
13,733667	0,5	0,855850
13,742000	0,5	0,858300
13,750333	0,5	0,860250
13,758667	0,5	0,863700
13,767000	0,5	0,866150
13,775333	0,5	0,865800
13,783667	0,5	0,868100
13,792000	0,5	0,862800
13,800333	0,5	0,853350
13,808667	0,5	0,851100
13,817000	0,5	0,857000
13,825333	0,5	0,849450
13,833667	0,5	0,844550
13,842000	0,5	0,827500
13,850333	0,5	0,824800
13,858667	0,5	0,827250
13,867000	0,5	0,835400
13,875333	0,5	0,833100
13,883667	0,5	0,838850
13,892000	0,5	0,840950
13,900333	0,5	0,842750
13,908667	0,5	0,833000
13,917000	0,5	0,811050
13,925333	0,5	0,785700
13,933667	0,5	0,763500
13,942000	0,5	0,736800
13,950333	0,5	0,702650
13,958667	0,5	0,681700
13,967000	0,5	0,656450
13,975333	0,5	0,616250
13,983667	0,5	0,564100
13,992000	0,5	0,464600
14,000333	0,5	0,251850
14,008667	0,5	-0,018300
14,017000	0,5	-0,263450
14,025333	0,5	-0,424050
14,033667	0,5	-0,527100
14,042000	0,5	-0,579500
14,050333	0,5	-0,609050
14,058667	0,5	-0,625200
14,067000	0,5	-0,642150
14,075333	0,5	-0,658600
14,083667	0,5	-0,668400
14,092000	0,5	-0,687650
14,100333	0,5	-0,714650
14,108667	0,5	-0,714350
14,117000	0,5	-0,726000
14,125333	0,5	-0,734550
14,133667	0,5	-0,745600
14,142000	0,5	-0,758200
14,150333	0,5	-0,750150
14,158667	0,5	-0,749500
14,167000	0,5	-0,742150
14,175333	0,5	-0,742900
14,183667	0,5	-0,732600
14,192000	0,5	-0,732100
14,200333	0,5	-0,724300
14,208667	0,5	-0,719250
14,217000	0,5	-0,714000
14,225333	0,5	-0,705950
14,233667	0,5	-0,690500
14,242000	0,5	-0,688950
14,250333	0,5	-0,672550
14,258667	0,5	-0,653700
14,267000	0,5	-0,640350
14,275333	0,5	-0,636150
14,283667	0,5	-0,634550
14,292000	0,5	-0,629600
14,300333	0,5	-0,620600
14,308667	0,5	-0,612600
14,317000	0,5	-0,615200
14,325333	0,5	-0,614150
14,333667	0,5	-0,609850
14,342000	0,5	-0,601950
14,350333	0,5	-0,594750
14,358667	0,5	-0,584800
14,367000	0,5	-0,578600
14,375333	0,5	-0,576350
14,383667	0,5	-0,565900
14,392000	0,5	-0,563950
14,400333	0,5	-0,561750
14,408667	0,5	-0,550450
14,417000	0,5	-0,549300
14,425333	0,5	-0,547500
14,433667	0,5	-0,551850
14,442000	0,5	-0,547800
14,450333	0,5	-0,536350
14,458667	0,5	-0,523050
14,467000	0,5	-0,510000
14,475333	0,5	-0,499050
14,483667	0,5	-0,482850
14,492000	0,5	-0,473050
14,500333	0,5	-0,456300
14,508667	0,5	-0,449850
14,517000	0,5	-0,431650
14,525333	0,5	-0,422000
14,533667	0,5	-0,397200
14,542000	0,5	-0,390300
14,550333	0,5	-0,358350
14,558667	0,5	-0,341900
14,567000	0,5	-0,321800
14,575333	0,5	-0,310100
14,583667	0,5	-0,296700
14,592000	0,5	-0,275650
14,600333	0,5	-0,247200
14,608667	0,5	-0,228800
14,617000	0,5	-0,207650
14,625333	0,5	-0,194100
14,633667	0,5	-0,177450
14,642000	0,5	-0,157900
14,650333	0,5	-0,142400
14,658667	0,5	-0,122700
14,667000	0,5	-0,100400
14,675333	0,5	-0,070300
14,683667	0,5	-0,055300
14,692000	0,5	-0,031400
14,700333	0,5	0,003750
14,708667	0,5	0,029800
14,717000	0,5	0,050800
14,725333	0,5	0,072900
14,733667	0,5	0,093800
14,742000	0,5	0,126700
14,750333	0,5	0,152800
14,758667	0,5	0,183700
14,767000	0,5	0,211950
14,775333	0,5	0,239300
14,783667	0,5	0,265350
14,792000	0,5	0,296400
14,800333	0,5	0,320400
14,808667	0,5	0,344200
14,817000	0,5	0,370500
14,825333	0,5	0,391100
14,833667	0,5	0,395250
14,842000	0,5	0,401100
14,850333	0,5	0,411150
14,858667	0,5	0,398700
14,867000	0,5	0,390750
14,875333	0,5	0,367550
14,883667	0,5	0,359500
14,892000	0,5	0,351950
14,900333	0,5	0,355150
14,908667	0,5	0,352450
14,917000	0,5	0,353500
14,925333	0,5	0,357250
14,933667	0,5	0,359550
14,942000	0,5	0,356300
14,950333	0,5	0,352250
14,958667	0,5	0,340100
14,967000	0,5	0,336900
14,975333	0,5	0,324500
14,983667	0,5	0,308500
14,992000	0,5	0,311750
15,000333	0,5	0,310500
15,008667	0,5	0,303200
15,017000	0,5	0,296000
15,025333	0,5	0,284700
15,033667	0,5	0,286250
15,042000	0,5	0,284850
15,050333	0,5	0,280350
15,058667	0,5	0,281800
15,067000	0,5	0,273600
15,075333	0,5	0,276550
15,083667	0,5	0,269850
15,092000	0,5	0,270200
15,100333	0,5	0,266700
15,108667	0,5	0,263500
15,117000	0,5	0,267450
15,125333	0,5	0,260500
15,133667	0,5	0,248550
15,142000	0,5	0,254200
15,150333	0,5	0,251650
15,158667	0,5	0,241600
15,167000	0,5	0,226800
15,175333	0,5	0,212500
15,183667	0,5	0,217050
15,192000	0,5	0,208400
15,200333	0,5	0,204150
15,208667	0,5	0,195650
15,217000	0,5	0,195450
15,225333	0,5	0,188350
15,233667	0,5	0,189100
15,242000	0,5	0,180550
15,250333	0,5	0,179350
15,258667	0,5	0,175700
15,267000	0,5	0,179050
15,275333	0,5	0,159350
15,283667	0,5	0,162700
15,292000	0,5	0,161550
15,300333	0,5	0,154950
15,308667	0,5	0,147300
15,317000	0,5	0,128800
15,325333	0,5	0,124350
15,333667	0,5	0,120600
15,342000	0,5	0,123700
15,350333	0,5	0,115150
15,358667	0,5	0,114350
15,367000	0,5	0,105800
15,375333	0,5	0,102400
15,383667	0,5	0,100750
15,392000	0,5	0,101400
15,400333	0,5	0,096650
15,408667	0,5	0,099100
15,417000	0,5	0,096750
15,425333	0,5	0,083850
15,433667	0,5	0,085050
15,442000	0,5	0,083800
15,450333	0,5	0,077500
15,458667	0,5	0,064600
15,467000	0,5	0,046350
15,475333	0,5	0,044450
15,483667	0,5	0,046650
15,492000	0,5	0,041400
15,500333	0,5	0,035850
15,508667	0,5	0,033750
15,517000	0,5	0,031050
15,525333	0,5	0,024150
15,533667	0,5	0,022800
15,542000	0,5	0,012800
15,550333	0,5	0,008950
15,558667	0,5	0,002450
15,567000	0,5	0,001200
15,575333	0,5	-0,009950
15,583667	0,5	0,003950
15,592000	0,5	-0,002150
15,600333	0,5	-0,002950
15,608667	0,5	-0,022150
15,617000	0,5	-0,033350
15,625333	0,5	-0,034900
15,633667	0,5	-0,032800
15,642000	0,5	-0,040600
15,650333	0,5	-0,041800
15,658667	0,5	-0,047950
15,667000	0,5	-0,050350
15,675333	0,5	-0,052200
15,683667	0,5	-0,058950
15,692000	0,5	-0,062800
15,700333	0,5	-0,044750
15,708667	0,5	-0,057000
15,717000	0,5	-0,067800
15,725333	0,5	-0,065300
15,733667	0,5	-0,066700
15,742000	0,5	-0,070550
15,750333	0,5	-0,080700
15,758667	0,5	-0,090000
15,767000	0,5	-0,099250
15,775333	0,5	-0,095200
15,783667	0,5	-0,103700
15,792000	0,5	-0,098750
15,800333	0,5	-0,102250
15,808667	0,5	-0,101350
15,817000	0,5	-0,101450
15,825333	0,5	-0,103100
15,833667	0,5	-0,107750
15,842000	0,5	-0,111500
15,850333	0,5	-0,105350
15,858667	0,5	-0,109700
15,867000	0,5	-0,125400
15,875333	0,5	-0,121650
15,883667	0,5	-0,121150
15,892000	0,5	-0,131150
15,900333	0,5	-0,139700
15,908667	0,5	-0,158400
15,917000	0,5	-0,157650
15,925333	0,5	-0,161850
15,933667	0,5	-0,160200
15,942000	0,5	-0,168400
15,950333	0,5	-0,167350
15,958667	0,5	-0,172300
15,967000	0,5	-0,177250
15,975333	0,5	-0,181700
15,983667	0,5	-0,184250
15,992000	0,5	-0,185600
16,000333	0,5	-0,180400
16,008667	0,5	-0,193200
16,017000	0,5	-0,202650
16,025333	0,5	-0,202650
16,033667	0,5	-0,203900
16,042000	0,5	-0,214150
16,050333	0,5	-0,234100
16,058667	0,5	-0,242750
16,067000	0,5	-0,244950
16,075333	0,5	-0,242350
16,083667	0,5	-0,258600
16,092000	0,5	-0,256600
16,100333	0,5	-0,264400
16,108667	0,5	-0,262600
16,117000	0,5	-0,264300
16,125333	0,5	-0,264850
16,133667	0,5	-0,273450
16,142000	0,5	-0,272250
16,150333	0,5	-0,267200
16,158667	0,5	-0,281500
16,167000	0,5	-0,282200
16,175333	0,5	-0,279600
16,183667	0,5	-0,281150
16,192000	0,5	-0,290750
16,200333	0,5	-0,306800
16,208667	0,5	-0,317100
16,217000	0,5	-0,305850
16,225333	0,5	-0,316850
16,233667	0,5	-0,318500
16,242000	0,5	-0,322050
16,250333	0,5	-0,318800
16,258667	0,5	-0,324000
16,267000	0,5	-0,323050
16,275333	0,5	-0,334150
16,283667	0,5	-0,335800
16,292000	0,5	-0,336850
16,300333	0,5	-0,331550
16,308667	0,5	-0,358850
16,317000	0,5	-0,346600
16,325333	0,5	-0,351050
16,333667	0,5	-0,359450
16,342000	0,5	-0,370450
16,350333	0,5	-0,390000
16,358667	0,5	-0,384600
16,367000	0,5	-0,384450
16,375333	0,5	-0,386600
16,383667	0,5	-0,393150
16,392000	0,5	-0,392100
16,400333	0,5	-0,399300
16,408667	0,5	-0,395300
16,417000	0,5	-0,403400
16,425333	0,5	-0,405150
16,433667	0,5	-0,410100
16,442000	0,5	-0,398550
16,450333	0,5	-0,403950
16,458667	0,5	-0,424750
16,467000	0,5	-0,417650
16,475333	0,5	-0,423800
16,483667	0,5	-0,430050
16,492000	0,5	-0,444300
16,500333	0,5	-0,466300
16,508667	0,5	-0,465800
16,517000	0,5	-0,468150
16,525333	0,5	-0,468400
16,533667	0,5	-0,474800
16,542000	0,5	-0,475300
16,550333	0,5	-0,477300
16,558667	0,5	-0,480600
16,567000	0,5	-0,480000
16,575333	0,5	-0,491600
16,583667	0,5	-0,486400
16,592000	0,5	-0,488650
16,600333	0,5	-0,496500
16,608667	0,5	-0,503700
16,617000	0,5	-0,497250
16,625333	0,5	-0,509650
16,633667	0,5	-0,514950
16,642000	0,5	-0,536300
16,650333	0,5	-0,544900
16,658667	0,5	-0,544900
16,667000	0,5	-0,544050
16,675333	0,5	-0,546100
16,683667	0,5	-0,543150
16,692000	0,5	-0,551650
16,700333	0,5	-0,552100
16,708667	0,5	-0,554300
16,717000	0,5	-0,559700
16,725333	0,5	-0,559300
16,733667	0,5	-0,556500
16,742000	0,5	-0,556450
16,750333	0,5	-0,571100
16,758667	0,5	-0,571850
16,767000	0,5	-0,570650
16,775333	0,5	-0,575600
16,783667	0,5	-0,590100
16,792000	0,5	-0,606000
16,800333	0,5	-0,613750
16,808667	0,5	-0,609200
16,817000	0,5	-0,617150
16,825333	0,5	-0,613250
16,833667	0,5	-0,619250
16,842000	0,5	-0,616700
16,850333	0,5	-0,619300
16,858667	0,5	-0,622850
16,867000	0,5	-0,623650
16,875333	0,5	-0,628050
16,883667	0,5	-0,618800
16,892000	0,5	-0,628850
16,900333	0,5	-0,638000
16,908667	0,5	-0,633350
16,917000	0,5	-0,630550
16,925333	0,5	-0,639600
16,933667	0,5	-0,653350
16,942000	0,5	-0,668350
16,950333	0,5	-0,663900
16,958667	0,5	-0,667900
16,967000	0,5	-0,667600
16,975333	0,5	-0,673600
16,983667	0,5	-0,672450
16,992000	0,5	-0,678700
17,000333	0,5	-0,676700
17,008667	0,5	-0,678800
17,017000	0,5	-0,690850
17,025333	0,5	-0,688800
17,033667	0,5	-0,685800
17,042000	0,5	-0,704950
17,050333	0,5	-0,694800
17,058667	0,5	-0,695150
17,067000	0,5	-0,699500
17,075333	0,5	-0,705800
17,083667	0,5	-0,727650
17,092000	0,5	-0,729750
17,100333	0,5	-0,730600
17,108667	0,5	-0,727650
17,117000	0,5	-0,734650
17,125333	0,5	-0,736750
17,133667	0,5	-0,745100
17,142000	0,5	-0,744200
17,150333	0,5	-0,747100
17,158667	0,5	-0,744800
17,167000	0,5	-0,749350
17,175333	0,5	-0,753250
17,183667	0,5	-0,755550
17,192000	0,5	-0,775250
17,200333	0,5	-0,763500
17,208667	0,5	-0,761250
17,217000	0,5	-0,768550
17,225333	0,5	-0,779600
17,233667	0,5	-0,798750
17,242000	0,5	-0,800650
17,250333	0,5	-0,794500
17,258667	0,5	-0,803250
17,267000	0,5	-0,802050
17,275333	0,5	-0,801900
17,283667	0,5	-0,798850
17,292000	0,5	-0,800200
17,300333	0,5	-0,795950
17,308667	0,5	-0,794600
17,317000	0,5	-0,793100
17,325333	0,5	-0,786150
17,333667	0,5	-0,787000
17,342000	0,5	-0,804650
17,350333	0,5	-0,788700
17,358667	0,5	-0,799450
17,367000	0,5	-0,807750
17,375333	0,5	-0,826850
17,383667	0,5	-0,846750
17,392000	0,5	-0,836500
17,400333	0,5	-0,840850
17,408667	0,5	-0,838100
17,417000	0,5	-0,845950
17,425333	0,5	-0,844800
17,433667	0,5	-0,854100
17,442000	0,5	-0,847100
17,450333	0,5	-0,852050
17,458667	0,5	-0,853750
17,467000	0,5	-0,858250
17,475333	0,5	-0,850800
17,483667	0,5	-0,861700
17,492000	0,5	-0,858750
17,500333	0,5	-0,857300
17,508667	0,5	-0,858300
17,517000	0,5	-0,869150
17,525333	0,5	-0,882150
17,533667	0,5	-0,890700
17,542000	0,5	-0,892250
17,550333	0,5	-0,891300
17,558667	0,5	-0,892100
17,567000	0,5	-0,894300
17,575333	0,5	-0,892700
17,583667	0,5	-0,891000
17,592000	0,5	-0,893000
17,600333	0,5	-0,890950
17,608667	0,5	-0,896700
17,617000	0,5	-0,888200
17,625333	0,5	-0,892700
17,633667	0,5	-0,897400
17,642000	0,5	-0,893750
17,650333	0,5	-0,886450
17,658667	0,5	-0,895050
17,667000	0,5	-0,905500
17,675333	0,5	-0,923550
17,683667	0,5	-0,924250
17,692000	0,5	-0,919800
17,700333	0,5	-0,918350
17,708667	0,5	-0,918750
17,717000	0,5	-0,918700
17,725333	0,5	-0,920150
17,733667	0,5	-0,920650
17,742000	0,5	-0,918350
17,750333	0,5	-0,924300
17,758667	0,5	-0,923250
17,767000	0,5	-0,919800
17,775333	0,5	-0,924700
17,783667	0,5	-0,930100
17,792000	0,5	-0,920000
17,800333	0,5	-0,921500
17,808667	0,5	-0,921800
17,817000	0,5	-0,941000
17,825333	0,5	-0,946550
17,833667	0,5	-0,945800
17,842000	0,5	-0,939600
17,850333	0,5	-0,943500
17,858667	0,5	-0,938550
17,867000	0,5	-0,938450
17,875333	0,5	-0,933700
17,883667	0,5	-0,928150
17,892000	0,5	-0,923150
17,900333	0,5	-0,918600
17,908667	0,5	-0,913200
17,917000	0,5	-0,901650
17,925333	0,5	-0,908950
17,933667	0,5	-0,893250
17,942000	0,5	-0,884600
17,950333	0,5	-0,883700
17,958667	0,5	-0,883300
17,967000	0,5	-0,900450
17,975333	0,5	-0,902000
17,983667	0,5	-0,899050
17,992000	0,5	-0,904300
18,000333	0,5	-0,903750
18,008667	0,5	-0,902650
18,017000	0,5	-0,898300
18,025333	0,5	-0,899700
18,033667	0,5	-0,897100
18,042000	0,5	-0,899800
18,050333	0,5	-0,897900
18,058667	0,5	-0,880000
18,067000	0,5	-0,876800
18,075333	0,5	-0,892950
18,083667	0,5	-0,882750
18,092000	0,5	-0,877300
18,100333	0,5	-0,882950
18,108667	0,5	-0,887200
18,117000	0,5	-0,908250
18,125333	0,5	-0,895950
18,133667	0,5	-0,895900
18,142000	0,5	-0,893700
18,150333	0,5	-0,899500
18,158667	0,5	-0,893200
18,167000	0,5	-0,893850
18,175333	0,5	-0,887550
18,183667	0,5	-0,889300
18,192000	0,5	-0,890200
18,200333	0,5	-0,885150
18,208667	0,5	-0,877650
18,217000	0,5	-0,881450
18,225333	0,5	-0,890100
18,233667	0,5	-0,884100
18,242000	0,5	-0,885000
18,250333	0,5	-0,892050
18,258667	0,5	-0,904450
18,267000	0,5	-0,917750
18,275333	0,5	-0,918900
18,283667	0,5	-0,913900
18,292000	0,5	-0,918650
18,300333	0,5	-0,910600
18,308667	0,5	-0,921250
18,317000	0,5	-0,914200
18,325333	0,5	-0,917800
18,333667	0,5	-0,919600
18,342000	0,5	-0,926550
18,350333	0,5	-0,927150
18,358667	0,5	-0,924150
18,367000	0,5	-0,933350
18,375333	0,5	-0,935750
18,383667	0,5	-0,929100
18,392000	0,5	-0,938000
18,400333	0,5	-0,947750
18,408667	0,5	-0,967950
18,417000	0,5	-0,980650
18,425333	0,5	-0,977700
18,433667	0,5	-0,980400
18,442000	0,5	-0,981100
18,450333	0,5	-0,990450
18,458667	0,5	-0,989350
18,467000	0,5	-0,998150
18,475333	0,5	-0,998150
18,483667	0,5	-1,002600
18,492000	0,5	-1,005150
18,500333	0,5	-1,002300
18,508667	0,5	-1,003300
18,517000	0,5	-1,022850
18,525333	0,5	-1,015300
18,533667	0,5	-1,019700
18,542000	0,5	-1,028400
18,550333	0,5	-1,045550
18,558667	0,5	-1,068950
18,567000	0,5	-1,069300
18,575333	0,5	-1,075200
18,583667	0,5	-1,077150
18,592000	0,5	-1,083500
18,600333	0,5	-1,083200
18,608667	0,5	-1,090200
18,617000	0,5	-1,089550
18,625333	0,5	-1,094850
18,633667	0,5	-1,096650
18,642000	0,5	-1,096050
18,650333	0,5	-1,090400
18,658667	0,5	-1,101850
18,667000	0,5	-1,110900
18,675333	0,5	-1,108350
18,683667	0,5	-1,113200
18,692000	0,5	-1,122050
18,700333	0,5	-1,145400
18,708667	0,5	-1,161700
18,717000	0,5	-1,166150
18,725333	0,5	-1,164750
18,733667	0,5	-1,165500
18,742000	0,5	-1,169500
18,750333	0,5	-1,174650
18,758667	0,5	-1,180450
18,767000	0,5	-1,186300
18,775333	0,5	-1,188350
18,783667	0,5	-1,198150
18,792000	0,5	-1,186850
18,800333	0,5	-1,189450
18,808667	0,5	-1,209850
18,817000	0,5	-1,211250
18,825333	0,5	-1,206950
18,833667	0,5	-1,217850
18,842000	0,5	-1,227600
18,850333	0,5	-1,252950
18,858667	0,5	-1,253900
18,867000	0,5	-1,253600
18,875333	0,5	-1,253550
18,883667	0,5	-1,256900
18,892000	0,5	-1,256700
18,900333	0,5	-1,262350
18,908667	0,5	-1,261700
18,917000	0,5	-1,259150
18,925333	0,5	-1,264300
18,933667	0,5	-1,257500
18,942000	0,5	-1,250500
18,950333	0,5	-1,249050
18,958667	0,5	-1,260850
18,967000	0,5	-1,252650
18,975333	0,5	-1,253000
18,983667	0,5	-1,257550
18,992000	0,5	-1,270800
19,000333	0,5	-1,280900
19,008667	0,5	-1,281050
19,017000	0,5	-1,277000
19,025333	0,5	-1,284250
19,033667	0,5	-1,283100
19,042000	0,5	-1,288800
19,050333	0,5	-1,289600
19,058667	0,5	-1,290550
19,067000	0,5	-1,295200
19,075333	0,5	-1,302900
19,083667	0,5	-1,311350
19,092000	0,5	-1,301950
19,100333	0,5	-1,316050
19,108667	0,5	-1,324950
19,117000	0,5	-1,324700
19,125333	0,5	-1,332650
19,133667	0,5	-1,347000
19,142000	0,5	-1,369850
19,150333	0,5	-1,383650
19,158667	0,5	-1,379700
19,167000	0,5	-1,396450
19,175333	0,5	-1,397600
19,183667	0,5	-1,412000
19,192000	0,5	-1,417150
19,200333	0,5	-1,427000
19,208667	0,5	-1,432850
19,217000	0,5	-1,436400
19,225333	0,5	-1,445700
19,233667	0,5	-1,440700
19,242000	0,5	-1,443150
19,250333	0,5	-1,465250
19,258667	0,5	-1,466350
19,267000	0,5	-1,471100
19,275333	0,5	-1,481550
19,283667	0,5	-1,495500
19,292000	0,5	-1,525750
19,300333	0,5	-1,525300
19,308667	0,5	-1,536450
19,317000	0,5	-1,538400
19,325333	0,5	-1,552250
19,333667	0,5	-1,552500
19,342000	0,5	-1,559650
19,350333	0,5	-1,559150
19,358667	0,5	-1,562400
19,367000	0,5	-1,569600
19,375333	0,5	-1,572900
19,383667	0,5	-1,562200
19,392000	0,5	-1,560950
19,400333	0,5	-1,576950
19,408667	0,5	-1,567500
19,417000	0,5	-1,575600
19,425333	0,5	-1,587600
19,433667	0,5	-1,609500
19,442000	0,5	-1,628750
19,450333	0,5	-1,638850
19,458667	0,5	-1,639400
19,467000	0,5	-1,658450
19,475333	0,5	-1,662500
19,483667	0,5	-1,678100
19,492000	0,5	-1,679300
19,500333	0,5	-1,686550
19,508667	0,5	-1,685950
19,517000	0,5	-1,693250
19,525333	0,5	-1,694300
19,533667	0,5	-1,687400
19,542000	0,5	-1,691450
19,550333	0,5	-1,706050
19,558667	0,5	-1,697800
19,567000	0,5	-1,707400
19,575333	0,5	-1,713100
19,583667	0,5	-1,729500
19,592000	0,5	-1,750700
19,600333	0,5	-1,743850
19,608667	0,5	-1,751200
19,617000	0,5	-1,749300
19,625333	0,5	-1,757900
19,633667	0,5	-1,752700
19,642000	0,5	-1,762200
19,650333	0,5	-1,757300
19,658667	0,5	-1,763700
19,667000	0,5	-1,767000
19,675333	0,5	-1,762300
19,683667	0,5	-1,759250
19,692000	0,5	-1,778450
19,700333	0,5	-1,773150
19,708667	0,5	-1,770900
19,717000	0,5	-1,777050
19,725333	0,5	-1,791650
19,733667	0,5	-1,813900
19,742000	0,5	-1,815400
19,750333	0,5	-1,818950
19,758667	0,5	-1,812000
19,767000	0,5	-1,816400
19,775333	0,5	-1,811400
19,783667	0,5	-1,817650
19,792000	0,5	-1,816550
19,800333	0,5	-1,826800
19,808667	0,5	-1,827700
19,817000	0,5	-1,835900
19,825333	0,5	-1,825900
19,833667	0,5	-1,839400
19,842000	0,5	-1,841350
19,850333	0,5	-1,841050
19,858667	0,5	-1,837050
19,867000	0,5	-1,847100
19,875333	0,5	-1,868250
19,883667	0,5	-1,880200
19,892000	0,5	-1,878250
19,900333	0,5	-1,875950
19,908667	0,5	-1,882100
19,917000	0,5	-1,885150
19,925333	0,5	-1,890400
19,933667	0,5	-1,892650
19,942000	0,5	-1,897900
19,950333	0,5	-1,896900
19,958667	0,5	-1,900450
19,967000	0,5	-1,901750
19,975333	0,5	-1,895700
19,983667	0,5	-1,913250
19,992000	0,5	-1,909450
20,000333	0,5	-1,905350
20,008667	0,5	-1,914150
20,017000	0,5	-1,920150
20,025333	0,5	-1,943650
20,033667	0,5	-1,944850
20,042000	0,5	-1,946450
20,050333	0,5	-1,947800
20,058667	0,5	-1,948850
20,067000	0,5	-1,954300
20,075333	0,5	-1,959850
20,083667	0,5	-1,960700
20,092000	0,5	-1,961100
20,100333	0,5	-1,970000
20,108667	0,5	-1,971000
20,117000	0,5	-1,972550
20,125333	0,5	-1,966450
20,133667	0,5	-1,989700
20,142000	0,5	-1,977700
20,150333	0,5	-1,981350
20,158667	0,5	-1,988750
20,167000	0,5	-2,003250
20,175333	0,5	-2,025000
20,183667	0,5	-2,023350
20,192000	0,5	-2,028850
20,200333	0,5	-2,035800
20,208667	0,5	-2,044550
20,217000	0,5	-2,048900
20,225333	0,5	-2,054600
20,233667	0,5	-2,057750
20,242000	0,5	-2,057750
20,250333	0,5	-2,057200
20,258667	0,5	-2,056250
20,267000	0,5	-2,041700
20,275333	0,5	-2,050750
20,283667	0,5	-2,053200
20,292000	0,5	-2,049050
20,300333	0,5	-2,045250
20,308667	0,5	-2,055200
20,317000	0,5	-2,066900
20,325333	0,5	-2,079150
20,333667	0,5	-2,069400
20,342000	0,5	-2,072850
20,350333	0,5	-2,072000
20,358667	0,5	-2,068350
20,367000	0,5	-2,067150
20,375333	0,5	-2,060450
20,383667	0,5	-2,060350
20,392000	0,5	-2,055300
20,400333	0,5	-2,059400
20,408667	0,5	-2,045700
20,417000	0,5	-2,036300
20,425333	0,5	-2,047150
20,433667	0,5	-2,050150
20,442000	0,5	-2,038900
20,450333	0,5	-2,042450
20,458667	0,5	-2,054650
20,467000	0,5	-2,077300
20,475333	0,5	-2,076750
20,483667	0,5	-2,070050
20,492000	0,5	-2,062150
20,500333	0,5	-2,063700
20,508667	0,5	-2,060000
20,517000	0,5	-2,060950
20,525333	0,5	-2,058850
20,533667	0,5	-2,057000
20,542000	0,5	-2,059350
20,550333	0,5	-2,047850
20,558667	0,5	-2,031800
20,567000	0,5	-2,023100
20,575333	0,5	-2,029200
20,583667	0,5	-2,018050
20,592000	0,5	-2,020000
20,600333	0,5	-2,014300
20,608667	0,5	-2,034650
20,617000	0,5	-2,037200
20,625333	0,5	-2,034950
20,633667	0,5	-2,019350
20,642000	0,5	-2,016450
20,650333	0,5	-2,008750
20,658667	0,5	-2,006850
20,667000	0,5	-2,003200
20,675333	0,5	-2,000050
20,683667	0,5	-2,001250
20,692000	0,5	-2,000150
20,700333	0,5	-1,998900
20,708667	0,5	-1,985850
20,717000	0,5	-1,992050
20,725333	0,5	-2,003250
20,733667	0,5	-2,005600
20,742000	0,5	-2,010350
20,750333	0,5	-2,026300
20,758667	0,5	-2,047400
20,767000	0,5	-2,057250
20,775333	0,5	-2,051650
20,783667	0,5	-2,057100
20,792000	0,5	-2,053200
20,800333	0,5	-2,058400
20,808667	0,5	-2,054850
20,817000	0,5	-2,055450
20,825333	0,5	-2,054600
20,833667	0,5	-2,054300
20,842000	0,5	-2,054400
20,850333	0,5	-2,034200
20,858667	0,5	-2,018800
20,867000	0,5	-2,029750
20,875333	0,5	-2,028250
20,883667	0,5	-2,028350
20,892000	0,5	-2,040500
20,900333	0,5	-2,054150
20,908667	0,5	-2,067850
20,917000	0,5	-2,058050
20,925333	0,5	-2,061300
20,933667	0,5	-2,050650
20,942000	0,5	-2,051650
20,950333	0,5	-2,044400
20,958667	0,5	-2,045250
20,967000	0,5	-2,035700
20,975333	0,5	-2,034200
20,983667	0,5	-2,027650
20,992000	0,5	-2,018950
21,000333	0,5	-1,987750
21,008667	0,5	-1,980150
21,017000	0,5	-1,987000
21,025333	0,5	-1,981650
21,033667	0,5	-1,988300
21,042000	0,5	-1,989950
21,050333	0,5	-2,007250
21,058667	0,5	-1,996000
21,067000	0,5	-1,994350
21,075333	0,5	-1,988350
21,083667	0,5	-1,991200
21,092000	0,5	-1,984250
21,100333	0,5	-1,981400
21,108667	0,5	-1,970650
21,117000	0,5	-1,967200
21,125333	0,5	-1,964350
21,133667	0,5	-1,960800
21,142000	0,5	-1,933150
21,150333	0,5	-1,912900
21,158667	0,5	-1,915650
21,167000	0,5	-1,913800
21,175333	0,5	-1,919350
21,183667	0,5	-1,921750
21,192000	0,5	-1,931750
21,200333	0,5	-1,944400
21,208667	0,5	-1,938400
21,217000	0,5	-1,927550
21,225333	0,5	-1,928000
21,233667	0,5	-1,922650
21,242000	0,5	-1,923400
21,250333	0,5	-1,912000
21,258667	0,5	-1,909750
21,267000	0,5	-1,899600
21,275333	0,5	-1,896850
21,283667	0,5	-1,885350
21,292000	0,5	-1,850300
21,300333	0,5	-1,833050
21,308667	0,5	-1,842200
21,317000	0,5	-1,836650
21,325333	0,5	-1,837750
21,333667	0,5	-1,847650
21,342000	0,5	-1,851350
21,350333	0,5	-1,859750
21,358667	0,5	-1,841150
21,367000	0,5	-1,841450
21,375333	0,5	-1,824950
21,383667	0,5	-1,816150
21,392000	0,5	-1,800350
21,400333	0,5	-1,792700
21,408667	0,5	-1,777600
21,417000	0,5	-1,770750
21,425333	0,5	-1,761400
21,433667	0,5	-1,728900
21,442000	0,5	-1,707250
21,450333	0,5	-1,697850
21,458667	0,5	-1,693000
21,467000	0,5	-1,688850
21,475333	0,5	-1,689950
21,483667	0,5	-1,694750
21,492000	0,5	-1,694250
21,500333	0,5	-1,682150
21,508667	0,5	-1,675350
21,517000	0,5	-1,653050
21,525333	0,5	-1,641950
21,533667	0,5	-1,620950
21,542000	0,5	-1,615100
21,550333	0,5	-1,594450
21,558667	0,5	-1,584750
21,567000	0,5	-1,567350
21,575333	0,5	-1,547050
21,583667	0,5	-1,503100
21,592000	0,5	-1,470400
21,600333	0,5	-1,454700
21,608667	0,5	-1,429250
21,617000	0,5	-1,412250
21,625333	0,5	-1,384200
21,633667	0,5	-1,369600
21,642000	0,5	-1,339800
21,650333	0,5	-1,313800
21,658667	0,5	-1,295300
21,667000	0,5	-1,295900
21,675333	0,5	-1,296600
21,683667	0,5	-1,308700
21,692000	0,5	-1,302350
21,700333	0,5	-1,296950
21,708667	0,5	-1,285750
21,717000	0,5	-1,274400
21,725333	0,5	-1,250800
21,733667	0,5	-1,226650
21,742000	0,5	-1,215650
21,750333	0,5	-1,206600
21,758667	0,5	-1,191750
21,767000	0,5	-1,183250
21,775333	0,5	-1,178450
21,783667	0,5	-1,172500
21,792000	0,5	-1,156050
21,800333	0,5	-1,123650
21,808667	0,5	-1,105200
21,817000	0,5	-1,074450
21,825333	0,5	-1,049900
21,833667	0,5	-1,019750
21,842000	0,5	-0,995800
21,850333	0,5	-0,971400
21,858667	0,5	-0,947600
21,867000	0,5	-0,922250
21,875333	0,5	-0,876800
21,883667	0,5	-0,844500
21,892000	0,5	-0,824450
21,900333	0,5	-0,799700
21,908667	0,5	-0,776500
21,917000	0,5	-0,769200
21,925333	0,5	-0,759450
21,933667	0,5	-0,748950
21,942000	0,5	-0,713700
21,950333	0,5	-0,698850
21,958667	0,5	-0,671550
21,967000	0,5	-0,651250
21,975333	0,5	-0,624000
21,983667	0,5	-0,601450
21,992000	0,5	-0,572000
22,000333	0,5	-0,541800
22,008667	0,5	-0,517450
22,017000	0,5	-0,483050
22,025333	0,5	-0,442350
22,033667	0,5	-0,431550
22,042000	0,5	-0,386700
22,050333	0,5	-0,348350
22,058667	0,5	-0,320900
22,067000	0,5	-0,289400
22,075333	0,5	-0,276250
22,083667	0,5	-0,228450
22,092000	0,5	-0,195750
22,100333	0,5	-0,150650
22,108667	0,5	-0,121250
22,117000	0,5	-0,078400
22,125333	0,5	-0,036400
22,133667	0,5	0,007550
22,142000	0,5	0,049900
22,150333	0,5	0,092950
22,158667	0,5	0,142500
22,167000	0,5	0,187950
22,175333	0,5	0,234200
22,183667	0,5	0,272500
22,192000	0,5	0,340150
22,200333	0,5	0,391400
22,208667	0,5	0,441500
22,217000	0,5	0,481350
22,225333	0,5	0,524950
22,233667	0,5	0,579700
22,242000	0,5	0,638350
22,250333	0,5	0,681800
22,258667	0,5	0,739400
22,267000	0,5	0,783200
22,275333	0,5	0,839300
22,283667	0,5	0,891150
22,292000	0,5	0,949200
22,300333	0,5	1,001650
22,308667	0,5	1,054450
22,317000	0,5	1,109100
22,325333	0,5	1,158450
22,333667	0,5	1,220950
22,342000	0,5	1,276000
22,350333	0,5	1,323050
22,358667	0,5	1,363450
22,367000	0,5	1,408250
22,375333	0,5	1,456900
22,383667	0,5	1,523400
22,392000	0,5	1,573950
22,400333	0,5	1,639200
22,408667	0,5	1,686500
22,417000	0,5	1,750350
22,425333	0,5	1,807150
22,433667	0,5	1,871700
22,442000	0,5	1,933100
22,450333	0,5	1,994400
22,458667	0,5	2,044350
22,467000	0,5	2,112850
22,475333	0,5	2,184050
22,483667	0,5	2,269800
22,492000	0,5	2,337550
22,500333	0,5	2,400250
22,508667	0,5	2,452750
22,517000	0,5	2,501350
22,525333	0,5	2,575550
22,533667	0,5	2,637950
22,542000	0,5	2,711300
22,550333	0,5	2,766200
22,558667	0,5	2,837050
22,567000	0,5	2,890950
22,575333	0,5	2,951950
22,583667	0,5	2,998150
22,592000	0,5	3,046250
22,600333	0,5	3,074200
22,608667	0,5	3,088150
22,617000	0,5	3,125250
22,625333	0,5	3,168600
22,633667	0,5	3,193300
22,642000	0,5	3,198750
22,650333	0,5	3,199000
22,658667	0,5	3,180400
22,667000	0,5	3,171750
22,675333	0,5	3,154600
22,683667	0,5	3,146600
22,692000	0,5	3,115500
22,700333	0,5	3,087400
22,708667	0,5	3,047950
22,717000	0,5	3,010200
22,725333	0,5	2,962500
22,733667	0,5	2,914750
22,742000	0,5	2,854800
22,750333	0,5	2,760700
22,758667	0,5	2,693450
22,767000	0,5	2,639450
22,775333	0,5	2,576800
22,783667	0,5	2,496500
22,792000	0,5	2,391350
22,800333	0,5	2,272650
22,808667	0,5	2,140500
22,817000	0,5	2,004350
22,825333	0,5	1,876600
22,833667	0,5	1,729150
22,842000	0,5	1,589700
22,850333	0,5	1,449150
22,858667	0,5	1,300650
22,867000	0,5	1,159000
22,875333	0,5	1,007950
22,883667	0,5	0,860650
22,892000	0,5	0,708900
22,900333	0,5	0,532600
22,908667	0,5	0,383400
22,917000	0,5	0,241800
22,925333	0,5	0,074000
22,933667	0,5	-0,086900
22,942000	0,5	-0,234550
22,950333	0,5	-0,376100
22,958667	0,5	-0,524800
22,967000	0,5	-0,672900
22,975333	0,5	-0,806050
22,983667	0,5	-0,937150
22,992000	0,5	-1,056850
23,000333	0,5	-1,180400
23,008667	0,5	-1,297800
23,017000	0,5	-1,422050
23,025333	0,5	-1,532750
23,033667	0,5	-1,647050
23,042000	0,5	-1,729200
23,050333	0,5	-1,836450
23,058667	0,5	-1,946250
23,067000	0,5	-2,075900
23,075333	0,5	-2,167300
23,083667	0,5	-2,257250
23,092000	0,5	-2,333900
23,100333	0,5	-2,395600
23,108667	0,5	-2,476650
23,117000	0,5	-2,531250
23,125333	0,5	-2,590700
23,133667	0,5	-2,633350
23,142000	0,5	-2,679550
23,150333	0,5	-2,715750
23,158667	0,5	-2,759450
23,167000	0,5	-2,794600
23,175333	0,5	-2,829700
23,183667	0,5	-2,859150
23,192000	0,5	-2,891050
23,200333	0,5	-2,905600
23,208667	0,5	-2,938750
23,217000	0,5	-2,995200
23,225333	0,5	-3,027950
23,233667	0,5	-3,038550
23,242000	0,5	-3,049950
23,250333	0,5	-3,044800
23,258667	0,5	-3,052700
23,267000	0,5	-3,048500
23,275333	0,5	-3,038800
23,283667	0,5	-3,029400
23,292000	0,5	-3,015600
23,300333	0,5	-3,002350
23,308667	0,5	-2,984700
23,317000	0,5	-2,969850
23,325333	0,5	-2,953350
23,333667	0,5	-2,937100
23,342000	0,5	-2,953700
23,350333	0,5	-2,900550
23,358667	0,5	-2,894150
23,367000	0,5	-2,916100
23,375333	0,5	-2,907600
23,383667	0,5	-2,895450
23,392000	0,5	-2,873750
23,400333	0,5	-2,852750
23,408667	0,5	-2,832200
23,417000	0,5	-2,812550
23,425333	0,5	-2,783900
23,433667	0,5	-2,761400
23,442000	0,5	-2,728850
23,450333	0,5	-2,701850
23,458667	0,5	-2,671300
23,467000	0,5	-2,644700
23,475333	0,5	-2,617800
23,483667	0,5	-2,624000
23,492000	0,5	-2,604150
23,500333	0,5	-2,556000
23,508667	0,5	-2,516200
23,517000	0,5	-2,518700
23,525333	0,5	-2,509300
23,533667	0,5	-2,492100
23,542000	0,5	-2,477350
23,550333	0,5	-2,464000
23,558667	0,5	-2,453000
23,567000	0,5	-2,436100
23,575333	0,5	-2,423950
23,583667	0,5	-2,404750
23,592000	0,5	-2,391200
23,600333	0,5	-2,373550
23,608667	0,5	-2,357300
23,617000	0,5	-2,344600
23,625333	0,5	-2,337700
23,633667	0,5	-2,415250
23,642000	0,5	-2,384100
23,650333	0,5	-2,329850
23,658667	0,5	-2,292350
23,667000	0,5	-2,284500
23,675333	0,5	-2,281000
23,683667	0,5	-2,277350
23,692000	0,5	-2,274350
23,700333	0,5	-2,264750
23,708667	0,5	-2,257100
23,717000	0,5	-2,248850
23,725333	0,5	-2,241900
23,733667	0,5	-2,230500
23,742000	0,5	-2,228350
23,750333	0,5	-2,221600
23,758667	0,5	-2,217800
23,767000	0,5	-2,215400
23,775333	0,5	-2,243150
23,783667	0,5	-2,328300
23,792000	0,5	-2,310200
23,800333	0,5	-2,259400
23,808667	0,5	-2,233800
23,817000	0,5	-2,230450
23,825333	0,5	-2,229950
23,833667	0,5	-2,242350
23,842000	0,5	-2,242800
23,850333	0,5	-2,240450
23,858667	0,5	-2,229450
23,867000	0,5	-2,224550
23,875333	0,5	-2,213700
23,883667	0,5	-2,210450
23,892000	0,5	-2,193650
23,900333	0,5	-2,188500
23,908667	0,5	-2,176950
23,917000	0,5	-2,172200
23,925333	0,5	-2,277900
23,933667	0,5	-2,274900
23,942000	0,5	-2,251600
23,950333	0,5	-2,189300
23,958667	0,5	-2,162900
23,967000	0,5	-2,160100
23,975333	0,5	-2,160350
23,983667	0,5	-2,175750
23,992000	0,5	-2,170750
24,000333	0,5	-2,155150
24,008667	0,5	-2,153350
24,017000	0,5	-2,143550
24,025333	0,5	-2,139450
24,033667	0,5	-2,131450
24,042000	0,5	-2,127350
24,050333	0,5	-2,110500
24,058667	0,5	-2,103800
24,067000	0,5	-2,100500
24,075333	0,5	-2,217400
24,083667	0,5	-2,171400
24,092000	0,5	-2,154000
24,100333	0,5	-2,086650
24,108667	0,5	-2,066150
24,117000	0,5	-2,055300
24,125333	0,5	-2,054800
24,133667	0,5	-2,061000
24,142000	0,5	-2,032200
24,150333	0,5	-2,018850
24,158667	0,5	-2,006300
24,167000	0,5	-1,992050
24,175333	0,5	-1,974450
24,183667	0,5	-1,958800
24,192000	0,5	-1,935000
24,200333	0,5	-1,926150
24,208667	0,5	-1,911800
24,217000	0,5	-1,959450
24,225333	0,5	-1,997000
24,233667	0,5	-1,971950
24,242000	0,5	-1,936700
24,250333	0,5	-1,891350
24,258667	0,5	-1,873900
24,267000	0,5	-1,867750
24,275333	0,5	-1,868050
24,283667	0,5	-1,874150
24,292000	0,5	-1,856050
24,300333	0,5	-1,839300
24,308667	0,5	-1,819450
24,317000	0,5	-1,807350
24,325333	0,5	-1,789900
24,333667	0,5	-1,774800
24,342000	0,5	-1,774500
24,350333	0,5	-1,731850
24,358667	0,5	-1,723600
24,367000	0,5	-1,774100
24,375333	0,5	-1,767300
24,383667	0,5	-1,728050
24,392000	0,5	-1,691350
24,400333	0,5	-1,651850
24,408667	0,5	-1,645500
24,417000	0,5	-1,635350
24,425333	0,5	-1,641700
24,433667	0,5	-1,638050
24,442000	0,5	-1,622800
24,450333	0,5	-1,603300
24,458667	0,5	-1,598300
24,467000	0,5	-1,575300
24,475333	0,5	-1,566800
24,483667	0,5	-1,550700
24,492000	0,5	-1,536950
24,500333	0,5	-1,526250
24,508667	0,5	-1,519100
24,517000	0,5	-1,575500
24,525333	0,5	-1,549600
24,533667	0,5	-1,528850
24,542000	0,5	-1,490250
24,550333	0,5	-1,469250
24,558667	0,5	-1,455150
24,567000	0,5	-1,454450
24,575333	0,5	-1,448850
24,583667	0,5	-1,442900
24,592000	0,5	-1,419100
24,600333	0,5	-1,413500
24,608667	0,5	-1,392950
24,617000	0,5	-1,379950
24,625333	0,5	-1,363300
24,633667	0,5	-1,348350
24,642000	0,5	-1,335450
24,650333	0,5	-1,324350
24,658667	0,5	-1,335050
24,667000	0,5	-1,349000
24,675333	0,5	-1,333750
24,683667	0,5	-1,311550
24,692000	0,5	-1,287800
24,700333	0,5	-1,274750
24,708667	0,5	-1,271750
24,717000	0,5	-1,271200
24,725333	0,5	-1,275000
24,733667	0,5	-1,260750
24,742000	0,5	-1,255200
24,750333	0,5	-1,240450
24,758667	0,5	-1,234050
24,767000	0,5	-1,219650
24,775333	0,5	-1,210950
24,783667	0,5	-1,198200
24,792000	0,5	-1,187250
24,800333	0,5	-1,175700
24,808667	0,5	-1,186200
24,817000	0,5	-1,178650
24,825333	0,5	-1,172800
24,833667	0,5	-1,146600
24,842000	0,5	-1,132100
24,850333	0,5	-1,121750
24,858667	0,5	-1,113550
24,867000	0,5	-1,113300
24,875333	0,5	-1,105900
24,883667	0,5	-1,100100
24,892000	0,5	-1,090500
24,900333	0,5	-1,086600
24,908667	0,5	-1,074050
24,917000	0,5	-1,069800
24,925333	0,5	-1,059950
24,933667	0,5	-1,051650
24,942000	0,5	-1,045050
24,950333	0,5	-1,041600
24,958667	0,5	-1,052100
24,967000	0,5	-1,042600
24,975333	0,5	-1,036950
24,983667	0,5	-1,021750
24,992000	0,5	-1,011350
25,000333	0,5	-1,004200
25,008667	0,5	-1,003150
25,017000	0,5	-1,003500
25,025333	0,5	-0,994800
25,033667	0,5	-0,983750
25,042000	0,5	-0,978600
25,050333	0,5	-0,969200
25,058667	0,5	-0,962050
25,067000	0,5	-0,952850
25,075333	0,5	-0,943000
25,083667	0,5	-0,936400
25,092000	0,5	-0,932250
25,100333	0,5	-0,930450
25,108667	0,5	-0,926400
25,117000	0,5	-0,919950
25,125333	0,5	-0,920100
25,133667	0,5	-0,910150
25,142000	0,5	-0,903550
25,150333	0,5	-0,898400
25,158667	0,5	-0,902100
25,167000	0,5	-0,903950
25,175333	0,5	-0,896450
25,183667	0,5	-0,894250
25,192000	0,5	-0,888500
25,200333	0,5	-0,885000
25,208667	0,5	-0,879800
25,217000	0,5	-0,874300
25,225333	0,5	-0,870650
25,233667	0,5	-0,862450
25,242000	0,5	-0,855550
25,250333	0,5	-0,856600
25,258667	0,5	-0,850450
25,267000	0,5	-0,845850
25,275333	0,5	-0,839650
25,283667	0,5	-0,832550
25,292000	0,5	-0,828000
25,300333	0,5	-0,826400
25,308667	0,5	-0,826050
25,317000	0,5	-0,822100
25,325333	0,5	-0,819900
25,333667	0,5	-0,816750
25,342000	0,5	-0,817550
25,350333	0,5	-0,813750
25,358667	0,5	-0,810900
25,367000	0,5	-0,809500
25,375333	0,5	-0,807200
25,383667	0,5	-0,804400
25,392000	0,5	-0,802550
25,400333	0,5	-0,803550
25,408667	0,5	-0,800050
25,417000	0,5	-0,795700
25,425333	0,5	-0,795250
25,433667	0,5	-0,790750
25,442000	0,5	-0,791300
25,450333	0,5	-0,787150
25,458667	0,5	-0,782550
25,467000	0,5	-0,777250
25,475333	0,5	-0,773750
25,483667	0,5	-0,773100
25,492000	0,5	-0,767250
25,500333	0,5	-0,765050
25,508667	0,5	-0,761300
25,517000	0,5	-0,759700
25,525333	0,5	-0,755250
25,533667	0,5	-0,753950
25,542000	0,5	-0,750750
25,550333	0,5	-0,748050
25,558667	0,5	-0,746700
25,567000	0,5	-0,744800
25,575333	0,5	-0,748450
25,583667	0,5	-0,747050
25,592000	0,5	-0,748000
25,600333	0,5	-0,744300
25,608667	0,5	-0,740900
25,617000	0,5	-0,738200
25,625333	0,5	-0,737700
25,633667	0,5	-0,734700
25,642000	0,5	-0,734450
25,650333	0,5	-0,733750
25,658667	0,5	-0,731400
25,667000	0,5	-0,727050
25,675333	0,5	-0,726750
25,683667	0,5	-0,721300
25,692000	0,5	-0,717600
25,700333	0,5	-0,714000
25,708667	0,5	-0,710750
25,717000	0,5	-0,712300
25,725333	0,5	-0,714850
25,733667	0,5	-0,713200
25,742000	0,5	-0,711400
25,750333	0,5	-0,707000
25,758667	0,5	-0,705050
25,767000	0,5	-0,707050
25,775333	0,5	-0,701700
25,783667	0,5	-0,703750
25,792000	0,5	-0,702900
25,800333	0,5	-0,702500
25,808667	0,5	-0,701000
25,817000	0,5	-0,700800
25,825333	0,5	-0,699100
25,833667	0,5	-0,698450
25,842000	0,5	-0,693250
25,850333	0,5	-0,695700
25,858667	0,5	-0,678800
25,867000	0,5	-0,688650
25,875333	0,5	-0,686900
25,883667	0,5	-0,684850
25,892000	0,5	-0,679350
25,900333	0,5	-0,669150
25,908667	0,5	-0,668500
25,917000	0,5	-0,664800
25,925333	0,5	-0,660350
25,933667	0,5	-0,657100
25,942000	0,5	-0,656400
25,950333	0,5	-0,655000
25,958667	0,5	-0,656250
25,967000	0,5	-0,655250
25,975333	0,5	-0,653800
25,983667	0,5	-0,648150
25,992000	0,5	-0,652900
26,000333	0,5	-0,650800
