File Path	chrom://chromeleon01/ikbm_chromeleon/2022/ICS-5000/ED1/Esteban/20220612_Cell_7_4_eg.seq/715.smp/ED_1.channel/ED_1.chm
Channel	ED_1

Injection Information:
Data Vault	ikbm_chromeleon
Injection	CelS2_01h-EGS_2
Injection Number	111
Position	BB3
Comment	
Processing Method	Stop sequence after Cell Death
Instrument Method	ICS5000_PA200_FullNative_Ox_26min_ED1
Type	Unknown
Status	Finished
Injection Date	14.06.2022
Injection Time	20:31:50
Injection Volume (µl)	5,0
Dilution Factor	1,0000
Weight	1,0000

Chromatogram Data Information:
Time Min. (min)	0,000333
Time Max. (min)	26,000333
Data Points	3121
Detector	EDet1
Generating Data System	Chromeleon 7.2.9.11323
Exporting Data System	Chromeleon 7.2.9.0
Operator	Instrument Controller
Signal Quantity	
Signal Unit	nC
Signal Min.	-2,836350
Signal Max.	32,191300
Channel	ED_1
Driver Name	DC-5000
Channel Type	Evaluation
Min. Step (s)	0,5
Max. Step (s)	0,5
Average Step (s)	0,5

Signal Parameter Information:
Signal Info	

Chromatogram Data:
Time (min)	Step (s)	Value (nC)
0,000333	n.a.	-0,074250
0,008667	0,5	-0,090050
0,017000	0,5	-0,074750
0,025333	0,5	-0,065550
0,033667	0,5	-0,057100
0,042000	0,5	-0,038850
0,050333	0,5	-0,036950
0,058667	0,5	-0,039450
0,067000	0,5	-0,033950
0,075333	0,5	-0,021350
0,083667	0,5	-0,057000
0,092000	0,5	-0,054400
0,100333	0,5	-0,049950
0,108667	0,5	-0,014650
0,117000	0,5	0,004250
0,125333	0,5	0,007000
0,133667	0,5	-0,013700
0,142000	0,5	-0,004500
0,150333	0,5	-0,020850
0,158667	0,5	-0,010600
0,167000	0,5	-0,014500
0,175333	0,5	-0,015150
0,183667	0,5	-0,026050
0,192000	0,5	-0,022750
0,200333	0,5	-0,026700
0,208667	0,5	-0,034000
0,217000	0,5	-0,029250
0,225333	0,5	-0,031650
0,233667	0,5	-0,056000
0,242000	0,5	-0,053450
0,250333	0,5	-0,042300
0,258667	0,5	-0,012800
0,267000	0,5	0,007100
0,275333	0,5	-0,012300
0,283667	0,5	-0,006800
0,292000	0,5	-0,004500
0,300333	0,5	0,016200
0,308667	0,5	0,001900
0,317000	0,5	-0,017200
0,325333	0,5	-0,041650
0,333667	0,5	-0,041350
0,342000	0,5	-0,044500
0,350333	0,5	-0,053000
0,358667	0,5	-0,059650
0,367000	0,5	-0,035900
0,375333	0,5	-0,050450
0,383667	0,5	-0,061050
0,392000	0,5	-0,057550
0,400333	0,5	-0,041800
0,408667	0,5	-0,011950
0,417000	0,5	-0,009600
0,425333	0,5	-0,013600
0,433667	0,5	-0,018250
0,442000	0,5	-0,019000
0,450333	0,5	-0,018300
0,458667	0,5	-0,019450
0,467000	0,5	-0,027500
0,475333	0,5	-0,028750
0,483667	0,5	-0,033450
0,492000	0,5	-0,030300
0,500333	0,5	-0,059150
0,508667	0,5	-0,041900
0,517000	0,5	-0,038050
0,525333	0,5	-0,047450
0,533667	0,5	-0,057100
0,542000	0,5	-0,045050
0,550333	0,5	-0,025050
0,558667	0,5	0,002800
0,567000	0,5	-0,006850
0,575333	0,5	-0,005900
0,583667	0,5	-0,010800
0,592000	0,5	-0,002650
0,600333	0,5	-0,005250
0,608667	0,5	-0,003200
0,617000	0,5	-0,004850
0,625333	0,5	-0,013900
0,633667	0,5	-0,004850
0,642000	0,5	-0,016250
0,650333	0,5	-0,020300
0,658667	0,5	-0,004000
0,667000	0,5	0,000400
0,675333	0,5	-0,016850
0,683667	0,5	-0,016150
0,692000	0,5	-0,008250
0,700333	0,5	0,028700
0,708667	0,5	0,030700
0,717000	0,5	0,031600
0,725333	0,5	0,022800
0,733667	0,5	0,044200
0,742000	0,5	0,036250
0,750333	0,5	0,040350
0,758667	0,5	0,030050
0,767000	0,5	0,033100
0,775333	0,5	0,035550
0,783667	0,5	0,037150
0,792000	0,5	0,048000
0,800333	0,5	0,026000
0,808667	0,5	0,057900
0,817000	0,5	0,036650
0,825333	0,5	0,033400
0,833667	0,5	0,034000
0,842000	0,5	0,050450
0,850333	0,5	0,086450
0,858667	0,5	0,088800
0,867000	0,5	0,071100
0,875333	0,5	0,082450
0,883667	0,5	0,075600
0,892000	0,5	0,088300
0,900333	0,5	0,082550
0,908667	0,5	0,090350
0,917000	0,5	0,079300
0,925333	0,5	0,088700
0,933667	0,5	0,092600
0,942000	0,5	0,084450
0,950333	0,5	0,071000
0,958667	0,5	0,105350
0,967000	0,5	0,075850
0,975333	0,5	0,077850
0,983667	0,5	0,082200
0,992000	0,5	0,097050
1,000333	0,5	0,137700
1,008667	0,5	0,123850
1,017000	0,5	0,131900
1,025333	0,5	0,129400
1,033667	0,5	0,137400
1,042000	0,5	0,127200
1,050333	0,5	0,133450
1,058667	0,5	0,122450
1,067000	0,5	0,126850
1,075333	0,5	0,127800
1,083667	0,5	0,126750
1,092000	0,5	0,112600
1,100333	0,5	0,120500
1,108667	0,5	0,134900
1,117000	0,5	0,116400
1,125333	0,5	0,115350
1,133667	0,5	0,122650
1,142000	0,5	0,149150
1,150333	0,5	0,174150
1,158667	0,5	0,173700
1,167000	0,5	0,163250
1,175333	0,5	0,169150
1,183667	0,5	0,162100
1,192000	0,5	0,162600
1,200333	0,5	0,158500
1,208667	0,5	0,162400
1,217000	0,5	0,161200
1,225333	0,5	0,169550
1,233667	0,5	0,152500
1,242000	0,5	0,150600
1,250333	0,5	0,154000
1,258667	0,5	0,160800
1,267000	0,5	0,138900
1,275333	0,5	0,148400
1,283667	0,5	0,152500
1,292000	0,5	0,186650
1,300333	0,5	0,199150
1,308667	0,5	0,200650
1,317000	0,5	0,193500
1,325333	0,5	0,194700
1,333667	0,5	0,190450
1,342000	0,5	0,190700
1,350333	0,5	0,190200
1,358667	0,5	0,180550
1,367000	0,5	0,185800
1,375333	0,5	0,180850
1,383667	0,5	0,181200
1,392000	0,5	0,174200
1,400333	0,5	0,201400
1,408667	0,5	0,181900
1,417000	0,5	0,174400
1,425333	0,5	0,177200
1,433667	0,5	0,191850
1,442000	0,5	0,210450
1,450333	0,5	0,216700
1,458667	0,5	0,211600
1,467000	0,5	0,218600
1,475333	0,5	0,211100
1,483667	0,5	0,213450
1,492000	0,5	0,206100
1,500333	0,5	0,212800
1,508667	0,5	0,211300
1,517000	0,5	0,212450
1,525333	0,5	0,215450
1,533667	0,5	0,193350
1,542000	0,5	0,207350
1,550333	0,5	0,220550
1,558667	0,5	0,190000
1,567000	0,5	0,109850
1,575333	0,5	-0,138050
1,583667	0,5	-0,619850
1,592000	0,5	-0,986000
1,600333	0,5	-0,629200
1,608667	0,5	1,282150
1,617000	0,5	5,762750
1,625333	0,5	13,491000
1,633667	0,5	22,414500
1,642000	0,5	28,272950
1,650333	0,5	28,461800
1,658667	0,5	24,378300
1,667000	0,5	19,082850
1,675333	0,5	14,585650
1,683667	0,5	11,419100
1,692000	0,5	9,432650
1,700333	0,5	8,216100
1,708667	0,5	7,567350
1,717000	0,5	7,406050
1,725333	0,5	7,496950
1,733667	0,5	7,468200
1,742000	0,5	7,084400
1,750333	0,5	6,469450
1,758667	0,5	5,853000
1,767000	0,5	5,367600
1,775333	0,5	5,000800
1,783667	0,5	4,826000
1,792000	0,5	4,914600
1,800333	0,5	5,381650
1,808667	0,5	6,170250
1,817000	0,5	7,066800
1,825333	0,5	7,773750
1,833667	0,5	8,108600
1,842000	0,5	8,085650
1,850333	0,5	7,689200
1,858667	0,5	7,110550
1,867000	0,5	6,521700
1,875333	0,5	6,019600
1,883667	0,5	5,652200
1,892000	0,5	5,364100
1,900333	0,5	5,141000
1,908667	0,5	4,955650
1,917000	0,5	4,742850
1,925333	0,5	4,521650
1,933667	0,5	4,319000
1,942000	0,5	4,163050
1,950333	0,5	4,001500
1,958667	0,5	3,862700
1,967000	0,5	3,721350
1,975333	0,5	3,619150
1,983667	0,5	3,546400
1,992000	0,5	3,573750
2,000333	0,5	3,583200
2,008667	0,5	3,608600
2,017000	0,5	3,578900
2,025333	0,5	3,524550
2,033667	0,5	3,476550
2,042000	0,5	3,415900
2,050333	0,5	3,402100
2,058667	0,5	3,465000
2,067000	0,5	3,618900
2,075333	0,5	3,952050
2,083667	0,5	4,609050
2,092000	0,5	5,705800
2,100333	0,5	7,021250
2,108667	0,5	7,905100
2,117000	0,5	7,910050
2,125333	0,5	7,219250
2,133667	0,5	6,451350
2,142000	0,5	5,955200
2,150333	0,5	5,746100
2,158667	0,5	5,805850
2,167000	0,5	6,067650
2,175333	0,5	6,402150
2,183667	0,5	6,561250
2,192000	0,5	6,387200
2,200333	0,5	6,057950
2,208667	0,5	5,727050
2,217000	0,5	5,550300
2,225333	0,5	5,533350
2,233667	0,5	5,714550
2,242000	0,5	6,155650
2,250333	0,5	6,857400
2,258667	0,5	7,601150
2,267000	0,5	8,004950
2,275333	0,5	7,920900
2,283667	0,5	7,526850
2,292000	0,5	7,062200
2,300333	0,5	6,673150
2,308667	0,5	6,412500
2,317000	0,5	6,246550
2,325333	0,5	6,186800
2,333667	0,5	6,162350
2,342000	0,5	6,160650
2,350333	0,5	6,155350
2,358667	0,5	6,189950
2,367000	0,5	6,249300
2,375333	0,5	6,362050
2,383667	0,5	6,494800
2,392000	0,5	6,619900
2,400333	0,5	6,722600
2,408667	0,5	6,809750
2,417000	0,5	6,893650
2,425333	0,5	6,975700
2,433667	0,5	7,041550
2,442000	0,5	7,034100
2,450333	0,5	6,996100
2,458667	0,5	6,962200
2,467000	0,5	6,944050
2,475333	0,5	6,936900
2,483667	0,5	6,916850
2,492000	0,5	6,872000
2,500333	0,5	6,848050
2,508667	0,5	6,821050
2,517000	0,5	6,808550
2,525333	0,5	6,780250
2,533667	0,5	6,762950
2,542000	0,5	6,737200
2,550333	0,5	6,725700
2,558667	0,5	6,707350
2,567000	0,5	6,677600
2,575333	0,5	6,661700
2,583667	0,5	6,658000
2,592000	0,5	6,620050
2,600333	0,5	6,602300
2,608667	0,5	6,605950
2,617000	0,5	6,632300
2,625333	0,5	6,691200
2,633667	0,5	6,710700
2,642000	0,5	6,721950
2,650333	0,5	6,682000
2,658667	0,5	6,598550
2,667000	0,5	6,484850
2,675333	0,5	6,377350
2,683667	0,5	6,260050
2,692000	0,5	6,168900
2,700333	0,5	6,079800
2,708667	0,5	6,007750
2,717000	0,5	5,918300
2,725333	0,5	5,870850
2,733667	0,5	5,799950
2,742000	0,5	5,727100
2,750333	0,5	5,658400
2,758667	0,5	5,602500
2,767000	0,5	5,556000
2,775333	0,5	5,495350
2,783667	0,5	5,426850
2,792000	0,5	5,372550
2,800333	0,5	5,328350
2,808667	0,5	5,291050
2,817000	0,5	5,276850
2,825333	0,5	5,280900
2,833667	0,5	5,330350
2,842000	0,5	5,453300
2,850333	0,5	5,725800
2,858667	0,5	6,210750
2,867000	0,5	6,957550
2,875333	0,5	7,915400
2,883667	0,5	8,808100
2,892000	0,5	9,405700
2,900333	0,5	9,559000
2,908667	0,5	9,301950
2,917000	0,5	8,816850
2,925333	0,5	8,235950
2,933667	0,5	7,721950
2,942000	0,5	7,358500
2,950333	0,5	7,188300
2,958667	0,5	7,227900
2,967000	0,5	7,578300
2,975333	0,5	8,410100
2,983667	0,5	10,017250
2,992000	0,5	12,743700
3,000333	0,5	16,730150
3,008667	0,5	21,686150
3,017000	0,5	26,639250
3,025333	0,5	30,474100
3,033667	0,5	32,191300
3,042000	0,5	31,704150
3,050333	0,5	29,507100
3,058667	0,5	26,369200
3,067000	0,5	22,899500
3,075333	0,5	19,464700
3,083667	0,5	16,310000
3,092000	0,5	13,610850
3,100333	0,5	11,411700
3,108667	0,5	9,728400
3,117000	0,5	8,464550
3,125333	0,5	7,529700
3,133667	0,5	6,806650
3,142000	0,5	6,242200
3,150333	0,5	5,825500
3,158667	0,5	5,540900
3,167000	0,5	5,416800
3,175333	0,5	5,407050
3,183667	0,5	5,403100
3,192000	0,5	5,353650
3,200333	0,5	5,182550
3,208667	0,5	4,889550
3,217000	0,5	4,526750
3,225333	0,5	4,102100
3,233667	0,5	3,725250
3,242000	0,5	3,394950
3,250333	0,5	3,141150
3,258667	0,5	2,928250
3,267000	0,5	2,769850
3,275333	0,5	2,632800
3,283667	0,5	2,527350
3,292000	0,5	2,436200
3,300333	0,5	2,349200
3,308667	0,5	2,272250
3,317000	0,5	2,228750
3,325333	0,5	2,161600
3,333667	0,5	2,095900
3,342000	0,5	2,050250
3,350333	0,5	2,008200
3,358667	0,5	1,994300
3,367000	0,5	1,963300
3,375333	0,5	1,931500
3,383667	0,5	1,889250
3,392000	0,5	1,887650
3,400333	0,5	1,885250
3,408667	0,5	1,918750
3,417000	0,5	1,952100
3,425333	0,5	2,000250
3,433667	0,5	2,039200
3,442000	0,5	2,062700
3,450333	0,5	2,050500
3,458667	0,5	2,013550
3,467000	0,5	1,956650
3,475333	0,5	1,867800
3,483667	0,5	1,770200
3,492000	0,5	1,703350
3,500333	0,5	1,654400
3,508667	0,5	1,637950
3,517000	0,5	1,609600
3,525333	0,5	1,578500
3,533667	0,5	1,554950
3,542000	0,5	1,530500
3,550333	0,5	1,505450
3,558667	0,5	1,477200
3,567000	0,5	1,457500
3,575333	0,5	1,439650
3,583667	0,5	1,449700
3,592000	0,5	1,474400
3,600333	0,5	1,528850
3,608667	0,5	1,606450
3,617000	0,5	1,717800
3,625333	0,5	1,790900
3,633667	0,5	1,871350
3,642000	0,5	1,919150
3,650333	0,5	1,924550
3,658667	0,5	1,878650
3,667000	0,5	1,762500
3,675333	0,5	1,644050
3,683667	0,5	1,526300
3,692000	0,5	1,419750
3,700333	0,5	1,334450
3,708667	0,5	1,273100
3,717000	0,5	1,221900
3,725333	0,5	1,186800
3,733667	0,5	1,154900
3,742000	0,5	1,138800
3,750333	0,5	1,104650
3,758667	0,5	1,109350
3,767000	0,5	1,093550
3,775333	0,5	1,070700
3,783667	0,5	1,054850
3,792000	0,5	1,059200
3,800333	0,5	1,070650
3,808667	0,5	1,073600
3,817000	0,5	1,052200
3,825333	0,5	1,048250
3,833667	0,5	1,037950
3,842000	0,5	1,034650
3,850333	0,5	1,026650
3,858667	0,5	1,022550
3,867000	0,5	1,015300
3,875333	0,5	1,014850
3,883667	0,5	1,021500
3,892000	0,5	1,016450
3,900333	0,5	1,003050
3,908667	0,5	1,015400
3,917000	0,5	1,000400
3,925333	0,5	0,990500
3,933667	0,5	0,989900
3,942000	0,5	0,992250
3,950333	0,5	1,016950
3,958667	0,5	1,013100
3,967000	0,5	1,008050
3,975333	0,5	0,993000
3,983667	0,5	0,990450
3,992000	0,5	0,972900
4,000333	0,5	0,968250
4,008667	0,5	0,950800
4,017000	0,5	0,936500
4,025333	0,5	0,921600
4,033667	0,5	0,911550
4,042000	0,5	0,901100
4,050333	0,5	0,884500
4,058667	0,5	0,892600
4,067000	0,5	0,869300
4,075333	0,5	0,863550
4,083667	0,5	0,864350
4,092000	0,5	0,876350
4,100333	0,5	0,894450
4,108667	0,5	0,893900
4,117000	0,5	0,882850
4,125333	0,5	0,887600
4,133667	0,5	0,880050
4,142000	0,5	0,881050
4,150333	0,5	0,863700
4,158667	0,5	0,864300
4,167000	0,5	0,851450
4,175333	0,5	0,847250
4,183667	0,5	0,838450
4,192000	0,5	0,830450
4,200333	0,5	0,828450
4,208667	0,5	0,837700
4,217000	0,5	0,812150
4,225333	0,5	0,812650
4,233667	0,5	0,811900
4,242000	0,5	0,834700
4,250333	0,5	0,857100
4,258667	0,5	0,857400
4,267000	0,5	0,857150
4,275333	0,5	0,861250
4,283667	0,5	0,867350
4,292000	0,5	0,863900
4,300333	0,5	0,874000
4,308667	0,5	0,872750
4,317000	0,5	0,890850
4,325333	0,5	0,910300
4,333667	0,5	0,926450
4,342000	0,5	0,941050
4,350333	0,5	0,991150
4,358667	0,5	1,006350
4,367000	0,5	1,019600
4,375333	0,5	1,032550
4,383667	0,5	1,034750
4,392000	0,5	1,042550
4,400333	0,5	1,029150
4,408667	0,5	0,996150
4,417000	0,5	0,959650
4,425333	0,5	0,928700
4,433667	0,5	0,895100
4,442000	0,5	0,872500
4,450333	0,5	0,848900
4,458667	0,5	0,835050
4,467000	0,5	0,818650
4,475333	0,5	0,811700
4,483667	0,5	0,793600
4,492000	0,5	0,788400
4,500333	0,5	0,799150
4,508667	0,5	0,785350
4,517000	0,5	0,768450
4,525333	0,5	0,772100
4,533667	0,5	0,776100
4,542000	0,5	0,797600
4,550333	0,5	0,791150
4,558667	0,5	0,793950
4,567000	0,5	0,786700
4,575333	0,5	0,791400
4,583667	0,5	0,783800
4,592000	0,5	0,780750
4,600333	0,5	0,775600
4,608667	0,5	0,775050
4,617000	0,5	0,775100
4,625333	0,5	0,773150
4,633667	0,5	0,770450
4,642000	0,5	0,769450
4,650333	0,5	0,787650
4,658667	0,5	0,768450
4,667000	0,5	0,766500
4,675333	0,5	0,771300
4,683667	0,5	0,791000
4,692000	0,5	0,813750
4,700333	0,5	0,817300
4,708667	0,5	0,816650
4,717000	0,5	0,826350
4,725333	0,5	0,826900
4,733667	0,5	0,834100
4,742000	0,5	0,827500
4,750333	0,5	0,831950
4,758667	0,5	0,824550
4,767000	0,5	0,819700
4,775333	0,5	0,814150
4,783667	0,5	0,792000
4,792000	0,5	0,792850
4,800333	0,5	0,793550
4,808667	0,5	0,776500
4,817000	0,5	0,767300
4,825333	0,5	0,772350
4,833667	0,5	0,786300
4,842000	0,5	0,799350
4,850333	0,5	0,780100
4,858667	0,5	0,780400
4,867000	0,5	0,788450
4,875333	0,5	0,793100
4,883667	0,5	0,786850
4,892000	0,5	0,793600
4,900333	0,5	0,792300
4,908667	0,5	0,798150
4,917000	0,5	0,805900
4,925333	0,5	0,810300
4,933667	0,5	0,804850
4,942000	0,5	0,834850
4,950333	0,5	0,834050
4,958667	0,5	0,845150
4,967000	0,5	0,861600
4,975333	0,5	0,893350
4,983667	0,5	0,945500
4,992000	0,5	0,978350
5,000333	0,5	1,020300
5,008667	0,5	1,064050
5,017000	0,5	1,127150
5,025333	0,5	1,194150
5,033667	0,5	1,278800
5,042000	0,5	1,368200
5,050333	0,5	1,471450
5,058667	0,5	1,580700
5,067000	0,5	1,707000
5,075333	0,5	1,830000
5,083667	0,5	1,970150
5,092000	0,5	2,133750
5,100333	0,5	2,280350
5,108667	0,5	2,438100
5,117000	0,5	2,600350
5,125333	0,5	2,766200
5,133667	0,5	2,924000
5,142000	0,5	3,027450
5,150333	0,5	3,079800
5,158667	0,5	3,089000
5,167000	0,5	3,049450
5,175333	0,5	2,953700
5,183667	0,5	2,817450
5,192000	0,5	2,644100
5,200333	0,5	2,441800
5,208667	0,5	2,246750
5,217000	0,5	2,043700
5,225333	0,5	1,863500
5,233667	0,5	1,693600
5,242000	0,5	1,551350
5,250333	0,5	1,410100
5,258667	0,5	1,310450
5,267000	0,5	1,225950
5,275333	0,5	1,180100
5,283667	0,5	1,145600
5,292000	0,5	1,113050
5,300333	0,5	1,081750
5,308667	0,5	1,068000
5,317000	0,5	1,052500
5,325333	0,5	1,048100
5,333667	0,5	1,043150
5,342000	0,5	1,041650
5,350333	0,5	1,046900
5,358667	0,5	1,051850
5,367000	0,5	1,061750
5,375333	0,5	1,059700
5,383667	0,5	1,082150
5,392000	0,5	1,082600
5,400333	0,5	1,081750
5,408667	0,5	1,091100
5,417000	0,5	1,109750
5,425333	0,5	1,143450
5,433667	0,5	1,165000
5,442000	0,5	1,176300
5,450333	0,5	1,199450
5,458667	0,5	1,214450
5,467000	0,5	1,240400
5,475333	0,5	1,257050
5,483667	0,5	1,278300
5,492000	0,5	1,289450
5,500333	0,5	1,294150
5,508667	0,5	1,297650
5,517000	0,5	1,277300
5,525333	0,5	1,255550
5,533667	0,5	1,258050
5,542000	0,5	1,220800
5,550333	0,5	1,182700
5,558667	0,5	1,155200
5,567000	0,5	1,127750
5,575333	0,5	1,123250
5,583667	0,5	1,085100
5,592000	0,5	1,067950
5,600333	0,5	1,039300
5,608667	0,5	1,030150
5,617000	0,5	1,012050
5,625333	0,5	1,004800
5,633667	0,5	0,989200
5,642000	0,5	0,984850
5,650333	0,5	0,980300
5,658667	0,5	0,976900
5,667000	0,5	0,970950
5,675333	0,5	0,972050
5,683667	0,5	0,980150
5,692000	0,5	0,969250
5,700333	0,5	0,968350
5,708667	0,5	0,976750
5,717000	0,5	0,990350
5,725333	0,5	1,013550
5,733667	0,5	1,013800
5,742000	0,5	1,013200
5,750333	0,5	1,025800
5,758667	0,5	1,032500
5,767000	0,5	1,045550
5,775333	0,5	1,049700
5,783667	0,5	1,061200
5,792000	0,5	1,069400
5,800333	0,5	1,087250
5,808667	0,5	1,103450
5,817000	0,5	1,114500
5,825333	0,5	1,134500
5,833667	0,5	1,160300
5,842000	0,5	1,167500
5,850333	0,5	1,195200
5,858667	0,5	1,233500
5,867000	0,5	1,293050
5,875333	0,5	1,358500
5,883667	0,5	1,416300
5,892000	0,5	1,511200
5,900333	0,5	1,632850
5,908667	0,5	1,785050
5,917000	0,5	1,966700
5,925333	0,5	2,183000
5,933667	0,5	2,422300
5,942000	0,5	2,688250
5,950333	0,5	2,957750
5,958667	0,5	3,211450
5,967000	0,5	3,409050
5,975333	0,5	3,582300
5,983667	0,5	3,661800
5,992000	0,5	3,668050
6,000333	0,5	3,598050
6,008667	0,5	3,476750
6,017000	0,5	3,310050
6,025333	0,5	3,098000
6,033667	0,5	2,857700
6,042000	0,5	2,622550
6,050333	0,5	2,395750
6,058667	0,5	2,189650
6,067000	0,5	2,011600
6,075333	0,5	1,856050
6,083667	0,5	1,729200
6,092000	0,5	1,625900
6,100333	0,5	1,545500
6,108667	0,5	1,466950
6,117000	0,5	1,412800
6,125333	0,5	1,382900
6,133667	0,5	1,342550
6,142000	0,5	1,311850
6,150333	0,5	1,301150
6,158667	0,5	1,295100
6,167000	0,5	1,308500
6,175333	0,5	1,304450
6,183667	0,5	1,307050
6,192000	0,5	1,301500
6,200333	0,5	1,308150
6,208667	0,5	1,310550
6,217000	0,5	1,321050
6,225333	0,5	1,327850
6,233667	0,5	1,336200
6,242000	0,5	1,346300
6,250333	0,5	1,353800
6,258667	0,5	1,356800
6,267000	0,5	1,364100
6,275333	0,5	1,369050
6,283667	0,5	1,356900
6,292000	0,5	1,351350
6,300333	0,5	1,344200
6,308667	0,5	1,349650
6,317000	0,5	1,350850
6,325333	0,5	1,345450
6,333667	0,5	1,329700
6,342000	0,5	1,330700
6,350333	0,5	1,321050
6,358667	0,5	1,319200
6,367000	0,5	1,309500
6,375333	0,5	1,312200
6,383667	0,5	1,306900
6,392000	0,5	1,310700
6,400333	0,5	1,308200
6,408667	0,5	1,303200
6,417000	0,5	1,316650
6,425333	0,5	1,308400
6,433667	0,5	1,302800
6,442000	0,5	1,303350
6,450333	0,5	1,310050
6,458667	0,5	1,329150
6,467000	0,5	1,344100
6,475333	0,5	1,346900
6,483667	0,5	1,355300
6,492000	0,5	1,360000
6,500333	0,5	1,372950
6,508667	0,5	1,375800
6,517000	0,5	1,389600
6,525333	0,5	1,395000
6,533667	0,5	1,405300
6,542000	0,5	1,410500
6,550333	0,5	1,408900
6,558667	0,5	1,404350
6,567000	0,5	1,428350
6,575333	0,5	1,420900
6,583667	0,5	1,418150
6,592000	0,5	1,421600
6,600333	0,5	1,428650
6,608667	0,5	1,450300
6,617000	0,5	1,446000
6,625333	0,5	1,455300
6,633667	0,5	1,457450
6,642000	0,5	1,464550
6,650333	0,5	1,465850
6,658667	0,5	1,469400
6,667000	0,5	1,470000
6,675333	0,5	1,472500
6,683667	0,5	1,473000
6,692000	0,5	1,479300
6,700333	0,5	1,473350
6,708667	0,5	1,479250
6,717000	0,5	1,486450
6,725333	0,5	1,476800
6,733667	0,5	1,470000
6,742000	0,5	1,474300
6,750333	0,5	1,480100
6,758667	0,5	1,502600
6,767000	0,5	1,495800
6,775333	0,5	1,498650
6,783667	0,5	1,499700
6,792000	0,5	1,501450
6,800333	0,5	1,500400
6,808667	0,5	1,502200
6,817000	0,5	1,502000
6,825333	0,5	1,501700
6,833667	0,5	1,509100
6,842000	0,5	1,514800
6,850333	0,5	1,515450
6,858667	0,5	1,520250
6,867000	0,5	1,527200
6,875333	0,5	1,519800
6,883667	0,5	1,517600
6,892000	0,5	1,521650
6,900333	0,5	1,533100
6,908667	0,5	1,544700
6,917000	0,5	1,542050
6,925333	0,5	1,537550
6,933667	0,5	1,540650
6,942000	0,5	1,537750
6,950333	0,5	1,545800
6,958667	0,5	1,549100
6,967000	0,5	1,548550
6,975333	0,5	1,556400
6,983667	0,5	1,568000
6,992000	0,5	1,592950
7,000333	0,5	1,607400
7,008667	0,5	1,635100
7,017000	0,5	1,644650
7,025333	0,5	1,643800
7,033667	0,5	1,638800
7,042000	0,5	1,629150
7,050333	0,5	1,621450
7,058667	0,5	1,607600
7,067000	0,5	1,584150
7,075333	0,5	1,570250
7,083667	0,5	1,554750
7,092000	0,5	1,547550
7,100333	0,5	1,541250
7,108667	0,5	1,539400
7,117000	0,5	1,534450
7,125333	0,5	1,532050
7,133667	0,5	1,528950
7,142000	0,5	1,512600
7,150333	0,5	1,497500
7,158667	0,5	1,490950
7,167000	0,5	1,468100
7,175333	0,5	1,450950
7,183667	0,5	1,437250
7,192000	0,5	1,436300
7,200333	0,5	1,441750
7,208667	0,5	1,437800
7,217000	0,5	1,434850
7,225333	0,5	1,427300
7,233667	0,5	1,426450
7,242000	0,5	1,417750
7,250333	0,5	1,411700
7,258667	0,5	1,400500
7,267000	0,5	1,397300
7,275333	0,5	1,385950
7,283667	0,5	1,377200
7,292000	0,5	1,365250
7,300333	0,5	1,361750
7,308667	0,5	1,360900
7,317000	0,5	1,350000
7,325333	0,5	1,344400
7,333667	0,5	1,341300
7,342000	0,5	1,346900
7,350333	0,5	1,353650
7,358667	0,5	1,357250
7,367000	0,5	1,354400
7,375333	0,5	1,355900
7,383667	0,5	1,359100
7,392000	0,5	1,362600
7,400333	0,5	1,360650
7,408667	0,5	1,359750
7,417000	0,5	1,354600
7,425333	0,5	1,352400
7,433667	0,5	1,341900
7,442000	0,5	1,331100
7,450333	0,5	1,321650
7,458667	0,5	1,306400
7,467000	0,5	1,292050
7,475333	0,5	1,286900
7,483667	0,5	1,285450
7,492000	0,5	1,297500
7,500333	0,5	1,305350
7,508667	0,5	1,308200
7,517000	0,5	1,309750
7,525333	0,5	1,308500
7,533667	0,5	1,295700
7,542000	0,5	1,288100
7,550333	0,5	1,274300
7,558667	0,5	1,263150
7,567000	0,5	1,250150
7,575333	0,5	1,239400
7,583667	0,5	1,229800
7,592000	0,5	1,216850
7,600333	0,5	1,215650
7,608667	0,5	1,201000
7,617000	0,5	1,197450
7,625333	0,5	1,193500
7,633667	0,5	1,202950
7,642000	0,5	1,227500
7,650333	0,5	1,255500
7,658667	0,5	1,304500
7,667000	0,5	1,370500
7,675333	0,5	1,445750
7,683667	0,5	1,526400
7,692000	0,5	1,592600
7,700333	0,5	1,627500
7,708667	0,5	1,608800
7,717000	0,5	1,548050
7,725333	0,5	1,463750
7,733667	0,5	1,367850
7,742000	0,5	1,287650
7,750333	0,5	1,237350
7,758667	0,5	1,198550
7,767000	0,5	1,174750
7,775333	0,5	1,166650
7,783667	0,5	1,166950
7,792000	0,5	1,177250
7,800333	0,5	1,177950
7,808667	0,5	1,180050
7,817000	0,5	1,173450
7,825333	0,5	1,165500
7,833667	0,5	1,152700
7,842000	0,5	1,143250
7,850333	0,5	1,133500
7,858667	0,5	1,130800
7,867000	0,5	1,129200
7,875333	0,5	1,127700
7,883667	0,5	1,121600
7,892000	0,5	1,119450
7,900333	0,5	1,122650
7,908667	0,5	1,115900
7,917000	0,5	1,119550
7,925333	0,5	1,140300
7,933667	0,5	1,169300
7,942000	0,5	1,192800
7,950333	0,5	1,203500
7,958667	0,5	1,193700
7,967000	0,5	1,170250
7,975333	0,5	1,140100
7,983667	0,5	1,114700
7,992000	0,5	1,102850
8,000333	0,5	1,110000
8,008667	0,5	1,136050
8,017000	0,5	1,174700
8,025333	0,5	1,218750
8,033667	0,5	1,255100
8,042000	0,5	1,290550
8,050333	0,5	1,333050
8,058667	0,5	1,385000
8,067000	0,5	1,468300
8,075333	0,5	1,571750
8,083667	0,5	1,710500
8,092000	0,5	1,883400
8,100333	0,5	2,120500
8,108667	0,5	2,514750
8,117000	0,5	3,216750
8,125333	0,5	4,451650
8,133667	0,5	6,361800
8,142000	0,5	8,799150
8,150333	0,5	11,188450
8,158667	0,5	12,713450
8,167000	0,5	12,787500
8,175333	0,5	11,427100
8,183667	0,5	9,199200
8,192000	0,5	6,840400
8,200333	0,5	4,851900
8,208667	0,5	3,431200
8,217000	0,5	2,533900
8,225333	0,5	2,009500
8,233667	0,5	1,719550
8,242000	0,5	1,559200
8,250333	0,5	1,461100
8,258667	0,5	1,398150
8,267000	0,5	1,345750
8,275333	0,5	1,302800
8,283667	0,5	1,262850
8,292000	0,5	1,232400
8,300333	0,5	1,214150
8,308667	0,5	1,197450
8,317000	0,5	1,176650
8,325333	0,5	1,149700
8,333667	0,5	1,116800
8,342000	0,5	1,095600
8,350333	0,5	1,074450
8,358667	0,5	1,064050
8,367000	0,5	1,055750
8,375333	0,5	1,054700
8,383667	0,5	1,053150
8,392000	0,5	1,046850
8,400333	0,5	1,033850
8,408667	0,5	1,019950
8,417000	0,5	1,007200
8,425333	0,5	0,995600
8,433667	0,5	0,983950
8,442000	0,5	0,980450
8,450333	0,5	0,975100
8,458667	0,5	0,970700
8,467000	0,5	0,972250
8,475333	0,5	0,974350
8,483667	0,5	0,979450
8,492000	0,5	0,983500
8,500333	0,5	0,983100
8,508667	0,5	0,982600
8,517000	0,5	0,984200
8,525333	0,5	0,997550
8,533667	0,5	1,008400
8,542000	0,5	1,026000
8,550333	0,5	1,029000
8,558667	0,5	1,025850
8,567000	0,5	1,013950
8,575333	0,5	0,998650
8,583667	0,5	0,990900
8,592000	0,5	0,988350
8,600333	0,5	0,990000
8,608667	0,5	0,995200
8,617000	0,5	1,003350
8,625333	0,5	1,005350
8,633667	0,5	1,006500
8,642000	0,5	1,001350
8,650333	0,5	0,992950
8,658667	0,5	0,971600
8,667000	0,5	0,956800
8,675333	0,5	0,950950
8,683667	0,5	0,951950
8,692000	0,5	0,959300
8,700333	0,5	0,976400
8,708667	0,5	1,001350
8,717000	0,5	1,032800
8,725333	0,5	1,063550
8,733667	0,5	1,097500
8,742000	0,5	1,119950
8,750333	0,5	1,132550
8,758667	0,5	1,128700
8,767000	0,5	1,103050
8,775333	0,5	1,067800
8,783667	0,5	1,037300
8,792000	0,5	1,013450
8,800333	0,5	0,995850
8,808667	0,5	0,988950
8,817000	0,5	0,994800
8,825333	0,5	1,020300
8,833667	0,5	1,065700
8,842000	0,5	1,135850
8,850333	0,5	1,224550
8,858667	0,5	1,323200
8,867000	0,5	1,421600
8,875333	0,5	1,538550
8,883667	0,5	1,688750
8,892000	0,5	1,932400
8,900333	0,5	2,380700
8,908667	0,5	3,254450
8,917000	0,5	4,799650
8,925333	0,5	7,090050
8,933667	0,5	9,705350
8,942000	0,5	11,743300
8,950333	0,5	12,371200
8,958667	0,5	11,378450
8,967000	0,5	9,255750
8,975333	0,5	6,838900
8,983667	0,5	4,756050
8,992000	0,5	3,268200
9,000333	0,5	2,335600
9,008667	0,5	1,801150
9,017000	0,5	1,506800
9,025333	0,5	1,340150
9,033667	0,5	1,246200
9,042000	0,5	1,194050
9,050333	0,5	1,159550
9,058667	0,5	1,134200
9,067000	0,5	1,108400
9,075333	0,5	1,092000
9,083667	0,5	1,080600
9,092000	0,5	1,079650
9,100333	0,5	1,081550
9,108667	0,5	1,090350
9,117000	0,5	1,097550
9,125333	0,5	1,102250
9,133667	0,5	1,107600
9,142000	0,5	1,105750
9,150333	0,5	1,109650
9,158667	0,5	1,110000
9,167000	0,5	1,114950
9,175333	0,5	1,122050
9,183667	0,5	1,131650
9,192000	0,5	1,142100
9,200333	0,5	1,155350
9,208667	0,5	1,171150
9,217000	0,5	1,184350
9,225333	0,5	1,194050
9,233667	0,5	1,194450
9,242000	0,5	1,188700
9,250333	0,5	1,185450
9,258667	0,5	1,185000
9,267000	0,5	1,187250
9,275333	0,5	1,187300
9,283667	0,5	1,183000
9,292000	0,5	1,170100
9,300333	0,5	1,142800
9,308667	0,5	1,115050
9,317000	0,5	1,092600
9,325333	0,5	1,067450
9,333667	0,5	1,051450
9,342000	0,5	1,037000
9,350333	0,5	1,033700
9,358667	0,5	1,027450
9,367000	0,5	1,024150
9,375333	0,5	1,029600
9,383667	0,5	1,033200
9,392000	0,5	1,039850
9,400333	0,5	1,047300
9,408667	0,5	1,055800
9,417000	0,5	1,068850
9,425333	0,5	1,079300
9,433667	0,5	1,091300
9,442000	0,5	1,098900
9,450333	0,5	1,107800
9,458667	0,5	1,111400
9,467000	0,5	1,120050
9,475333	0,5	1,124550
9,483667	0,5	1,128450
9,492000	0,5	1,129350
9,500333	0,5	1,130550
9,508667	0,5	1,125000
9,517000	0,5	1,127750
9,525333	0,5	1,123750
9,533667	0,5	1,129550
9,542000	0,5	1,130250
9,550333	0,5	1,140900
9,558667	0,5	1,154800
9,567000	0,5	1,178900
9,575333	0,5	1,207350
9,583667	0,5	1,240700
9,592000	0,5	1,277500
9,600333	0,5	1,316500
9,608667	0,5	1,352500
9,617000	0,5	1,382300
9,625333	0,5	1,405450
9,633667	0,5	1,421850
9,642000	0,5	1,433450
9,650333	0,5	1,439250
9,658667	0,5	1,439050
9,667000	0,5	1,430100
9,675333	0,5	1,422200
9,683667	0,5	1,405950
9,692000	0,5	1,394000
9,700333	0,5	1,381500
9,708667	0,5	1,375650
9,717000	0,5	1,376100
9,725333	0,5	1,384750
9,733667	0,5	1,390850
9,742000	0,5	1,402000
9,750333	0,5	1,408500
9,758667	0,5	1,417750
9,767000	0,5	1,424300
9,775333	0,5	1,430600
9,783667	0,5	1,438100
9,792000	0,5	1,449650
9,800333	0,5	1,461900
9,808667	0,5	1,468550
9,817000	0,5	1,478450
9,825333	0,5	1,484850
9,833667	0,5	1,488050
9,842000	0,5	1,490250
9,850333	0,5	1,489350
9,858667	0,5	1,494900
9,867000	0,5	1,503700
9,875333	0,5	1,513500
9,883667	0,5	1,526550
9,892000	0,5	1,540700
9,900333	0,5	1,561800
9,908667	0,5	1,579500
9,917000	0,5	1,600850
9,925333	0,5	1,612450
9,933667	0,5	1,624850
9,942000	0,5	1,629350
9,950333	0,5	1,631750
9,958667	0,5	1,625350
9,967000	0,5	1,631950
9,975333	0,5	1,634100
9,983667	0,5	1,641000
9,992000	0,5	1,646200
10,000333	0,5	1,657700
10,008667	0,5	1,672500
10,017000	0,5	1,690550
10,025333	0,5	1,716350
10,033667	0,5	1,748400
10,042000	0,5	1,794450
10,050333	0,5	1,851100
10,058667	0,5	1,922750
10,067000	0,5	2,006300
10,075333	0,5	2,109650
10,083667	0,5	2,226050
10,092000	0,5	2,353500
10,100333	0,5	2,483250
10,108667	0,5	2,608500
10,117000	0,5	2,722750
10,125333	0,5	2,799400
10,133667	0,5	2,835200
10,142000	0,5	2,822200
10,150333	0,5	2,755200
10,158667	0,5	2,653600
10,167000	0,5	2,517900
10,175333	0,5	2,375700
10,183667	0,5	2,232950
10,192000	0,5	2,108450
10,200333	0,5	2,010350
10,208667	0,5	1,938950
10,217000	0,5	1,890650
10,225333	0,5	1,858950
10,233667	0,5	1,840900
10,242000	0,5	1,830950
10,250333	0,5	1,819250
10,258667	0,5	1,809450
10,267000	0,5	1,800650
10,275333	0,5	1,785750
10,283667	0,5	1,773250
10,292000	0,5	1,761300
10,300333	0,5	1,754050
10,308667	0,5	1,753050
10,317000	0,5	1,748950
10,325333	0,5	1,746050
10,333667	0,5	1,745750
10,342000	0,5	1,746700
10,350333	0,5	1,745600
10,358667	0,5	1,750200
10,367000	0,5	1,754300
10,375333	0,5	1,761100
10,383667	0,5	1,765450
10,392000	0,5	1,769500
10,400333	0,5	1,768900
10,408667	0,5	1,772450
10,417000	0,5	1,773450
10,425333	0,5	1,768250
10,433667	0,5	1,765000
10,442000	0,5	1,763600
10,450333	0,5	1,765350
10,458667	0,5	1,771500
10,467000	0,5	1,773100
10,475333	0,5	1,781650
10,483667	0,5	1,783250
10,492000	0,5	1,794100
10,500333	0,5	1,802900
10,508667	0,5	1,813900
10,517000	0,5	1,819900
10,525333	0,5	1,823000
10,533667	0,5	1,825350
10,542000	0,5	1,819200
10,550333	0,5	1,806050
10,558667	0,5	1,798550
10,567000	0,5	1,792300
10,575333	0,5	1,778950
10,583667	0,5	1,769800
10,592000	0,5	1,758400
10,600333	0,5	1,756200
10,608667	0,5	1,750200
10,617000	0,5	1,745500
10,625333	0,5	1,739600
10,633667	0,5	1,741400
10,642000	0,5	1,737250
10,650333	0,5	1,735150
10,658667	0,5	1,727900
10,667000	0,5	1,723100
10,675333	0,5	1,713100
10,683667	0,5	1,707100
10,692000	0,5	1,701400
10,700333	0,5	1,690450
10,708667	0,5	1,695450
10,717000	0,5	1,693950
10,725333	0,5	1,698200
10,733667	0,5	1,700200
10,742000	0,5	1,697000
10,750333	0,5	1,703050
10,758667	0,5	1,698050
10,767000	0,5	1,687700
10,775333	0,5	1,667450
10,783667	0,5	1,649950
10,792000	0,5	1,631850
10,800333	0,5	1,611700
10,808667	0,5	1,592800
10,817000	0,5	1,574800
10,825333	0,5	1,555750
10,833667	0,5	1,542000
10,842000	0,5	1,530500
10,850333	0,5	1,519350
10,858667	0,5	1,513650
10,867000	0,5	1,508850
10,875333	0,5	1,498900
10,883667	0,5	1,493800
10,892000	0,5	1,482850
10,900333	0,5	1,482450
10,908667	0,5	1,479250
10,917000	0,5	1,480100
10,925333	0,5	1,490800
10,933667	0,5	1,497150
10,942000	0,5	1,510800
10,950333	0,5	1,517300
10,958667	0,5	1,518900
10,967000	0,5	1,517450
10,975333	0,5	1,503750
10,983667	0,5	1,489500
10,992000	0,5	1,466200
11,000333	0,5	1,444650
11,008667	0,5	1,425100
11,017000	0,5	1,404300
11,025333	0,5	1,384400
11,033667	0,5	1,370500
11,042000	0,5	1,355650
11,050333	0,5	1,351650
11,058667	0,5	1,342300
11,067000	0,5	1,342800
11,075333	0,5	1,339800
11,083667	0,5	1,339950
11,092000	0,5	1,336050
11,100333	0,5	1,341150
11,108667	0,5	1,348150
11,117000	0,5	1,354300
11,125333	0,5	1,372000
11,133667	0,5	1,380200
11,142000	0,5	1,382300
11,150333	0,5	1,385400
11,158667	0,5	1,378000
11,167000	0,5	1,364300
11,175333	0,5	1,344550
11,183667	0,5	1,323500
11,192000	0,5	1,313950
11,200333	0,5	1,303850
11,208667	0,5	1,297050
11,217000	0,5	1,287000
11,225333	0,5	1,282100
11,233667	0,5	1,282400
11,242000	0,5	1,279050
11,250333	0,5	1,280500
11,258667	0,5	1,283150
11,267000	0,5	1,292650
11,275333	0,5	1,300750
11,283667	0,5	1,308300
11,292000	0,5	1,323700
11,300333	0,5	1,341950
11,308667	0,5	1,355400
11,317000	0,5	1,364150
11,325333	0,5	1,370050
11,333667	0,5	1,373750
11,342000	0,5	1,371150
11,350333	0,5	1,368150
11,358667	0,5	1,352350
11,367000	0,5	1,329900
11,375333	0,5	1,301300
11,383667	0,5	1,269300
11,392000	0,5	1,233900
11,400333	0,5	1,203250
11,408667	0,5	1,180850
11,417000	0,5	1,170850
11,425333	0,5	1,171350
11,433667	0,5	1,175650
11,442000	0,5	1,195250
11,450333	0,5	1,217150
11,458667	0,5	1,229100
11,467000	0,5	1,240850
11,475333	0,5	1,242850
11,483667	0,5	1,245400
11,492000	0,5	1,247300
11,500333	0,5	1,235950
11,508667	0,5	1,231550
11,517000	0,5	1,223900
11,525333	0,5	1,218950
11,533667	0,5	1,211850
11,542000	0,5	1,206250
11,550333	0,5	1,197600
11,558667	0,5	1,194750
11,567000	0,5	1,193550
11,575333	0,5	1,193900
11,583667	0,5	1,184050
11,592000	0,5	1,189450
11,600333	0,5	1,188400
11,608667	0,5	1,186050
11,617000	0,5	1,180800
11,625333	0,5	1,170500
11,633667	0,5	1,168150
11,642000	0,5	1,163300
11,650333	0,5	1,158300
11,658667	0,5	1,152750
11,667000	0,5	1,149900
11,675333	0,5	1,147600
11,683667	0,5	1,145800
11,692000	0,5	1,148050
11,700333	0,5	1,146800
11,708667	0,5	1,148150
11,717000	0,5	1,153350
11,725333	0,5	1,150950
11,733667	0,5	1,149850
11,742000	0,5	1,158800
11,750333	0,5	1,157650
11,758667	0,5	1,157150
11,767000	0,5	1,159350
11,775333	0,5	1,159450
11,783667	0,5	1,173000
11,792000	0,5	1,182500
11,800333	0,5	1,194950
11,808667	0,5	1,207200
11,817000	0,5	1,222000
11,825333	0,5	1,232700
11,833667	0,5	1,244750
11,842000	0,5	1,251750
11,850333	0,5	1,257400
11,858667	0,5	1,262400
11,867000	0,5	1,266500
11,875333	0,5	1,261950
11,883667	0,5	1,260200
11,892000	0,5	1,263850
11,900333	0,5	1,263100
11,908667	0,5	1,265300
11,917000	0,5	1,267850
11,925333	0,5	1,272250
11,933667	0,5	1,284700
11,942000	0,5	1,299550
11,950333	0,5	1,307800
11,958667	0,5	1,324000
11,967000	0,5	1,339400
11,975333	0,5	1,356700
11,983667	0,5	1,378650
11,992000	0,5	1,403600
12,000333	0,5	1,440900
12,008667	0,5	1,474000
12,017000	0,5	1,519800
12,025333	0,5	1,555350
12,033667	0,5	1,600350
12,042000	0,5	1,633000
12,050333	0,5	1,649750
12,058667	0,5	1,653200
12,067000	0,5	1,641600
12,075333	0,5	1,629950
12,083667	0,5	1,616200
12,092000	0,5	1,598800
12,100333	0,5	1,590700
12,108667	0,5	1,576050
12,117000	0,5	1,567600
12,125333	0,5	1,556550
12,133667	0,5	1,542800
12,142000	0,5	1,525800
12,150333	0,5	1,509850
12,158667	0,5	1,498400
12,167000	0,5	1,483800
12,175333	0,5	1,469100
12,183667	0,5	1,465950
12,192000	0,5	1,462250
12,200333	0,5	1,457500
12,208667	0,5	1,454750
12,217000	0,5	1,450400
12,225333	0,5	1,451550
12,233667	0,5	1,450550
12,242000	0,5	1,451300
12,250333	0,5	1,446750
12,258667	0,5	1,447300
12,267000	0,5	1,444600
12,275333	0,5	1,444600
12,283667	0,5	1,440700
12,292000	0,5	1,438500
12,300333	0,5	1,438800
12,308667	0,5	1,440300
12,317000	0,5	1,435400
12,325333	0,5	1,440600
12,333667	0,5	1,448800
12,342000	0,5	1,456350
12,350333	0,5	1,456500
12,358667	0,5	1,453600
12,367000	0,5	1,455550
12,375333	0,5	1,456000
12,383667	0,5	1,454900
12,392000	0,5	1,447900
12,400333	0,5	1,441200
12,408667	0,5	1,431500
12,417000	0,5	1,424050
12,425333	0,5	1,414800
12,433667	0,5	1,410450
12,442000	0,5	1,402500
12,450333	0,5	1,401100
12,458667	0,5	1,400550
12,467000	0,5	1,390500
12,475333	0,5	1,394200
12,483667	0,5	1,396700
12,492000	0,5	1,393450
12,500333	0,5	1,394000
12,508667	0,5	1,379650
12,517000	0,5	1,381150
12,525333	0,5	1,383650
12,533667	0,5	1,382100
12,542000	0,5	1,380900
12,550333	0,5	1,377900
12,558667	0,5	1,380400
12,567000	0,5	1,381150
12,575333	0,5	1,384900
12,583667	0,5	1,387350
12,592000	0,5	1,388800
12,600333	0,5	1,396800
12,608667	0,5	1,403300
12,617000	0,5	1,396850
12,625333	0,5	1,407750
12,633667	0,5	1,406150
12,642000	0,5	1,401600
12,650333	0,5	1,396650
12,658667	0,5	1,384100
12,667000	0,5	1,385900
12,675333	0,5	1,383600
12,683667	0,5	1,375950
12,692000	0,5	1,380600
12,700333	0,5	1,377900
12,708667	0,5	1,382300
12,717000	0,5	1,386250
12,725333	0,5	1,389650
12,733667	0,5	1,392600
12,742000	0,5	1,394350
12,750333	0,5	1,405400
12,758667	0,5	1,402000
12,767000	0,5	1,398400
12,775333	0,5	1,402000
12,783667	0,5	1,399650
12,792000	0,5	1,391400
12,800333	0,5	1,383350
12,808667	0,5	1,374800
12,817000	0,5	1,375550
12,825333	0,5	1,371150
12,833667	0,5	1,368100
12,842000	0,5	1,367500
12,850333	0,5	1,371000
12,858667	0,5	1,370100
12,867000	0,5	1,370200
12,875333	0,5	1,367250
12,883667	0,5	1,359950
12,892000	0,5	1,354150
12,900333	0,5	1,343200
12,908667	0,5	1,324900
12,917000	0,5	1,319750
12,925333	0,5	1,315550
12,933667	0,5	1,304350
12,942000	0,5	1,297750
12,950333	0,5	1,288200
12,958667	0,5	1,284500
12,967000	0,5	1,281800
12,975333	0,5	1,286050
12,983667	0,5	1,283000
12,992000	0,5	1,288500
13,000333	0,5	1,291400
13,008667	0,5	1,299050
13,017000	0,5	1,301050
13,025333	0,5	1,297550
13,033667	0,5	1,295600
13,042000	0,5	1,293050
13,050333	0,5	1,290650
13,058667	0,5	1,293450
13,067000	0,5	1,302950
13,075333	0,5	1,309400
13,083667	0,5	1,311350
13,092000	0,5	1,304050
13,100333	0,5	1,293700
13,108667	0,5	1,291950
13,117000	0,5	1,293150
13,125333	0,5	1,295050
13,133667	0,5	1,303850
13,142000	0,5	1,304050
13,150333	0,5	1,306950
13,158667	0,5	1,300250
13,167000	0,5	1,295350
13,175333	0,5	1,288650
13,183667	0,5	1,287600
13,192000	0,5	1,297150
13,200333	0,5	1,297150
13,208667	0,5	1,290500
13,217000	0,5	1,295200
13,225333	0,5	1,282100
13,233667	0,5	1,273800
13,242000	0,5	1,261750
13,250333	0,5	1,254100
13,258667	0,5	1,260250
13,267000	0,5	1,258450
13,275333	0,5	1,253500
13,283667	0,5	1,245200
13,292000	0,5	1,242550
13,300333	0,5	1,235800
13,308667	0,5	1,236150
13,317000	0,5	1,230450
13,325333	0,5	1,229450
13,333667	0,5	1,224900
13,342000	0,5	1,223200
13,350333	0,5	1,212000
13,358667	0,5	1,213700
13,367000	0,5	1,218100
13,375333	0,5	1,217400
13,383667	0,5	1,212100
13,392000	0,5	1,199750
13,400333	0,5	1,201000
13,408667	0,5	1,200300
13,417000	0,5	1,201900
13,425333	0,5	1,199900
13,433667	0,5	1,199850
13,442000	0,5	1,195900
13,450333	0,5	1,193200
13,458667	0,5	1,187500
13,467000	0,5	1,187100
13,475333	0,5	1,181100
13,483667	0,5	1,179650
13,492000	0,5	1,174950
13,500333	0,5	1,166100
13,508667	0,5	1,173050
13,517000	0,5	1,174550
13,525333	0,5	1,168200
13,533667	0,5	1,166050
13,542000	0,5	1,152800
13,550333	0,5	1,154300
13,558667	0,5	1,155100
13,567000	0,5	1,155300
13,575333	0,5	1,151700
13,583667	0,5	1,150000
13,592000	0,5	1,147550
13,600333	0,5	1,146650
13,608667	0,5	1,149450
13,617000	0,5	1,145350
13,625333	0,5	1,143600
13,633667	0,5	1,139300
13,642000	0,5	1,138350
13,650333	0,5	1,133200
13,658667	0,5	1,142150
13,667000	0,5	1,140150
13,675333	0,5	1,137000
13,683667	0,5	1,127650
13,692000	0,5	1,122950
13,700333	0,5	1,128750
13,708667	0,5	1,130450
13,717000	0,5	1,128000
13,725333	0,5	1,131250
13,733667	0,5	1,127400
13,742000	0,5	1,129700
13,750333	0,5	1,130400
13,758667	0,5	1,129450
13,767000	0,5	1,126700
13,775333	0,5	1,119100
13,783667	0,5	1,123200
13,792000	0,5	1,111850
13,800333	0,5	1,109900
13,808667	0,5	1,111450
13,817000	0,5	1,108100
13,825333	0,5	1,100300
13,833667	0,5	1,093750
13,842000	0,5	1,086800
13,850333	0,5	1,097200
13,858667	0,5	1,097950
13,867000	0,5	1,104200
13,875333	0,5	1,100800
13,883667	0,5	1,105650
13,892000	0,5	1,103400
13,900333	0,5	1,108650
13,908667	0,5	1,106950
13,917000	0,5	1,098250
13,925333	0,5	1,080900
13,933667	0,5	1,064050
13,942000	0,5	1,032150
13,950333	0,5	1,014300
13,958667	0,5	0,993200
13,967000	0,5	0,964700
13,975333	0,5	0,935550
13,983667	0,5	0,894100
13,992000	0,5	0,847800
14,000333	0,5	0,773500
14,008667	0,5	0,614700
14,017000	0,5	0,358750
14,025333	0,5	0,105450
14,033667	0,5	-0,093450
14,042000	0,5	-0,212350
14,050333	0,5	-0,279450
14,058667	0,5	-0,323850
14,067000	0,5	-0,349600
14,075333	0,5	-0,368150
14,083667	0,5	-0,385050
14,092000	0,5	-0,400450
14,100333	0,5	-0,403500
14,108667	0,5	-0,416700
14,117000	0,5	-0,427100
14,125333	0,5	-0,445800
14,133667	0,5	-0,461800
14,142000	0,5	-0,466100
14,150333	0,5	-0,459000
14,158667	0,5	-0,462300
14,167000	0,5	-0,457650
14,175333	0,5	-0,455200
14,183667	0,5	-0,447300
14,192000	0,5	-0,443350
14,200333	0,5	-0,432450
14,208667	0,5	-0,429700
14,217000	0,5	-0,420350
14,225333	0,5	-0,409000
14,233667	0,5	-0,404350
14,242000	0,5	-0,393450
14,250333	0,5	-0,374750
14,258667	0,5	-0,365350
14,267000	0,5	-0,353050
14,275333	0,5	-0,349250
14,283667	0,5	-0,339050
14,292000	0,5	-0,320500
14,300333	0,5	-0,309300
14,308667	0,5	-0,299450
14,317000	0,5	-0,294050
14,325333	0,5	-0,286550
14,333667	0,5	-0,284650
14,342000	0,5	-0,274250
14,350333	0,5	-0,272000
14,358667	0,5	-0,265250
14,367000	0,5	-0,258250
14,375333	0,5	-0,243600
14,383667	0,5	-0,246400
14,392000	0,5	-0,229050
14,400333	0,5	-0,222950
14,408667	0,5	-0,220050
14,417000	0,5	-0,219400
14,425333	0,5	-0,224250
14,433667	0,5	-0,212250
14,442000	0,5	-0,205050
14,450333	0,5	-0,196300
14,458667	0,5	-0,185800
14,467000	0,5	-0,172000
14,475333	0,5	-0,155600
14,483667	0,5	-0,142600
14,492000	0,5	-0,129150
14,500333	0,5	-0,115750
14,508667	0,5	-0,101800
14,517000	0,5	-0,080550
14,525333	0,5	-0,064700
14,533667	0,5	-0,049150
14,542000	0,5	-0,023150
14,550333	0,5	0,002550
14,558667	0,5	0,018700
14,567000	0,5	0,033500
14,575333	0,5	0,041750
14,583667	0,5	0,068100
14,592000	0,5	0,084450
14,600333	0,5	0,105600
14,608667	0,5	0,118700
14,617000	0,5	0,139850
14,625333	0,5	0,163500
14,633667	0,5	0,184100
14,642000	0,5	0,209500
14,650333	0,5	0,228600
14,658667	0,5	0,252800
14,667000	0,5	0,279750
14,675333	0,5	0,300100
14,683667	0,5	0,327000
14,692000	0,5	0,360100
14,700333	0,5	0,386300
14,708667	0,5	0,411950
14,717000	0,5	0,428250
14,725333	0,5	0,449000
14,733667	0,5	0,480900
14,742000	0,5	0,503900
14,750333	0,5	0,526900
14,758667	0,5	0,554600
14,767000	0,5	0,577250
14,775333	0,5	0,600850
14,783667	0,5	0,620750
14,792000	0,5	0,639750
14,800333	0,5	0,651200
14,808667	0,5	0,654950
14,817000	0,5	0,673450
14,825333	0,5	0,659500
14,833667	0,5	0,663550
14,842000	0,5	0,658950
14,850333	0,5	0,652250
14,858667	0,5	0,638150
14,867000	0,5	0,623850
14,875333	0,5	0,621800
14,883667	0,5	0,627900
14,892000	0,5	0,622950
14,900333	0,5	0,625100
14,908667	0,5	0,622450
14,917000	0,5	0,624350
14,925333	0,5	0,614150
14,933667	0,5	0,609450
14,942000	0,5	0,599900
14,950333	0,5	0,589750
14,958667	0,5	0,586300
14,967000	0,5	0,583900
14,975333	0,5	0,563250
14,983667	0,5	0,574050
14,992000	0,5	0,570050
15,000333	0,5	0,563250
15,008667	0,5	0,549750
15,017000	0,5	0,537950
15,025333	0,5	0,539150
15,033667	0,5	0,534050
15,042000	0,5	0,536850
15,050333	0,5	0,527750
15,058667	0,5	0,527900
15,067000	0,5	0,521400
15,075333	0,5	0,521400
15,083667	0,5	0,519350
15,092000	0,5	0,513950
15,100333	0,5	0,508750
15,108667	0,5	0,510150
15,117000	0,5	0,497350
15,125333	0,5	0,499900
15,133667	0,5	0,503800
15,142000	0,5	0,496250
15,150333	0,5	0,491150
15,158667	0,5	0,474400
15,167000	0,5	0,457700
15,175333	0,5	0,453750
15,183667	0,5	0,456050
15,192000	0,5	0,451200
15,200333	0,5	0,450050
15,208667	0,5	0,446200
15,217000	0,5	0,445700
15,225333	0,5	0,441800
15,233667	0,5	0,442300
15,242000	0,5	0,432850
15,250333	0,5	0,437050
15,258667	0,5	0,429900
15,267000	0,5	0,417400
15,275333	0,5	0,420800
15,283667	0,5	0,425850
15,292000	0,5	0,416200
15,300333	0,5	0,410500
15,308667	0,5	0,392200
15,317000	0,5	0,386900
15,325333	0,5	0,390600
15,333667	0,5	0,387550
15,342000	0,5	0,381900
15,350333	0,5	0,382150
15,358667	0,5	0,378050
15,367000	0,5	0,376300
15,375333	0,5	0,377750
15,383667	0,5	0,373200
15,392000	0,5	0,370150
15,400333	0,5	0,365350
15,408667	0,5	0,359550
15,417000	0,5	0,345500
15,425333	0,5	0,356500
15,433667	0,5	0,358250
15,442000	0,5	0,347500
15,450333	0,5	0,332150
15,458667	0,5	0,321250
15,467000	0,5	0,323400
15,475333	0,5	0,321100
15,483667	0,5	0,314700
15,492000	0,5	0,308400
15,500333	0,5	0,303800
15,508667	0,5	0,299400
15,517000	0,5	0,297850
15,525333	0,5	0,291700
15,533667	0,5	0,289300
15,542000	0,5	0,277450
15,550333	0,5	0,282800
15,558667	0,5	0,273200
15,567000	0,5	0,269750
15,575333	0,5	0,277900
15,583667	0,5	0,277550
15,592000	0,5	0,264950
15,600333	0,5	0,254200
15,608667	0,5	0,239100
15,617000	0,5	0,244400
15,625333	0,5	0,236500
15,633667	0,5	0,235700
15,642000	0,5	0,222350
15,650333	0,5	0,219400
15,658667	0,5	0,213250
15,667000	0,5	0,214850
15,675333	0,5	0,214400
15,683667	0,5	0,208200
15,692000	0,5	0,206600
15,700333	0,5	0,209000
15,708667	0,5	0,196200
15,717000	0,5	0,199900
15,725333	0,5	0,198950
15,733667	0,5	0,195500
15,742000	0,5	0,187250
15,750333	0,5	0,166050
15,758667	0,5	0,166650
15,767000	0,5	0,164750
15,775333	0,5	0,165800
15,783667	0,5	0,157200
15,792000	0,5	0,158600
15,800333	0,5	0,156800
15,808667	0,5	0,154250
15,817000	0,5	0,151900
15,825333	0,5	0,144900
15,833667	0,5	0,140700
15,842000	0,5	0,137800
15,850333	0,5	0,135300
15,858667	0,5	0,121250
15,867000	0,5	0,133450
15,875333	0,5	0,126050
15,883667	0,5	0,127200
15,892000	0,5	0,109750
15,900333	0,5	0,094450
15,908667	0,5	0,094650
15,917000	0,5	0,099100
15,925333	0,5	0,089650
15,933667	0,5	0,087450
15,942000	0,5	0,081450
15,950333	0,5	0,083050
15,958667	0,5	0,078450
15,967000	0,5	0,076700
15,975333	0,5	0,071850
15,983667	0,5	0,068600
15,992000	0,5	0,072300
16,000333	0,5	0,070200
16,008667	0,5	0,057050
16,017000	0,5	0,065450
16,025333	0,5	0,055400
16,033667	0,5	0,048750
16,042000	0,5	0,036750
16,050333	0,5	0,020400
16,058667	0,5	0,024200
16,067000	0,5	0,015500
16,075333	0,5	0,016100
16,083667	0,5	0,011600
16,092000	0,5	0,015000
16,100333	0,5	0,009300
16,108667	0,5	0,013100
16,117000	0,5	0,006950
16,125333	0,5	0,005450
16,133667	0,5	0,006550
16,142000	0,5	0,007550
16,150333	0,5	-0,005850
16,158667	0,5	-0,002100
16,167000	0,5	0,001550
16,175333	0,5	-0,006450
16,183667	0,5	-0,017650
16,192000	0,5	-0,035400
16,200333	0,5	-0,037300
16,208667	0,5	-0,040950
16,217000	0,5	-0,040950
16,225333	0,5	-0,040100
16,233667	0,5	-0,040950
16,242000	0,5	-0,042950
16,250333	0,5	-0,041150
16,258667	0,5	-0,052350
16,267000	0,5	-0,052500
16,275333	0,5	-0,060050
16,283667	0,5	-0,052500
16,292000	0,5	-0,062300
16,300333	0,5	-0,074400
16,308667	0,5	-0,074300
16,317000	0,5	-0,070150
16,325333	0,5	-0,082100
16,333667	0,5	-0,091700
16,342000	0,5	-0,106400
16,350333	0,5	-0,108350
16,358667	0,5	-0,106150
16,367000	0,5	-0,111050
16,375333	0,5	-0,114650
16,383667	0,5	-0,117450
16,392000	0,5	-0,122250
16,400333	0,5	-0,125850
16,408667	0,5	-0,125500
16,417000	0,5	-0,133500
16,425333	0,5	-0,133650
16,433667	0,5	-0,134700
16,442000	0,5	-0,147000
16,450333	0,5	-0,152250
16,458667	0,5	-0,149400
16,467000	0,5	-0,151200
16,475333	0,5	-0,157800
16,483667	0,5	-0,180850
16,492000	0,5	-0,187150
16,500333	0,5	-0,187600
16,508667	0,5	-0,189400
16,517000	0,5	-0,198650
16,525333	0,5	-0,197250
16,533667	0,5	-0,197800
16,542000	0,5	-0,201300
16,550333	0,5	-0,202350
16,558667	0,5	-0,207650
16,567000	0,5	-0,211550
16,575333	0,5	-0,216650
16,583667	0,5	-0,206350
16,592000	0,5	-0,231300
16,600333	0,5	-0,225100
16,608667	0,5	-0,225500
16,617000	0,5	-0,231000
16,625333	0,5	-0,241750
16,633667	0,5	-0,256400
16,642000	0,5	-0,262950
16,650333	0,5	-0,257800
16,658667	0,5	-0,263900
16,667000	0,5	-0,262800
16,675333	0,5	-0,268750
16,683667	0,5	-0,267300
16,692000	0,5	-0,277750
16,700333	0,5	-0,276050
16,708667	0,5	-0,281750
16,717000	0,5	-0,289350
16,725333	0,5	-0,277450
16,733667	0,5	-0,276900
16,742000	0,5	-0,298850
16,750333	0,5	-0,291500
16,758667	0,5	-0,292900
16,767000	0,5	-0,303400
16,775333	0,5	-0,310850
16,783667	0,5	-0,335100
16,792000	0,5	-0,327200
16,800333	0,5	-0,334200
16,808667	0,5	-0,332500
16,817000	0,5	-0,343250
16,825333	0,5	-0,339800
16,833667	0,5	-0,346750
16,842000	0,5	-0,343550
16,850333	0,5	-0,345400
16,858667	0,5	-0,352950
16,867000	0,5	-0,351950
16,875333	0,5	-0,347950
16,883667	0,5	-0,352600
16,892000	0,5	-0,359200
16,900333	0,5	-0,351900
16,908667	0,5	-0,359900
16,917000	0,5	-0,364850
16,925333	0,5	-0,380550
16,933667	0,5	-0,397350
16,942000	0,5	-0,396100
16,950333	0,5	-0,389500
16,958667	0,5	-0,397450
16,967000	0,5	-0,395650
16,975333	0,5	-0,403000
16,983667	0,5	-0,407100
16,992000	0,5	-0,411950
17,000333	0,5	-0,411900
17,008667	0,5	-0,415200
17,017000	0,5	-0,413950
17,025333	0,5	-0,415350
17,033667	0,5	-0,423150
17,042000	0,5	-0,424800
17,050333	0,5	-0,413800
17,058667	0,5	-0,422500
17,067000	0,5	-0,432950
17,075333	0,5	-0,446800
17,083667	0,5	-0,460600
17,092000	0,5	-0,452250
17,100333	0,5	-0,459900
17,108667	0,5	-0,459650
17,117000	0,5	-0,464400
17,125333	0,5	-0,462700
17,133667	0,5	-0,463550
17,142000	0,5	-0,458300
17,150333	0,5	-0,462750
17,158667	0,5	-0,463450
17,167000	0,5	-0,456400
17,175333	0,5	-0,459100
17,183667	0,5	-0,477550
17,192000	0,5	-0,473450
17,200333	0,5	-0,475350
17,208667	0,5	-0,479100
17,217000	0,5	-0,493400
17,225333	0,5	-0,514000
17,233667	0,5	-0,508750
17,242000	0,5	-0,511350
17,250333	0,5	-0,505550
17,258667	0,5	-0,506850
17,267000	0,5	-0,501100
17,275333	0,5	-0,497900
17,283667	0,5	-0,493000
17,292000	0,5	-0,491800
17,300333	0,5	-0,489350
17,308667	0,5	-0,490650
17,317000	0,5	-0,484500
17,325333	0,5	-0,503800
17,333667	0,5	-0,507150
17,342000	0,5	-0,511500
17,350333	0,5	-0,515700
17,358667	0,5	-0,531600
17,367000	0,5	-0,550800
17,375333	0,5	-0,559700
17,383667	0,5	-0,561150
17,392000	0,5	-0,561900
17,400333	0,5	-0,566600
17,408667	0,5	-0,569950
17,417000	0,5	-0,573600
17,425333	0,5	-0,573900
17,433667	0,5	-0,574000
17,442000	0,5	-0,572500
17,450333	0,5	-0,583100
17,458667	0,5	-0,580500
17,467000	0,5	-0,585000
17,475333	0,5	-0,599550
17,483667	0,5	-0,590700
17,492000	0,5	-0,586550
17,500333	0,5	-0,590450
17,508667	0,5	-0,597450
17,517000	0,5	-0,620300
17,525333	0,5	-0,616450
17,533667	0,5	-0,615600
17,542000	0,5	-0,616500
17,550333	0,5	-0,624550
17,558667	0,5	-0,624900
17,567000	0,5	-0,622950
17,575333	0,5	-0,624400
17,583667	0,5	-0,621900
17,592000	0,5	-0,625850
17,600333	0,5	-0,624600
17,608667	0,5	-0,624950
17,617000	0,5	-0,618500
17,625333	0,5	-0,640600
17,633667	0,5	-0,620050
17,642000	0,5	-0,623900
17,650333	0,5	-0,629150
17,658667	0,5	-0,639550
17,667000	0,5	-0,658950
17,675333	0,5	-0,647550
17,683667	0,5	-0,642100
17,692000	0,5	-0,647150
17,700333	0,5	-0,649050
17,708667	0,5	-0,649450
17,717000	0,5	-0,649400
17,725333	0,5	-0,650000
17,733667	0,5	-0,647150
17,742000	0,5	-0,647000
17,750333	0,5	-0,651600
17,758667	0,5	-0,641150
17,767000	0,5	-0,640250
17,775333	0,5	-0,646200
17,783667	0,5	-0,638900
17,792000	0,5	-0,639000
17,800333	0,5	-0,643400
17,808667	0,5	-0,651350
17,817000	0,5	-0,666800
17,825333	0,5	-0,655900
17,833667	0,5	-0,657650
17,842000	0,5	-0,652700
17,850333	0,5	-0,655950
17,858667	0,5	-0,651700
17,867000	0,5	-0,648850
17,875333	0,5	-0,641350
17,883667	0,5	-0,639300
17,892000	0,5	-0,637800
17,900333	0,5	-0,628800
17,908667	0,5	-0,622900
17,917000	0,5	-0,619900
17,925333	0,5	-0,611300
17,933667	0,5	-0,604900
17,942000	0,5	-0,603550
17,950333	0,5	-0,612800
17,958667	0,5	-0,627400
17,967000	0,5	-0,633350
17,975333	0,5	-0,633350
17,983667	0,5	-0,627000
17,992000	0,5	-0,629550
18,000333	0,5	-0,619250
18,008667	0,5	-0,623950
18,017000	0,5	-0,620100
18,025333	0,5	-0,624200
18,033667	0,5	-0,626450
18,042000	0,5	-0,622700
18,050333	0,5	-0,616050
18,058667	0,5	-0,617350
18,067000	0,5	-0,621650
18,075333	0,5	-0,609300
18,083667	0,5	-0,608650
18,092000	0,5	-0,609800
18,100333	0,5	-0,621600
18,108667	0,5	-0,629950
18,117000	0,5	-0,635700
18,125333	0,5	-0,632300
18,133667	0,5	-0,631250
18,142000	0,5	-0,622750
18,150333	0,5	-0,627050
18,158667	0,5	-0,620700
18,167000	0,5	-0,623600
18,175333	0,5	-0,618650
18,183667	0,5	-0,618200
18,192000	0,5	-0,620250
18,200333	0,5	-0,617700
18,208667	0,5	-0,625250
18,217000	0,5	-0,625550
18,225333	0,5	-0,616100
18,233667	0,5	-0,620200
18,242000	0,5	-0,624500
18,250333	0,5	-0,645150
18,258667	0,5	-0,655950
18,267000	0,5	-0,650000
18,275333	0,5	-0,654950
18,283667	0,5	-0,651350
18,292000	0,5	-0,654600
18,300333	0,5	-0,651100
18,308667	0,5	-0,656000
18,317000	0,5	-0,656250
18,325333	0,5	-0,659750
18,333667	0,5	-0,662650
18,342000	0,5	-0,664800
18,350333	0,5	-0,661400
18,358667	0,5	-0,685950
18,367000	0,5	-0,670450
18,375333	0,5	-0,671600
18,383667	0,5	-0,676550
18,392000	0,5	-0,684450
18,400333	0,5	-0,709900
18,408667	0,5	-0,708900
18,417000	0,5	-0,710450
18,425333	0,5	-0,713000
18,433667	0,5	-0,721000
18,442000	0,5	-0,720450
18,450333	0,5	-0,727600
18,458667	0,5	-0,725000
18,467000	0,5	-0,734100
18,475333	0,5	-0,732100
18,483667	0,5	-0,739750
18,492000	0,5	-0,734600
18,500333	0,5	-0,744200
18,508667	0,5	-0,758300
18,517000	0,5	-0,751150
18,525333	0,5	-0,753900
18,533667	0,5	-0,764100
18,542000	0,5	-0,774800
18,550333	0,5	-0,796550
18,558667	0,5	-0,794600
18,567000	0,5	-0,796350
18,575333	0,5	-0,803550
18,583667	0,5	-0,808100
18,592000	0,5	-0,815700
18,600333	0,5	-0,820750
18,608667	0,5	-0,827500
18,617000	0,5	-0,825500
18,625333	0,5	-0,836550
18,633667	0,5	-0,839550
18,642000	0,5	-0,842150
18,650333	0,5	-0,851750
18,658667	0,5	-0,855600
18,667000	0,5	-0,844150
18,675333	0,5	-0,850700
18,683667	0,5	-0,860950
18,692000	0,5	-0,881850
18,700333	0,5	-0,892500
18,708667	0,5	-0,892250
18,717000	0,5	-0,895650
18,725333	0,5	-0,902450
18,733667	0,5	-0,904850
18,742000	0,5	-0,914100
18,750333	0,5	-0,923100
18,758667	0,5	-0,921350
18,767000	0,5	-0,931400
18,775333	0,5	-0,932550
18,783667	0,5	-0,943450
18,792000	0,5	-0,933950
18,800333	0,5	-0,954600
18,808667	0,5	-0,947600
18,817000	0,5	-0,943800
18,825333	0,5	-0,949950
18,833667	0,5	-0,966050
18,842000	0,5	-0,988200
18,850333	0,5	-0,988450
18,858667	0,5	-0,985950
18,867000	0,5	-0,994400
18,875333	0,5	-0,996050
18,883667	0,5	-1,001550
18,892000	0,5	-1,000750
18,900333	0,5	-0,996800
18,908667	0,5	-0,999950
18,917000	0,5	-1,001500
18,925333	0,5	-1,008250
18,933667	0,5	-0,996850
18,942000	0,5	-1,000050
18,950333	0,5	-1,011400
18,958667	0,5	-1,000500
18,967000	0,5	-1,003600
18,975333	0,5	-1,010850
18,983667	0,5	-1,028000
18,992000	0,5	-1,047200
19,000333	0,5	-1,039950
19,008667	0,5	-1,041600
19,017000	0,5	-1,041600
19,025333	0,5	-1,045200
19,033667	0,5	-1,046650
19,042000	0,5	-1,053800
19,050333	0,5	-1,054050
19,058667	0,5	-1,059850
19,067000	0,5	-1,069600
19,075333	0,5	-1,068950
19,083667	0,5	-1,068600
19,092000	0,5	-1,080200
19,100333	0,5	-1,088100
19,108667	0,5	-1,084200
19,117000	0,5	-1,098350
19,125333	0,5	-1,112000
19,133667	0,5	-1,136200
19,142000	0,5	-1,150000
19,150333	0,5	-1,157650
19,158667	0,5	-1,158650
19,167000	0,5	-1,173700
19,175333	0,5	-1,174950
19,183667	0,5	-1,185250
19,192000	0,5	-1,190300
19,200333	0,5	-1,197350
19,208667	0,5	-1,201600
19,217000	0,5	-1,209800
19,225333	0,5	-1,213950
19,233667	0,5	-1,220050
19,242000	0,5	-1,235950
19,250333	0,5	-1,233900
19,258667	0,5	-1,236750
19,267000	0,5	-1,242900
19,275333	0,5	-1,261700
19,283667	0,5	-1,276600
19,292000	0,5	-1,288950
19,300333	0,5	-1,281950
19,308667	0,5	-1,296150
19,317000	0,5	-1,295800
19,325333	0,5	-1,302250
19,333667	0,5	-1,301500
19,342000	0,5	-1,303750
19,350333	0,5	-1,305300
19,358667	0,5	-1,306950
19,367000	0,5	-1,306100
19,375333	0,5	-1,294250
19,383667	0,5	-1,303550
19,392000	0,5	-1,306700
19,400333	0,5	-1,295800
19,408667	0,5	-1,301550
19,417000	0,5	-1,313700
19,425333	0,5	-1,332900
19,433667	0,5	-1,354250
19,442000	0,5	-1,348000
19,450333	0,5	-1,367350
19,458667	0,5	-1,370250
19,467000	0,5	-1,384700
19,475333	0,5	-1,384150
19,483667	0,5	-1,394500
19,492000	0,5	-1,395450
19,500333	0,5	-1,400450
19,508667	0,5	-1,403550
19,517000	0,5	-1,402600
19,525333	0,5	-1,398900
19,533667	0,5	-1,420650
19,542000	0,5	-1,412950
19,550333	0,5	-1,417050
19,558667	0,5	-1,421350
19,567000	0,5	-1,430600
19,575333	0,5	-1,460250
19,583667	0,5	-1,448950
19,592000	0,5	-1,456650
19,600333	0,5	-1,459600
19,608667	0,5	-1,473300
19,617000	0,5	-1,472800
19,625333	0,5	-1,477250
19,633667	0,5	-1,479300
19,642000	0,5	-1,484950
19,650333	0,5	-1,488450
19,658667	0,5	-1,491700
19,667000	0,5	-1,487550
19,675333	0,5	-1,491450
19,683667	0,5	-1,507200
19,692000	0,5	-1,500850
19,700333	0,5	-1,505700
19,708667	0,5	-1,513800
19,717000	0,5	-1,525750
19,725333	0,5	-1,549950
19,733667	0,5	-1,549850
19,742000	0,5	-1,546900
19,750333	0,5	-1,548950
19,758667	0,5	-1,549950
19,767000	0,5	-1,550950
19,775333	0,5	-1,552200
19,783667	0,5	-1,562350
19,792000	0,5	-1,563900
19,800333	0,5	-1,576800
19,808667	0,5	-1,582800
19,817000	0,5	-1,584200
19,825333	0,5	-1,584100
19,833667	0,5	-1,601100
19,842000	0,5	-1,595150
19,850333	0,5	-1,604250
19,858667	0,5	-1,610150
19,867000	0,5	-1,625850
19,875333	0,5	-1,643250
19,883667	0,5	-1,641450
19,892000	0,5	-1,644900
19,900333	0,5	-1,644250
19,908667	0,5	-1,649900
19,917000	0,5	-1,652500
19,925333	0,5	-1,656600
19,933667	0,5	-1,657850
19,942000	0,5	-1,661150
19,950333	0,5	-1,667300
19,958667	0,5	-1,663400
19,967000	0,5	-1,656550
19,975333	0,5	-1,672700
19,983667	0,5	-1,665650
19,992000	0,5	-1,669550
20,000333	0,5	-1,673750
20,008667	0,5	-1,688000
20,017000	0,5	-1,708800
20,025333	0,5	-1,713800
20,033667	0,5	-1,716100
20,042000	0,5	-1,717800
20,050333	0,5	-1,722100
20,058667	0,5	-1,722200
20,067000	0,5	-1,721150
20,075333	0,5	-1,722400
20,083667	0,5	-1,733050
20,092000	0,5	-1,732350
20,100333	0,5	-1,735500
20,108667	0,5	-1,723100
20,117000	0,5	-1,735650
20,125333	0,5	-1,740100
20,133667	0,5	-1,737200
20,142000	0,5	-1,741950
20,150333	0,5	-1,755800
20,158667	0,5	-1,772700
20,167000	0,5	-1,789200
20,175333	0,5	-1,791000
20,183667	0,5	-1,795650
20,192000	0,5	-1,800950
20,200333	0,5	-1,810350
20,208667	0,5	-1,809800
20,217000	0,5	-1,819400
20,225333	0,5	-1,820200
20,233667	0,5	-1,818650
20,242000	0,5	-1,820700
20,250333	0,5	-1,812300
20,258667	0,5	-1,807600
20,267000	0,5	-1,816550
20,275333	0,5	-1,816500
20,283667	0,5	-1,807500
20,292000	0,5	-1,816550
20,300333	0,5	-1,814950
20,308667	0,5	-1,837150
20,317000	0,5	-1,837200
20,325333	0,5	-1,838150
20,333667	0,5	-1,835200
20,342000	0,5	-1,837100
20,350333	0,5	-1,832100
20,358667	0,5	-1,827800
20,367000	0,5	-1,828000
20,375333	0,5	-1,822000
20,383667	0,5	-1,824800
20,392000	0,5	-1,824900
20,400333	0,5	-1,810800
20,408667	0,5	-1,806950
20,417000	0,5	-1,826550
20,425333	0,5	-1,814450
20,433667	0,5	-1,815900
20,442000	0,5	-1,818250
20,450333	0,5	-1,834250
20,458667	0,5	-1,849150
20,467000	0,5	-1,840200
20,475333	0,5	-1,832600
20,483667	0,5	-1,838000
20,492000	0,5	-1,833850
20,500333	0,5	-1,836500
20,508667	0,5	-1,834250
20,517000	0,5	-1,835000
20,525333	0,5	-1,836850
20,533667	0,5	-1,833800
20,542000	0,5	-1,829300
20,550333	0,5	-1,810400
20,558667	0,5	-1,812750
20,567000	0,5	-1,814550
20,575333	0,5	-1,810050
20,583667	0,5	-1,802100
20,592000	0,5	-1,809850
20,600333	0,5	-1,818550
20,608667	0,5	-1,822200
20,617000	0,5	-1,804500
20,625333	0,5	-1,810000
20,633667	0,5	-1,804200
20,642000	0,5	-1,803700
20,650333	0,5	-1,795000
20,658667	0,5	-1,796450
20,667000	0,5	-1,791000
20,675333	0,5	-1,795100
20,683667	0,5	-1,802850
20,692000	0,5	-1,790450
20,700333	0,5	-1,781500
20,708667	0,5	-1,794350
20,717000	0,5	-1,795500
20,725333	0,5	-1,798700
20,733667	0,5	-1,809550
20,742000	0,5	-1,821600
20,750333	0,5	-1,851950
20,758667	0,5	-1,849000
20,767000	0,5	-1,849700
20,775333	0,5	-1,843200
20,783667	0,5	-1,855700
20,792000	0,5	-1,851250
20,800333	0,5	-1,855450
20,808667	0,5	-1,857150
20,817000	0,5	-1,856900
20,825333	0,5	-1,857650
20,833667	0,5	-1,854150
20,842000	0,5	-1,833100
20,850333	0,5	-1,827550
20,858667	0,5	-1,836450
20,867000	0,5	-1,833500
20,875333	0,5	-1,840600
20,883667	0,5	-1,849250
20,892000	0,5	-1,867750
20,900333	0,5	-1,880600
20,908667	0,5	-1,873100
20,917000	0,5	-1,866600
20,925333	0,5	-1,869950
20,933667	0,5	-1,866900
20,942000	0,5	-1,867500
20,950333	0,5	-1,860000
20,958667	0,5	-1,854700
20,967000	0,5	-1,853050
20,975333	0,5	-1,854950
20,983667	0,5	-1,838400
20,992000	0,5	-1,815900
21,000333	0,5	-1,812800
21,008667	0,5	-1,819250
21,017000	0,5	-1,814900
21,025333	0,5	-1,815200
21,033667	0,5	-1,825400
21,042000	0,5	-1,839000
21,050333	0,5	-1,844400
21,058667	0,5	-1,830800
21,067000	0,5	-1,832350
21,075333	0,5	-1,826200
21,083667	0,5	-1,827100
21,092000	0,5	-1,815950
21,100333	0,5	-1,814950
21,108667	0,5	-1,808900
21,117000	0,5	-1,803350
21,125333	0,5	-1,804050
21,133667	0,5	-1,772050
21,142000	0,5	-1,755200
21,150333	0,5	-1,758300
21,158667	0,5	-1,758500
21,167000	0,5	-1,759250
21,175333	0,5	-1,768950
21,183667	0,5	-1,780300
21,192000	0,5	-1,786850
21,200333	0,5	-1,779700
21,208667	0,5	-1,782650
21,217000	0,5	-1,775450
21,225333	0,5	-1,770450
21,233667	0,5	-1,764300
21,242000	0,5	-1,765600
21,250333	0,5	-1,752050
21,258667	0,5	-1,749100
21,267000	0,5	-1,743200
21,275333	0,5	-1,727100
21,283667	0,5	-1,699100
21,292000	0,5	-1,690600
21,300333	0,5	-1,693850
21,308667	0,5	-1,691800
21,317000	0,5	-1,696150
21,325333	0,5	-1,696850
21,333667	0,5	-1,718850
21,342000	0,5	-1,702400
21,350333	0,5	-1,704600
21,358667	0,5	-1,691000
21,367000	0,5	-1,688400
21,375333	0,5	-1,674900
21,383667	0,5	-1,665750
21,392000	0,5	-1,654850
21,400333	0,5	-1,646500
21,408667	0,5	-1,637500
21,417000	0,5	-1,626300
21,425333	0,5	-1,594800
21,433667	0,5	-1,578150
21,442000	0,5	-1,576900
21,450333	0,5	-1,572650
21,458667	0,5	-1,570750
21,467000	0,5	-1,570450
21,475333	0,5	-1,576300
21,483667	0,5	-1,578350
21,492000	0,5	-1,566150
21,500333	0,5	-1,547950
21,508667	0,5	-1,547900
21,517000	0,5	-1,525650
21,525333	0,5	-1,520300
21,533667	0,5	-1,503300
21,542000	0,5	-1,494900
21,550333	0,5	-1,476850
21,558667	0,5	-1,465600
21,567000	0,5	-1,444600
21,575333	0,5	-1,402750
21,583667	0,5	-1,379300
21,592000	0,5	-1,365150
21,600333	0,5	-1,346350
21,608667	0,5	-1,321150
21,617000	0,5	-1,309200
21,625333	0,5	-1,289700
21,633667	0,5	-1,258950
21,642000	0,5	-1,218400
21,650333	0,5	-1,201800
21,658667	0,5	-1,189800
21,667000	0,5	-1,197600
21,675333	0,5	-1,203200
21,683667	0,5	-1,213100
21,692000	0,5	-1,203800
21,700333	0,5	-1,202700
21,708667	0,5	-1,197100
21,717000	0,5	-1,169100
21,725333	0,5	-1,145200
21,733667	0,5	-1,147550
21,742000	0,5	-1,134700
21,750333	0,5	-1,127150
21,758667	0,5	-1,121250
21,767000	0,5	-1,111750
21,775333	0,5	-1,117400
21,783667	0,5	-1,086450
21,792000	0,5	-1,068700
21,800333	0,5	-1,041450
21,808667	0,5	-1,023150
21,817000	0,5	-0,993700
21,825333	0,5	-0,979150
21,833667	0,5	-0,954300
21,842000	0,5	-0,932500
21,850333	0,5	-0,910150
21,858667	0,5	-0,884000
21,867000	0,5	-0,843000
21,875333	0,5	-0,821550
21,883667	0,5	-0,804850
21,892000	0,5	-0,780800
21,900333	0,5	-0,765400
21,908667	0,5	-0,751100
21,917000	0,5	-0,752550
21,925333	0,5	-0,741250
21,933667	0,5	-0,720700
21,942000	0,5	-0,693500
21,950333	0,5	-0,676300
21,958667	0,5	-0,650400
21,967000	0,5	-0,632500
21,975333	0,5	-0,605050
21,983667	0,5	-0,582350
21,992000	0,5	-0,556950
22,000333	0,5	-0,535850
22,008667	0,5	-0,506400
22,017000	0,5	-0,474200
22,025333	0,5	-0,458800
22,033667	0,5	-0,420750
22,042000	0,5	-0,388150
22,050333	0,5	-0,362000
22,058667	0,5	-0,343150
22,067000	0,5	-0,317600
22,075333	0,5	-0,290300
22,083667	0,5	-0,245950
22,092000	0,5	-0,220350
22,100333	0,5	-0,173950
22,108667	0,5	-0,148000
22,117000	0,5	-0,109150
22,125333	0,5	-0,072050
22,133667	0,5	-0,031900
22,142000	0,5	0,009500
22,150333	0,5	0,050900
22,158667	0,5	0,100400
22,167000	0,5	0,133250
22,175333	0,5	0,192100
22,183667	0,5	0,243950
22,192000	0,5	0,292350
22,200333	0,5	0,332800
22,208667	0,5	0,369950
22,217000	0,5	0,415300
22,225333	0,5	0,473600
22,233667	0,5	0,519200
22,242000	0,5	0,570150
22,250333	0,5	0,610750
22,258667	0,5	0,660350
22,267000	0,5	0,701800
22,275333	0,5	0,756750
22,283667	0,5	0,802950
22,292000	0,5	0,857200
22,300333	0,5	0,897600
22,308667	0,5	0,941750
22,317000	0,5	0,993650
22,325333	0,5	1,062650
22,333667	0,5	1,110750
22,342000	0,5	1,152550
22,350333	0,5	1,193400
22,358667	0,5	1,222400
22,367000	0,5	1,286400
22,375333	0,5	1,335050
22,383667	0,5	1,393600
22,392000	0,5	1,436850
22,400333	0,5	1,497950
22,408667	0,5	1,546150
22,417000	0,5	1,607100
22,425333	0,5	1,665450
22,433667	0,5	1,718750
22,442000	0,5	1,778200
22,450333	0,5	1,811700
22,458667	0,5	1,882500
22,467000	0,5	1,961050
22,475333	0,5	2,040150
22,483667	0,5	2,111050
22,492000	0,5	2,164300
22,500333	0,5	2,218600
22,508667	0,5	2,277750
22,517000	0,5	2,348800
22,525333	0,5	2,418550
22,533667	0,5	2,476550
22,542000	0,5	2,544400
22,550333	0,5	2,599650
22,558667	0,5	2,668400
22,567000	0,5	2,725450
22,575333	0,5	2,784450
22,583667	0,5	2,835000
22,592000	0,5	2,852900
22,600333	0,5	2,894400
22,608667	0,5	2,932350
22,617000	0,5	2,999150
22,625333	0,5	3,026150
22,633667	0,5	3,052350
22,642000	0,5	3,058050
22,650333	0,5	3,065500
22,658667	0,5	3,080850
22,667000	0,5	3,096500
22,675333	0,5	3,088400
22,683667	0,5	3,090050
22,692000	0,5	3,081700
22,700333	0,5	3,071800
22,708667	0,5	3,053050
22,717000	0,5	3,033300
22,725333	0,5	2,998050
22,733667	0,5	2,959800
22,742000	0,5	2,863700
22,750333	0,5	2,838850
22,758667	0,5	2,799650
22,767000	0,5	2,760700
22,775333	0,5	2,685950
22,783667	0,5	2,601200
22,792000	0,5	2,493050
22,800333	0,5	2,371650
22,808667	0,5	2,267050
22,817000	0,5	2,140600
22,825333	0,5	2,016250
22,833667	0,5	1,876300
22,842000	0,5	1,748950
22,850333	0,5	1,612150
22,858667	0,5	1,477400
22,867000	0,5	1,336050
22,875333	0,5	1,195200
22,883667	0,5	1,038800
22,892000	0,5	0,843250
22,900333	0,5	0,722300
22,908667	0,5	0,583850
22,917000	0,5	0,417300
22,925333	0,5	0,262200
22,933667	0,5	0,107200
22,942000	0,5	-0,037900
22,950333	0,5	-0,188450
22,958667	0,5	-0,330800
22,967000	0,5	-0,474050
22,975333	0,5	-0,604900
22,983667	0,5	-0,741050
22,992000	0,5	-0,862300
23,000333	0,5	-0,986300
23,008667	0,5	-1,105400
23,017000	0,5	-1,227150
23,025333	0,5	-1,346150
23,033667	0,5	-1,436300
23,042000	0,5	-1,554000
23,050333	0,5	-1,657450
23,058667	0,5	-1,792650
23,067000	0,5	-1,897600
23,075333	0,5	-1,985800
23,083667	0,5	-2,063900
23,092000	0,5	-2,137100
23,100333	0,5	-2,210000
23,108667	0,5	-2,282050
23,117000	0,5	-2,335000
23,125333	0,5	-2,388600
23,133667	0,5	-2,432000
23,142000	0,5	-2,485150
23,150333	0,5	-2,516950
23,158667	0,5	-2,559750
23,167000	0,5	-2,595350
23,175333	0,5	-2,622200
23,183667	0,5	-2,673900
23,192000	0,5	-2,683850
23,200333	0,5	-2,717950
23,208667	0,5	-2,779250
23,217000	0,5	-2,804400
23,225333	0,5	-2,823350
23,233667	0,5	-2,821250
23,242000	0,5	-2,830550
23,250333	0,5	-2,836350
23,258667	0,5	-2,834850
23,267000	0,5	-2,828050
23,275333	0,5	-2,810750
23,283667	0,5	-2,800750
23,292000	0,5	-2,779500
23,300333	0,5	-2,771300
23,308667	0,5	-2,751000
23,317000	0,5	-2,744150
23,325333	0,5	-2,724850
23,333667	0,5	-2,719100
23,342000	0,5	-2,698300
23,350333	0,5	-2,676200
23,358667	0,5	-2,686200
23,367000	0,5	-2,682350
23,375333	0,5	-2,667450
23,383667	0,5	-2,640350
23,392000	0,5	-2,628100
23,400333	0,5	-2,604350
23,408667	0,5	-2,577250
23,417000	0,5	-2,549600
23,425333	0,5	-2,518800
23,433667	0,5	-2,485400
23,442000	0,5	-2,456700
23,450333	0,5	-2,425800
23,458667	0,5	-2,391700
23,467000	0,5	-2,360950
23,475333	0,5	-2,405200
23,483667	0,5	-2,353750
23,492000	0,5	-2,291100
23,500333	0,5	-2,257850
23,508667	0,5	-2,254750
23,517000	0,5	-2,241500
23,525333	0,5	-2,229200
23,533667	0,5	-2,205450
23,542000	0,5	-2,192050
23,550333	0,5	-2,176950
23,558667	0,5	-2,161700
23,567000	0,5	-2,140700
23,575333	0,5	-2,124900
23,583667	0,5	-2,104150
23,592000	0,5	-2,086600
23,600333	0,5	-2,070900
23,608667	0,5	-2,055550
23,617000	0,5	-2,060000
23,625333	0,5	-2,138850
23,633667	0,5	-2,075900
23,642000	0,5	-2,018800
23,650333	0,5	-1,985250
23,658667	0,5	-1,981250
23,667000	0,5	-1,973750
23,675333	0,5	-1,970450
23,683667	0,5	-1,962650
23,692000	0,5	-1,950700
23,700333	0,5	-1,940400
23,708667	0,5	-1,932650
23,717000	0,5	-1,923650
23,725333	0,5	-1,915850
23,733667	0,5	-1,908150
23,742000	0,5	-1,901650
23,750333	0,5	-1,896600
23,758667	0,5	-1,893050
23,767000	0,5	-2,020150
23,775333	0,5	-2,008350
23,783667	0,5	-1,976150
23,792000	0,5	-1,917900
23,800333	0,5	-1,903750
23,808667	0,5	-1,903050
23,817000	0,5	-1,905550
23,825333	0,5	-1,907600
23,833667	0,5	-1,911400
23,842000	0,5	-1,898300
23,850333	0,5	-1,892150
23,858667	0,5	-1,880650
23,867000	0,5	-1,870050
23,875333	0,5	-1,858850
23,883667	0,5	-1,851800
23,892000	0,5	-1,835450
23,900333	0,5	-1,830400
23,908667	0,5	-1,829550
23,917000	0,5	-1,974100
23,925333	0,5	-1,934300
23,933667	0,5	-1,889300
23,942000	0,5	-1,833800
23,950333	0,5	-1,814700
23,958667	0,5	-1,813500
23,967000	0,5	-1,817400
23,975333	0,5	-1,829200
23,983667	0,5	-1,815450
23,992000	0,5	-1,811200
24,000333	0,5	-1,798800
24,008667	0,5	-1,793300
24,017000	0,5	-1,780900
24,025333	0,5	-1,776050
24,033667	0,5	-1,759250
24,042000	0,5	-1,752000
24,050333	0,5	-1,742100
24,058667	0,5	-1,779100
24,067000	0,5	-1,859000
24,075333	0,5	-1,828650
24,083667	0,5	-1,767550
24,092000	0,5	-1,721400
24,100333	0,5	-1,698400
24,108667	0,5	-1,688200
24,117000	0,5	-1,692750
24,125333	0,5	-1,685250
24,133667	0,5	-1,669650
24,142000	0,5	-1,645800
24,150333	0,5	-1,632650
24,158667	0,5	-1,615600
24,167000	0,5	-1,602050
24,175333	0,5	-1,579750
24,183667	0,5	-1,565000
24,192000	0,5	-1,547550
24,200333	0,5	-1,546550
24,208667	0,5	-1,636750
24,217000	0,5	-1,634750
24,225333	0,5	-1,602700
24,233667	0,5	-1,549000
24,242000	0,5	-1,512350
24,250333	0,5	-1,503450
24,258667	0,5	-1,494450
24,267000	0,5	-1,503700
24,275333	0,5	-1,490950
24,283667	0,5	-1,471950
24,292000	0,5	-1,457600
24,300333	0,5	-1,445400
24,308667	0,5	-1,428350
24,317000	0,5	-1,411100
24,325333	0,5	-1,394600
24,333667	0,5	-1,371100
24,342000	0,5	-1,354750
24,350333	0,5	-1,343450
24,358667	0,5	-1,428400
24,367000	0,5	-1,386150
24,375333	0,5	-1,362550
24,383667	0,5	-1,310600
24,392000	0,5	-1,287850
24,400333	0,5	-1,274250
24,408667	0,5	-1,267100
24,417000	0,5	-1,271200
24,425333	0,5	-1,248800
24,433667	0,5	-1,233600
24,442000	0,5	-1,226650
24,450333	0,5	-1,216700
24,458667	0,5	-1,203750
24,467000	0,5	-1,190000
24,475333	0,5	-1,174500
24,483667	0,5	-1,164950
24,492000	0,5	-1,155150
24,500333	0,5	-1,193300
24,508667	0,5	-1,207950
24,517000	0,5	-1,186500
24,525333	0,5	-1,156600
24,533667	0,5	-1,122200
24,542000	0,5	-1,099550
24,550333	0,5	-1,092000
24,558667	0,5	-1,085150
24,567000	0,5	-1,085850
24,575333	0,5	-1,062200
24,583667	0,5	-1,054350
24,592000	0,5	-1,035450
24,600333	0,5	-1,025000
24,608667	0,5	-1,007450
24,617000	0,5	-0,995600
24,625333	0,5	-0,982150
24,633667	0,5	-0,970550
24,642000	0,5	-0,966150
24,650333	0,5	-1,006150
24,658667	0,5	-0,992250
24,667000	0,5	-0,971000
24,675333	0,5	-0,947000
24,683667	0,5	-0,929350
24,692000	0,5	-0,919700
24,700333	0,5	-0,917650
24,708667	0,5	-0,920000
24,717000	0,5	-0,914500
24,725333	0,5	-0,906400
24,733667	0,5	-0,893800
24,742000	0,5	-0,887850
24,750333	0,5	-0,871900
24,758667	0,5	-0,867200
24,767000	0,5	-0,852150
24,775333	0,5	-0,842050
24,783667	0,5	-0,831000
24,792000	0,5	-0,824650
24,800333	0,5	-0,856050
24,808667	0,5	-0,830700
24,817000	0,5	-0,815800
24,825333	0,5	-0,791600
24,833667	0,5	-0,778900
24,842000	0,5	-0,766700
24,850333	0,5	-0,765300
24,858667	0,5	-0,764200
24,867000	0,5	-0,761600
24,875333	0,5	-0,748700
24,883667	0,5	-0,743400
24,892000	0,5	-0,734800
24,900333	0,5	-0,728200
24,908667	0,5	-0,718050
24,917000	0,5	-0,713250
24,925333	0,5	-0,705950
24,933667	0,5	-0,700050
24,942000	0,5	-0,707350
24,950333	0,5	-0,713100
24,958667	0,5	-0,700900
24,967000	0,5	-0,690650
24,975333	0,5	-0,673850
24,983667	0,5	-0,667900
24,992000	0,5	-0,660200
25,000333	0,5	-0,659050
25,008667	0,5	-0,658650
25,017000	0,5	-0,647800
25,025333	0,5	-0,640850
25,033667	0,5	-0,628700
25,042000	0,5	-0,623050
25,050333	0,5	-0,614000
25,058667	0,5	-0,608750
25,067000	0,5	-0,602000
25,075333	0,5	-0,592900
25,083667	0,5	-0,588850
25,092000	0,5	-0,594600
25,100333	0,5	-0,588200
25,108667	0,5	-0,581150
25,117000	0,5	-0,572400
25,125333	0,5	-0,568250
25,133667	0,5	-0,560750
25,142000	0,5	-0,558700
25,150333	0,5	-0,562650
25,158667	0,5	-0,559200
25,167000	0,5	-0,553850
25,175333	0,5	-0,551500
25,183667	0,5	-0,548250
25,192000	0,5	-0,542750
25,200333	0,5	-0,536550
25,208667	0,5	-0,531400
25,217000	0,5	-0,523050
25,225333	0,5	-0,521450
25,233667	0,5	-0,514800
25,242000	0,5	-0,516650
25,250333	0,5	-0,507050
25,258667	0,5	-0,499500
25,267000	0,5	-0,493500
25,275333	0,5	-0,490000
25,283667	0,5	-0,487700
25,292000	0,5	-0,482800
25,300333	0,5	-0,481050
25,308667	0,5	-0,480050
25,317000	0,5	-0,475350
25,325333	0,5	-0,473650
25,333667	0,5	-0,473700
25,342000	0,5	-0,472550
25,350333	0,5	-0,469800
25,358667	0,5	-0,467900
25,367000	0,5	-0,465200
25,375333	0,5	-0,461150
25,383667	0,5	-0,460450
25,392000	0,5	-0,455550
25,400333	0,5	-0,452150
25,408667	0,5	-0,448100
25,417000	0,5	-0,448250
25,425333	0,5	-0,444750
25,433667	0,5	-0,443200
25,442000	0,5	-0,437650
25,450333	0,5	-0,435650
25,458667	0,5	-0,434050
25,467000	0,5	-0,430500
25,475333	0,5	-0,426850
25,483667	0,5	-0,424850
25,492000	0,5	-0,421100
25,500333	0,5	-0,418550
25,508667	0,5	-0,417500
25,517000	0,5	-0,412650
25,525333	0,5	-0,411300
25,533667	0,5	-0,403700
25,542000	0,5	-0,401750
25,550333	0,5	-0,401100
25,558667	0,5	-0,402550
25,567000	0,5	-0,405250
25,575333	0,5	-0,402950
25,583667	0,5	-0,402600
25,592000	0,5	-0,401350
25,600333	0,5	-0,398600
25,608667	0,5	-0,396850
25,617000	0,5	-0,395850
25,625333	0,5	-0,395850
25,633667	0,5	-0,390000
25,642000	0,5	-0,389950
25,650333	0,5	-0,387550
25,658667	0,5	-0,383700
25,667000	0,5	-0,381050
25,675333	0,5	-0,376700
25,683667	0,5	-0,365350
25,692000	0,5	-0,365750
25,700333	0,5	-0,362350
25,708667	0,5	-0,371150
25,717000	0,5	-0,369500
25,725333	0,5	-0,367550
25,733667	0,5	-0,364750
25,742000	0,5	-0,357400
25,750333	0,5	-0,359400
25,758667	0,5	-0,358250
25,767000	0,5	-0,361450
25,775333	0,5	-0,358950
25,783667	0,5	-0,358000
25,792000	0,5	-0,358800
25,800333	0,5	-0,358750
25,808667	0,5	-0,354750
25,817000	0,5	-0,352750
25,825333	0,5	-0,350950
25,833667	0,5	-0,341000
25,842000	0,5	-0,341850
25,850333	0,5	-0,338750
25,858667	0,5	-0,346500
25,867000	0,5	-0,341650
25,875333	0,5	-0,340850
25,883667	0,5	-0,334850
25,892000	0,5	-0,327600
25,900333	0,5	-0,325400
25,908667	0,5	-0,329350
25,917000	0,5	-0,323500
25,925333	0,5	-0,323700
25,933667	0,5	-0,324500
25,942000	0,5	-0,323700
25,950333	0,5	-0,320000
25,958667	0,5	-0,321300
25,967000	0,5	-0,317300
25,975333	0,5	-0,310950
25,983667	0,5	-0,308550
25,992000	0,5	-0,307700
26,000333	0,5	-0,309550
