File Path	chrom://chromeleon01/ikbm_chromeleon/2022/ICS-5000/ED1/Esteban/20220612_Cell_7_4_eg.seq/171.smp/ED_1.channel/ED_1.chm
Channel	ED_1

Injection Information:
Data Vault	ikbm_chromeleon
Injection	CelS2_00h-EGS_NA
Injection Number	134
Position	BE1
Comment	
Processing Method	Stop sequence after Cell Death
Instrument Method	ICS5000_PA200_FullNative_Ox_26min_ED1
Type	Unknown
Status	Finished
Injection Date	15.06.2022
Injection Time	07:32:02
Injection Volume (µl)	5,0
Dilution Factor	1,0000
Weight	1,0000

Chromatogram Data Information:
Time Min. (min)	0,000333
Time Max. (min)	26,000333
Data Points	3121
Detector	EDet1
Generating Data System	Chromeleon 7.2.9.11323
Exporting Data System	Chromeleon 7.2.9.0
Operator	Instrument Controller
Signal Quantity	
Signal Unit	nC
Signal Min.	-2,566000
Signal Max.	51,857951
Channel	ED_1
Driver Name	DC-5000
Channel Type	Evaluation
Min. Step (s)	0,5
Max. Step (s)	0,5
Average Step (s)	0,5

Signal Parameter Information:
Signal Info	

Chromatogram Data:
Time (min)	Step (s)	Value (nC)
0,000333	n.a.	-0,019800
0,008667	0,5	-0,045450
0,017000	0,5	-0,043200
0,025333	0,5	-0,031950
0,033667	0,5	-0,016950
0,042000	0,5	0,026700
0,050333	0,5	0,016750
0,058667	0,5	0,026900
0,067000	0,5	0,015000
0,075333	0,5	0,026250
0,083667	0,5	0,014750
0,092000	0,5	0,028400
0,100333	0,5	0,015100
0,108667	0,5	0,011700
0,117000	0,5	0,008750
0,125333	0,5	0,010250
0,133667	0,5	-0,005000
0,142000	0,5	0,004200
0,150333	0,5	0,026800
0,158667	0,5	-0,008650
0,167000	0,5	-0,015000
0,175333	0,5	-0,007050
0,183667	0,5	0,006650
0,192000	0,5	0,032150
0,200333	0,5	0,025100
0,208667	0,5	0,015050
0,217000	0,5	0,018450
0,225333	0,5	0,008250
0,233667	0,5	0,013350
0,242000	0,5	0,004100
0,250333	0,5	0,006050
0,258667	0,5	-0,005400
0,267000	0,5	0,000550
0,275333	0,5	0,004400
0,283667	0,5	-0,003700
0,292000	0,5	0,019000
0,300333	0,5	0,038250
0,308667	0,5	0,002450
0,317000	0,5	-0,018700
0,325333	0,5	-0,023300
0,333667	0,5	-0,011100
0,342000	0,5	0,007500
0,350333	0,5	-0,012700
0,358667	0,5	-0,013050
0,367000	0,5	-0,009700
0,375333	0,5	-0,004900
0,383667	0,5	-0,007850
0,392000	0,5	-0,009050
0,400333	0,5	-0,018650
0,408667	0,5	-0,014400
0,417000	0,5	-0,020800
0,425333	0,5	-0,015200
0,433667	0,5	-0,033950
0,442000	0,5	0,001350
0,450333	0,5	-0,028600
0,458667	0,5	-0,036200
0,467000	0,5	-0,039950
0,475333	0,5	-0,022000
0,483667	0,5	0,002250
0,492000	0,5	0,009700
0,500333	0,5	-0,000400
0,508667	0,5	-0,001800
0,517000	0,5	-0,005300
0,525333	0,5	-0,004700
0,533667	0,5	-0,005650
0,542000	0,5	-0,017700
0,550333	0,5	-0,015450
0,558667	0,5	-0,020850
0,567000	0,5	-0,010100
0,575333	0,5	-0,022900
0,583667	0,5	-0,018000
0,592000	0,5	-0,004300
0,600333	0,5	-0,026750
0,608667	0,5	-0,029150
0,617000	0,5	-0,015000
0,625333	0,5	0,003050
0,633667	0,5	0,034150
0,642000	0,5	0,034000
0,650333	0,5	0,037600
0,658667	0,5	0,019700
0,667000	0,5	0,028950
0,675333	0,5	0,022700
0,683667	0,5	0,027150
0,692000	0,5	0,020000
0,700333	0,5	0,017350
0,708667	0,5	0,025050
0,717000	0,5	0,017800
0,725333	0,5	0,020150
0,733667	0,5	0,034800
0,742000	0,5	0,038050
0,750333	0,5	0,017700
0,758667	0,5	0,021600
0,767000	0,5	0,025750
0,775333	0,5	0,060200
0,783667	0,5	0,075200
0,792000	0,5	0,082500
0,800333	0,5	0,070200
0,808667	0,5	0,082250
0,817000	0,5	0,075750
0,825333	0,5	0,085500
0,833667	0,5	0,076050
0,842000	0,5	0,076300
0,850333	0,5	0,069750
0,858667	0,5	0,080700
0,867000	0,5	0,086700
0,875333	0,5	0,082600
0,883667	0,5	0,110500
0,892000	0,5	0,097200
0,900333	0,5	0,081700
0,908667	0,5	0,084900
0,917000	0,5	0,094350
0,925333	0,5	0,121350
0,933667	0,5	0,140050
0,942000	0,5	0,126900
0,950333	0,5	0,140250
0,958667	0,5	0,131800
0,967000	0,5	0,139000
0,975333	0,5	0,131200
0,983667	0,5	0,139050
0,992000	0,5	0,131950
1,000333	0,5	0,136800
1,008667	0,5	0,142250
1,017000	0,5	0,132500
1,025333	0,5	0,124300
1,033667	0,5	0,164750
1,042000	0,5	0,133450
1,050333	0,5	0,133900
1,058667	0,5	0,140150
1,067000	0,5	0,156600
1,075333	0,5	0,191500
1,083667	0,5	0,172800
1,092000	0,5	0,177400
1,100333	0,5	0,174600
1,108667	0,5	0,185150
1,117000	0,5	0,176550
1,125333	0,5	0,186300
1,133667	0,5	0,181100
1,142000	0,5	0,183850
1,150333	0,5	0,182100
1,158667	0,5	0,187850
1,167000	0,5	0,168400
1,175333	0,5	0,179850
1,183667	0,5	0,199850
1,192000	0,5	0,179750
1,200333	0,5	0,176450
1,208667	0,5	0,182000
1,217000	0,5	0,194850
1,225333	0,5	0,230850
1,233667	0,5	0,217200
1,242000	0,5	0,222900
1,250333	0,5	0,223550
1,258667	0,5	0,225250
1,267000	0,5	0,222150
1,275333	0,5	0,217700
1,283667	0,5	0,216750
1,292000	0,5	0,214100
1,300333	0,5	0,224700
1,308667	0,5	0,219800
1,317000	0,5	0,218650
1,325333	0,5	0,223550
1,333667	0,5	0,239000
1,342000	0,5	0,214600
1,350333	0,5	0,215650
1,358667	0,5	0,221650
1,367000	0,5	0,248200
1,375333	0,5	0,263700
1,383667	0,5	0,256450
1,392000	0,5	0,249500
1,400333	0,5	0,256800
1,408667	0,5	0,250050
1,417000	0,5	0,260450
1,425333	0,5	0,257050
1,433667	0,5	0,255650
1,442000	0,5	0,253550
1,450333	0,5	0,253300
1,458667	0,5	0,251100
1,467000	0,5	0,238750
1,475333	0,5	0,261650
1,483667	0,5	0,255600
1,492000	0,5	0,243050
1,500333	0,5	0,245750
1,508667	0,5	0,262200
1,517000	0,5	0,279250
1,525333	0,5	0,302850
1,533667	0,5	0,291700
1,542000	0,5	0,300500
1,550333	0,5	0,291850
1,558667	0,5	0,278300
1,567000	0,5	0,161800
1,575333	0,5	-0,166200
1,583667	0,5	-0,685650
1,592000	0,5	-0,819600
1,600333	0,5	0,440400
1,608667	0,5	4,712400
1,617000	0,5	14,441550
1,625333	0,5	29,823400
1,633667	0,5	44,922951
1,642000	0,5	51,857951
1,650333	0,5	48,477351
1,658667	0,5	39,272701
1,667000	0,5	29,556300
1,675333	0,5	21,846550
1,683667	0,5	16,454700
1,692000	0,5	12,825850
1,700333	0,5	10,423850
1,708667	0,5	8,761100
1,717000	0,5	7,603550
1,725333	0,5	6,759700
1,733667	0,5	6,162600
1,742000	0,5	5,731850
1,750333	0,5	5,406300
1,758667	0,5	5,130300
1,767000	0,5	4,909900
1,775333	0,5	4,678750
1,783667	0,5	4,442050
1,792000	0,5	4,246450
1,800333	0,5	4,097000
1,808667	0,5	3,996850
1,817000	0,5	3,914400
1,825333	0,5	3,829700
1,833667	0,5	3,740400
1,842000	0,5	3,665850
1,850333	0,5	3,571350
1,858667	0,5	3,487350
1,867000	0,5	3,372500
1,875333	0,5	3,275250
1,883667	0,5	3,173500
1,892000	0,5	3,099150
1,900333	0,5	3,014400
1,908667	0,5	2,947250
1,917000	0,5	2,923550
1,925333	0,5	2,880450
1,933667	0,5	2,831250
1,942000	0,5	2,790550
1,950333	0,5	2,743500
1,958667	0,5	2,731000
1,967000	0,5	2,702300
1,975333	0,5	2,682400
1,983667	0,5	2,685350
1,992000	0,5	2,697700
2,000333	0,5	2,707800
2,008667	0,5	2,717250
2,017000	0,5	2,726600
2,025333	0,5	2,728700
2,033667	0,5	2,739900
2,042000	0,5	2,747400
2,050333	0,5	2,781750
2,058667	0,5	2,802250
2,067000	0,5	2,896750
2,075333	0,5	2,959800
2,083667	0,5	3,104000
2,092000	0,5	3,363200
2,100333	0,5	3,887750
2,108667	0,5	4,808400
2,117000	0,5	5,926000
2,125333	0,5	6,745900
2,133667	0,5	6,869900
2,142000	0,5	6,454300
2,150333	0,5	5,937050
2,158667	0,5	5,488300
2,167000	0,5	5,046350
2,175333	0,5	4,595550
2,183667	0,5	4,221050
2,192000	0,5	3,998250
2,200333	0,5	3,891550
2,208667	0,5	3,876550
2,217000	0,5	3,941650
2,225333	0,5	3,986250
2,233667	0,5	4,065300
2,242000	0,5	4,154150
2,250333	0,5	4,246650
2,258667	0,5	4,366250
2,267000	0,5	4,442500
2,275333	0,5	4,549400
2,283667	0,5	4,640150
2,292000	0,5	4,750550
2,300333	0,5	4,841250
2,308667	0,5	4,935700
2,317000	0,5	5,014300
2,325333	0,5	5,103100
2,333667	0,5	5,200850
2,342000	0,5	5,305300
2,350333	0,5	5,409150
2,358667	0,5	5,533300
2,367000	0,5	5,663550
2,375333	0,5	5,767500
2,383667	0,5	5,892600
2,392000	0,5	6,007300
2,400333	0,5	6,123050
2,408667	0,5	6,217200
2,417000	0,5	6,273800
2,425333	0,5	6,301350
2,433667	0,5	6,334700
2,442000	0,5	6,350250
2,450333	0,5	6,370950
2,458667	0,5	6,380000
2,467000	0,5	6,406600
2,475333	0,5	6,422450
2,483667	0,5	6,447250
2,492000	0,5	6,462600
2,500333	0,5	6,483600
2,508667	0,5	6,519400
2,517000	0,5	6,532800
2,525333	0,5	6,534150
2,533667	0,5	6,560950
2,542000	0,5	6,604800
2,550333	0,5	6,687000
2,558667	0,5	6,807750
2,567000	0,5	6,930150
2,575333	0,5	7,049950
2,583667	0,5	7,106750
2,592000	0,5	7,065300
2,600333	0,5	6,935900
2,608667	0,5	6,776600
2,617000	0,5	6,607750
2,625333	0,5	6,484500
2,633667	0,5	6,391000
2,642000	0,5	6,322500
2,650333	0,5	6,273950
2,658667	0,5	6,246400
2,667000	0,5	6,180900
2,675333	0,5	6,128100
2,683667	0,5	6,078700
2,692000	0,5	6,045950
2,700333	0,5	6,009800
2,708667	0,5	5,960750
2,717000	0,5	5,899400
2,725333	0,5	5,834800
2,733667	0,5	5,770450
2,742000	0,5	5,698600
2,750333	0,5	5,631050
2,758667	0,5	5,553500
2,767000	0,5	5,485900
2,775333	0,5	5,411150
2,783667	0,5	5,339550
2,792000	0,5	5,256750
2,800333	0,5	5,202000
2,808667	0,5	5,126500
2,817000	0,5	5,045500
2,825333	0,5	4,969100
2,833667	0,5	4,911700
2,842000	0,5	4,862800
2,850333	0,5	4,825000
2,858667	0,5	4,762700
2,867000	0,5	4,729000
2,875333	0,5	4,702800
2,883667	0,5	4,716500
2,892000	0,5	4,788950
2,900333	0,5	4,950300
2,908667	0,5	5,229800
2,917000	0,5	5,589150
2,925333	0,5	5,940850
2,933667	0,5	6,135850
2,942000	0,5	6,095400
2,950333	0,5	5,847000
2,958667	0,5	5,414750
2,967000	0,5	4,940750
2,975333	0,5	4,530600
2,983667	0,5	4,209750
2,992000	0,5	3,997750
3,000333	0,5	3,811500
3,008667	0,5	3,666450
3,017000	0,5	3,543200
3,025333	0,5	3,450500
3,033667	0,5	3,357400
3,042000	0,5	3,282600
3,050333	0,5	3,212750
3,058667	0,5	3,147600
3,067000	0,5	3,085650
3,075333	0,5	3,025450
3,083667	0,5	2,979350
3,092000	0,5	2,899050
3,100333	0,5	2,857000
3,108667	0,5	2,769650
3,117000	0,5	2,702300
3,125333	0,5	2,640500
3,133667	0,5	2,591900
3,142000	0,5	2,559000
3,150333	0,5	2,508500
3,158667	0,5	2,445450
3,167000	0,5	2,407150
3,175333	0,5	2,361800
3,183667	0,5	2,328950
3,192000	0,5	2,285000
3,200333	0,5	2,250600
3,208667	0,5	2,211400
3,217000	0,5	2,174650
3,225333	0,5	2,144000
3,233667	0,5	2,122100
3,242000	0,5	2,085150
3,250333	0,5	2,103450
3,258667	0,5	2,082750
3,267000	0,5	2,114800
3,275333	0,5	2,168500
3,283667	0,5	2,236050
3,292000	0,5	2,320550
3,300333	0,5	2,337200
3,308667	0,5	2,330450
3,317000	0,5	2,262750
3,325333	0,5	2,173100
3,333667	0,5	2,054150
3,342000	0,5	1,946800
3,350333	0,5	1,845200
3,358667	0,5	1,768700
3,367000	0,5	1,703750
3,375333	0,5	1,659200
3,383667	0,5	1,613650
3,392000	0,5	1,596950
3,400333	0,5	1,571700
3,408667	0,5	1,533600
3,417000	0,5	1,518550
3,425333	0,5	1,506850
3,433667	0,5	1,508200
3,442000	0,5	1,516000
3,450333	0,5	1,494000
3,458667	0,5	1,467850
3,467000	0,5	1,438100
3,475333	0,5	1,412900
3,483667	0,5	1,387950
3,492000	0,5	1,359650
3,500333	0,5	1,337750
3,508667	0,5	1,309250
3,517000	0,5	1,297250
3,525333	0,5	1,276300
3,533667	0,5	1,264650
3,542000	0,5	1,254150
3,550333	0,5	1,233250
3,558667	0,5	1,198600
3,567000	0,5	1,190400
3,575333	0,5	1,176550
3,583667	0,5	1,185250
3,592000	0,5	1,181750
3,600333	0,5	1,161450
3,608667	0,5	1,139200
3,617000	0,5	1,122500
3,625333	0,5	1,100350
3,633667	0,5	1,094250
3,642000	0,5	1,082600
3,650333	0,5	1,072700
3,658667	0,5	1,069500
3,667000	0,5	1,064700
3,675333	0,5	1,077400
3,683667	0,5	1,069500
3,692000	0,5	1,085650
3,700333	0,5	1,060600
3,708667	0,5	1,045300
3,717000	0,5	1,043450
3,725333	0,5	1,054900
3,733667	0,5	1,066100
3,742000	0,5	1,068650
3,750333	0,5	1,053450
3,758667	0,5	1,051400
3,767000	0,5	1,039450
3,775333	0,5	1,036200
3,783667	0,5	1,023800
3,792000	0,5	1,022250
3,800333	0,5	1,012700
3,808667	0,5	1,010250
3,817000	0,5	1,015600
3,825333	0,5	1,005700
3,833667	0,5	1,017100
3,842000	0,5	1,022650
3,850333	0,5	1,005700
3,858667	0,5	0,994950
3,867000	0,5	0,993600
3,875333	0,5	0,998100
3,883667	0,5	1,004900
3,892000	0,5	0,981950
3,900333	0,5	0,975400
3,908667	0,5	0,957250
3,917000	0,5	0,957450
3,925333	0,5	0,945750
3,933667	0,5	0,939850
3,942000	0,5	0,923500
3,950333	0,5	0,915250
3,958667	0,5	0,909600
3,967000	0,5	0,905500
3,975333	0,5	0,888450
3,983667	0,5	0,908950
3,992000	0,5	0,893100
4,000333	0,5	0,879550
4,008667	0,5	0,870600
4,017000	0,5	0,879450
4,025333	0,5	0,897050
4,033667	0,5	0,897950
4,042000	0,5	0,892500
4,050333	0,5	0,884950
4,058667	0,5	0,889050
4,067000	0,5	0,877400
4,075333	0,5	0,881300
4,083667	0,5	0,869250
4,092000	0,5	0,869100
4,100333	0,5	0,865700
4,108667	0,5	0,869000
4,117000	0,5	0,879000
4,125333	0,5	0,871900
4,133667	0,5	0,886000
4,142000	0,5	0,866050
4,150333	0,5	0,854750
4,158667	0,5	0,853900
4,167000	0,5	0,860050
4,175333	0,5	0,881250
4,183667	0,5	0,875250
4,192000	0,5	0,856700
4,200333	0,5	0,853350
4,208667	0,5	0,851450
4,217000	0,5	0,847000
4,225333	0,5	0,841650
4,233667	0,5	0,839950
4,242000	0,5	0,830250
4,250333	0,5	0,831250
4,258667	0,5	0,829350
4,267000	0,5	0,825700
4,275333	0,5	0,814800
4,283667	0,5	0,834450
4,292000	0,5	0,805200
4,300333	0,5	0,808200
4,308667	0,5	0,801800
4,317000	0,5	0,815100
4,325333	0,5	0,834300
4,333667	0,5	0,829350
4,342000	0,5	0,825600
4,350333	0,5	0,825450
4,358667	0,5	0,823250
4,367000	0,5	0,816050
4,375333	0,5	0,813350
4,383667	0,5	0,807400
4,392000	0,5	0,806800
4,400333	0,5	0,809200
4,408667	0,5	0,808300
4,417000	0,5	0,796850
4,425333	0,5	0,801450
4,433667	0,5	0,798700
4,442000	0,5	0,786850
4,450333	0,5	0,787850
4,458667	0,5	0,794250
4,467000	0,5	0,806450
4,475333	0,5	0,826650
4,483667	0,5	0,823300
4,492000	0,5	0,824950
4,500333	0,5	0,816100
4,508667	0,5	0,821450
4,517000	0,5	0,814150
4,525333	0,5	0,817250
4,533667	0,5	0,815950
4,542000	0,5	0,818050
4,550333	0,5	0,823300
4,558667	0,5	0,809750
4,567000	0,5	0,809200
4,575333	0,5	0,829300
4,583667	0,5	0,826200
4,592000	0,5	0,813400
4,600333	0,5	0,820750
4,608667	0,5	0,823350
4,617000	0,5	0,849100
4,625333	0,5	0,850100
4,633667	0,5	0,859550
4,642000	0,5	0,857850
4,650333	0,5	0,872350
4,658667	0,5	0,875700
4,667000	0,5	0,895000
4,675333	0,5	0,904250
4,683667	0,5	0,923800
4,692000	0,5	0,941300
4,700333	0,5	0,956000
4,708667	0,5	0,957150
4,717000	0,5	0,963500
4,725333	0,5	0,985700
4,733667	0,5	0,973350
4,742000	0,5	0,954200
4,750333	0,5	0,945350
4,758667	0,5	0,940000
4,767000	0,5	0,943050
4,775333	0,5	0,934850
4,783667	0,5	0,912900
4,792000	0,5	0,901600
4,800333	0,5	0,885450
4,808667	0,5	0,879700
4,817000	0,5	0,865900
4,825333	0,5	0,863700
4,833667	0,5	0,853900
4,842000	0,5	0,853650
4,850333	0,5	0,850900
4,858667	0,5	0,845850
4,867000	0,5	0,842400
4,875333	0,5	0,855000
4,883667	0,5	0,837850
4,892000	0,5	0,835300
4,900333	0,5	0,839450
4,908667	0,5	0,850500
4,917000	0,5	0,865750
4,925333	0,5	0,856150
4,933667	0,5	0,858150
4,942000	0,5	0,857100
4,950333	0,5	0,863200
4,958667	0,5	0,858500
4,967000	0,5	0,866300
4,975333	0,5	0,860400
4,983667	0,5	0,861350
4,992000	0,5	0,856750
5,000333	0,5	0,861150
5,008667	0,5	0,850050
5,017000	0,5	0,866800
5,025333	0,5	0,868250
5,033667	0,5	0,861300
5,042000	0,5	0,853250
5,050333	0,5	0,867100
5,058667	0,5	0,884800
5,067000	0,5	0,898800
5,075333	0,5	0,895800
5,083667	0,5	0,899900
5,092000	0,5	0,900950
5,100333	0,5	0,899400
5,108667	0,5	0,900400
5,117000	0,5	0,897050
5,125333	0,5	0,903450
5,133667	0,5	0,900350
5,142000	0,5	0,911000
5,150333	0,5	0,901900
5,158667	0,5	0,893700
5,167000	0,5	0,918550
5,175333	0,5	0,918700
5,183667	0,5	0,914300
5,192000	0,5	0,919900
5,200333	0,5	0,929200
5,208667	0,5	0,956250
5,217000	0,5	0,959600
5,225333	0,5	0,958850
5,233667	0,5	0,949350
5,242000	0,5	0,956000
5,250333	0,5	0,955350
5,258667	0,5	0,959850
5,267000	0,5	0,952750
5,275333	0,5	0,953450
5,283667	0,5	0,955650
5,292000	0,5	0,952350
5,300333	0,5	0,949550
5,308667	0,5	0,942950
5,317000	0,5	0,961500
5,325333	0,5	0,944650
5,333667	0,5	0,948200
5,342000	0,5	0,952450
5,350333	0,5	0,967600
5,358667	0,5	0,984800
5,367000	0,5	0,999200
5,375333	0,5	0,993250
5,383667	0,5	1,000500
5,392000	0,5	0,994850
5,400333	0,5	0,998850
5,408667	0,5	0,997800
5,417000	0,5	1,000700
5,425333	0,5	0,999000
5,433667	0,5	1,000800
5,442000	0,5	1,004100
5,450333	0,5	1,004300
5,458667	0,5	1,014200
5,467000	0,5	1,020400
5,475333	0,5	1,009550
5,483667	0,5	1,013350
5,492000	0,5	1,019000
5,500333	0,5	1,041900
5,508667	0,5	1,065050
5,517000	0,5	1,063550
5,525333	0,5	1,073350
5,533667	0,5	1,077750
5,542000	0,5	1,093200
5,550333	0,5	1,098050
5,558667	0,5	1,112200
5,567000	0,5	1,116150
5,575333	0,5	1,136200
5,583667	0,5	1,151650
5,592000	0,5	1,160700
5,600333	0,5	1,170350
5,608667	0,5	1,210200
5,617000	0,5	1,222750
5,625333	0,5	1,238600
5,633667	0,5	1,268950
5,642000	0,5	1,310450
5,650333	0,5	1,369000
5,658667	0,5	1,430850
5,667000	0,5	1,501800
5,675333	0,5	1,588950
5,683667	0,5	1,709150
5,692000	0,5	1,862000
5,700333	0,5	2,059000
5,708667	0,5	2,286000
5,717000	0,5	2,564500
5,725333	0,5	2,862000
5,733667	0,5	3,183150
5,742000	0,5	3,484100
5,750333	0,5	3,756350
5,758667	0,5	3,984000
5,767000	0,5	4,098450
5,775333	0,5	4,127000
5,783667	0,5	4,075250
5,792000	0,5	3,941400
5,800333	0,5	3,754950
5,808667	0,5	3,498800
5,817000	0,5	3,222900
5,825333	0,5	2,941050
5,833667	0,5	2,676150
5,842000	0,5	2,428400
5,850333	0,5	2,211350
5,858667	0,5	2,030550
5,867000	0,5	1,876100
5,875333	0,5	1,758050
5,883667	0,5	1,661800
5,892000	0,5	1,586400
5,900333	0,5	1,523350
5,908667	0,5	1,487000
5,917000	0,5	1,432750
5,925333	0,5	1,397400
5,933667	0,5	1,378350
5,942000	0,5	1,372700
5,950333	0,5	1,371850
5,958667	0,5	1,357850
5,967000	0,5	1,342900
5,975333	0,5	1,344600
5,983667	0,5	1,342100
5,992000	0,5	1,345100
6,000333	0,5	1,348000
6,008667	0,5	1,348900
6,017000	0,5	1,354800
6,025333	0,5	1,360600
6,033667	0,5	1,363950
6,042000	0,5	1,355350
6,050333	0,5	1,361200
6,058667	0,5	1,360500
6,067000	0,5	1,344600
6,075333	0,5	1,331150
6,083667	0,5	1,329800
6,092000	0,5	1,325600
6,100333	0,5	1,336500
6,108667	0,5	1,316400
6,117000	0,5	1,318050
6,125333	0,5	1,307350
6,133667	0,5	1,305150
6,142000	0,5	1,293350
6,150333	0,5	1,292850
6,158667	0,5	1,283900
6,167000	0,5	1,285750
6,175333	0,5	1,287850
6,183667	0,5	1,283350
6,192000	0,5	1,280200
6,200333	0,5	1,294650
6,208667	0,5	1,284250
6,217000	0,5	1,278100
6,225333	0,5	1,282700
6,233667	0,5	1,289000
6,242000	0,5	1,308500
6,250333	0,5	1,312750
6,258667	0,5	1,314100
6,267000	0,5	1,309500
6,275333	0,5	1,315650
6,283667	0,5	1,307800
6,292000	0,5	1,314050
6,300333	0,5	1,310800
6,308667	0,5	1,315300
6,317000	0,5	1,314750
6,325333	0,5	1,318500
6,333667	0,5	1,315550
6,342000	0,5	1,320300
6,350333	0,5	1,324300
6,358667	0,5	1,316200
6,367000	0,5	1,312600
6,375333	0,5	1,314300
6,383667	0,5	1,324200
6,392000	0,5	1,338100
6,400333	0,5	1,349800
6,408667	0,5	1,346700
6,417000	0,5	1,350800
6,425333	0,5	1,351400
6,433667	0,5	1,355250
6,442000	0,5	1,351450
6,450333	0,5	1,352200
6,458667	0,5	1,350600
6,467000	0,5	1,356750
6,475333	0,5	1,355100
6,483667	0,5	1,359300
6,492000	0,5	1,363900
6,500333	0,5	1,374450
6,508667	0,5	1,362600
6,517000	0,5	1,361850
6,525333	0,5	1,365300
6,533667	0,5	1,380850
6,542000	0,5	1,392350
6,550333	0,5	1,394450
6,558667	0,5	1,396600
6,567000	0,5	1,394600
6,575333	0,5	1,396650
6,583667	0,5	1,400450
6,592000	0,5	1,404750
6,600333	0,5	1,409650
6,608667	0,5	1,413850
6,617000	0,5	1,421550
6,625333	0,5	1,430950
6,633667	0,5	1,428050
6,642000	0,5	1,453400
6,650333	0,5	1,451000
6,658667	0,5	1,445500
6,667000	0,5	1,439500
6,675333	0,5	1,441050
6,683667	0,5	1,452300
6,692000	0,5	1,450250
6,700333	0,5	1,440500
6,708667	0,5	1,438400
6,717000	0,5	1,435850
6,725333	0,5	1,433700
6,733667	0,5	1,428250
6,742000	0,5	1,427350
6,750333	0,5	1,423550
6,758667	0,5	1,421050
6,767000	0,5	1,419500
6,775333	0,5	1,411050
6,783667	0,5	1,406600
6,792000	0,5	1,421250
6,800333	0,5	1,410250
6,808667	0,5	1,404650
6,817000	0,5	1,402800
6,825333	0,5	1,405050
6,833667	0,5	1,421050
6,842000	0,5	1,413450
6,850333	0,5	1,415550
6,858667	0,5	1,409250
6,867000	0,5	1,410650
6,875333	0,5	1,403400
6,883667	0,5	1,403900
6,892000	0,5	1,396300
6,900333	0,5	1,395600
6,908667	0,5	1,393550
6,917000	0,5	1,394200
6,925333	0,5	1,387600
6,933667	0,5	1,379600
6,942000	0,5	1,386550
6,950333	0,5	1,372850
6,958667	0,5	1,367000
6,967000	0,5	1,362500
6,975333	0,5	1,364850
6,983667	0,5	1,377550
6,992000	0,5	1,372300
7,000333	0,5	1,364400
7,008667	0,5	1,363000
7,017000	0,5	1,357100
7,025333	0,5	1,361250
7,033667	0,5	1,354450
7,042000	0,5	1,351050
7,050333	0,5	1,342950
7,058667	0,5	1,341900
7,067000	0,5	1,340350
7,075333	0,5	1,340150
7,083667	0,5	1,336650
7,092000	0,5	1,338550
7,100333	0,5	1,325000
7,108667	0,5	1,320850
7,117000	0,5	1,317600
7,125333	0,5	1,324100
7,133667	0,5	1,333750
7,142000	0,5	1,323700
7,150333	0,5	1,324650
7,158667	0,5	1,322800
7,167000	0,5	1,323850
7,175333	0,5	1,318100
7,183667	0,5	1,316350
7,192000	0,5	1,310550
7,200333	0,5	1,309250
7,208667	0,5	1,309550
7,217000	0,5	1,309450
7,225333	0,5	1,315250
7,233667	0,5	1,332200
7,242000	0,5	1,340550
7,250333	0,5	1,352250
7,258667	0,5	1,372700
7,267000	0,5	1,401000
7,275333	0,5	1,433850
7,283667	0,5	1,458650
7,292000	0,5	1,467900
7,300333	0,5	1,475150
7,308667	0,5	1,469150
7,317000	0,5	1,453100
7,325333	0,5	1,428950
7,333667	0,5	1,399850
7,342000	0,5	1,369600
7,350333	0,5	1,334950
7,358667	0,5	1,309350
7,367000	0,5	1,278800
7,375333	0,5	1,256900
7,383667	0,5	1,249400
7,392000	0,5	1,233350
7,400333	0,5	1,221750
7,408667	0,5	1,223550
7,417000	0,5	1,224350
7,425333	0,5	1,233000
7,433667	0,5	1,227400
7,442000	0,5	1,218300
7,450333	0,5	1,205350
7,458667	0,5	1,195850
7,467000	0,5	1,186700
7,475333	0,5	1,177850
7,483667	0,5	1,169800
7,492000	0,5	1,161050
7,500333	0,5	1,156800
7,508667	0,5	1,150550
7,517000	0,5	1,144000
7,525333	0,5	1,142950
7,533667	0,5	1,142450
7,542000	0,5	1,135300
7,550333	0,5	1,130450
7,558667	0,5	1,130800
7,567000	0,5	1,134650
7,575333	0,5	1,139650
7,583667	0,5	1,136550
7,592000	0,5	1,128750
7,600333	0,5	1,127350
7,608667	0,5	1,119400
7,617000	0,5	1,115300
7,625333	0,5	1,108100
7,633667	0,5	1,100050
7,642000	0,5	1,093700
7,650333	0,5	1,086550
7,658667	0,5	1,082750
7,667000	0,5	1,074650
7,675333	0,5	1,078700
7,683667	0,5	1,070750
7,692000	0,5	1,066450
7,700333	0,5	1,066300
7,708667	0,5	1,069800
7,717000	0,5	1,074900
7,725333	0,5	1,074600
7,733667	0,5	1,064550
7,742000	0,5	1,058650
7,750333	0,5	1,051750
7,758667	0,5	1,046900
7,767000	0,5	1,041600
7,775333	0,5	1,038200
7,783667	0,5	1,034600
7,792000	0,5	1,035950
7,800333	0,5	1,043100
7,808667	0,5	1,046850
7,817000	0,5	1,048800
7,825333	0,5	1,055800
7,833667	0,5	1,046550
7,842000	0,5	1,038700
7,850333	0,5	1,035950
7,858667	0,5	1,038650
7,867000	0,5	1,047400
7,875333	0,5	1,048700
7,883667	0,5	1,054450
7,892000	0,5	1,067600
7,900333	0,5	1,088200
7,908667	0,5	1,116850
7,917000	0,5	1,152400
7,925333	0,5	1,173700
7,933667	0,5	1,179350
7,942000	0,5	1,160800
7,950333	0,5	1,127600
7,958667	0,5	1,082450
7,967000	0,5	1,043250
7,975333	0,5	1,016400
7,983667	0,5	0,993350
7,992000	0,5	0,979050
8,000333	0,5	0,974900
8,008667	0,5	0,978200
8,017000	0,5	0,988550
8,025333	0,5	0,986750
8,033667	0,5	0,984550
8,042000	0,5	0,977350
8,050333	0,5	0,970150
8,058667	0,5	0,961950
8,067000	0,5	0,955350
8,075333	0,5	0,953550
8,083667	0,5	0,949200
8,092000	0,5	0,956950
8,100333	0,5	0,963050
8,108667	0,5	0,968400
8,117000	0,5	0,971700
8,125333	0,5	0,973800
8,133667	0,5	0,962050
8,142000	0,5	0,953450
8,150333	0,5	0,946400
8,158667	0,5	0,947950
8,167000	0,5	0,952950
8,175333	0,5	0,953150
8,183667	0,5	0,953850
8,192000	0,5	0,951250
8,200333	0,5	0,950450
8,208667	0,5	0,946400
8,217000	0,5	0,941750
8,225333	0,5	0,940850
8,233667	0,5	0,946900
8,242000	0,5	0,952700
8,250333	0,5	0,963100
8,258667	0,5	0,974100
8,267000	0,5	0,986400
8,275333	0,5	0,984850
8,283667	0,5	0,977700
8,292000	0,5	0,964250
8,300333	0,5	0,954550
8,308667	0,5	0,943350
8,317000	0,5	0,941250
8,325333	0,5	0,931900
8,333667	0,5	0,925250
8,342000	0,5	0,923650
8,350333	0,5	0,928400
8,358667	0,5	0,926850
8,367000	0,5	0,930900
8,375333	0,5	0,925850
8,383667	0,5	0,918550
8,392000	0,5	0,913550
8,400333	0,5	0,905150
8,408667	0,5	0,896800
8,417000	0,5	0,898700
8,425333	0,5	0,892600
8,433667	0,5	0,887700
8,442000	0,5	0,883300
8,450333	0,5	0,881050
8,458667	0,5	0,885500
8,467000	0,5	0,885500
8,475333	0,5	0,885750
8,483667	0,5	0,884700
8,492000	0,5	0,884650
8,500333	0,5	0,885750
8,508667	0,5	0,890450
8,517000	0,5	0,887650
8,525333	0,5	0,889600
8,533667	0,5	0,888250
8,542000	0,5	0,885450
8,550333	0,5	0,885250
8,558667	0,5	0,886600
8,567000	0,5	0,898900
8,575333	0,5	0,906000
8,583667	0,5	0,907350
8,592000	0,5	0,908200
8,600333	0,5	0,905450
8,608667	0,5	0,908350
8,617000	0,5	0,910350
8,625333	0,5	0,909900
8,633667	0,5	0,910600
8,642000	0,5	0,908450
8,650333	0,5	0,907000
8,658667	0,5	0,905900
8,667000	0,5	0,903100
8,675333	0,5	0,899550
8,683667	0,5	0,902000
8,692000	0,5	0,910050
8,700333	0,5	0,921000
8,708667	0,5	0,945900
8,717000	0,5	0,976450
8,725333	0,5	1,014850
8,733667	0,5	1,045550
8,742000	0,5	1,062700
8,750333	0,5	1,059850
8,758667	0,5	1,040350
8,767000	0,5	1,012700
8,775333	0,5	0,986200
8,783667	0,5	0,963400
8,792000	0,5	0,950000
8,800333	0,5	0,938250
8,808667	0,5	0,931000
8,817000	0,5	0,926450
8,825333	0,5	0,927500
8,833667	0,5	0,923800
8,842000	0,5	0,926750
8,850333	0,5	0,928550
8,858667	0,5	0,934050
8,867000	0,5	0,935800
8,875333	0,5	0,936450
8,883667	0,5	0,940200
8,892000	0,5	0,944500
8,900333	0,5	0,955850
8,908667	0,5	0,965200
8,917000	0,5	0,976750
8,925333	0,5	0,990150
8,933667	0,5	1,006700
8,942000	0,5	1,019150
8,950333	0,5	1,025750
8,958667	0,5	1,031150
8,967000	0,5	1,031450
8,975333	0,5	1,034350
8,983667	0,5	1,038100
8,992000	0,5	1,048100
9,000333	0,5	1,058550
9,008667	0,5	1,072850
9,017000	0,5	1,091300
9,025333	0,5	1,101350
9,033667	0,5	1,098150
9,042000	0,5	1,083750
9,050333	0,5	1,063600
9,058667	0,5	1,049450
9,067000	0,5	1,036050
9,075333	0,5	1,031500
9,083667	0,5	1,029050
9,092000	0,5	1,028150
9,100333	0,5	1,030350
9,108667	0,5	1,034900
9,117000	0,5	1,039550
9,125333	0,5	1,047400
9,133667	0,5	1,053900
9,142000	0,5	1,056050
9,150333	0,5	1,057750
9,158667	0,5	1,061950
9,167000	0,5	1,067700
9,175333	0,5	1,065300
9,183667	0,5	1,070100
9,192000	0,5	1,073300
9,200333	0,5	1,083350
9,208667	0,5	1,092450
9,217000	0,5	1,098800
9,225333	0,5	1,104950
9,233667	0,5	1,111050
9,242000	0,5	1,121250
9,250333	0,5	1,130300
9,258667	0,5	1,139950
9,267000	0,5	1,148150
9,275333	0,5	1,156350
9,283667	0,5	1,165200
9,292000	0,5	1,171850
9,300333	0,5	1,179450
9,308667	0,5	1,188300
9,317000	0,5	1,195750
9,325333	0,5	1,201350
9,333667	0,5	1,211000
9,342000	0,5	1,221750
9,350333	0,5	1,234650
9,358667	0,5	1,247750
9,367000	0,5	1,259550
9,375333	0,5	1,268150
9,383667	0,5	1,278750
9,392000	0,5	1,289300
9,400333	0,5	1,299650
9,408667	0,5	1,311950
9,417000	0,5	1,324650
9,425333	0,5	1,337750
9,433667	0,5	1,352250
9,442000	0,5	1,361450
9,450333	0,5	1,372500
9,458667	0,5	1,386800
9,467000	0,5	1,396100
9,475333	0,5	1,403850
9,483667	0,5	1,411650
9,492000	0,5	1,418400
9,500333	0,5	1,427900
9,508667	0,5	1,436950
9,517000	0,5	1,445100
9,525333	0,5	1,452500
9,533667	0,5	1,460650
9,542000	0,5	1,468000
9,550333	0,5	1,476000
9,558667	0,5	1,483900
9,567000	0,5	1,491400
9,575333	0,5	1,500500
9,583667	0,5	1,510250
9,592000	0,5	1,512250
9,600333	0,5	1,521200
9,608667	0,5	1,531700
9,617000	0,5	1,533450
9,625333	0,5	1,538550
9,633667	0,5	1,544650
9,642000	0,5	1,551000
9,650333	0,5	1,559400
9,658667	0,5	1,568950
9,667000	0,5	1,574700
9,675333	0,5	1,580150
9,683667	0,5	1,588200
9,692000	0,5	1,592850
9,700333	0,5	1,597500
9,708667	0,5	1,602550
9,717000	0,5	1,605250
9,725333	0,5	1,613700
9,733667	0,5	1,618900
9,742000	0,5	1,621350
9,750333	0,5	1,634800
9,758667	0,5	1,639450
9,767000	0,5	1,648250
9,775333	0,5	1,652300
9,783667	0,5	1,661950
9,792000	0,5	1,671400
9,800333	0,5	1,677900
9,808667	0,5	1,682200
9,817000	0,5	1,683800
9,825333	0,5	1,687500
9,833667	0,5	1,686900
9,842000	0,5	1,689900
9,850333	0,5	1,691950
9,858667	0,5	1,693950
9,867000	0,5	1,697500
9,875333	0,5	1,702500
9,883667	0,5	1,705050
9,892000	0,5	1,705650
9,900333	0,5	1,714300
9,908667	0,5	1,714800
9,917000	0,5	1,719100
9,925333	0,5	1,722750
9,933667	0,5	1,729250
9,942000	0,5	1,733250
9,950333	0,5	1,740300
9,958667	0,5	1,743350
9,967000	0,5	1,748150
9,975333	0,5	1,752900
9,983667	0,5	1,757000
9,992000	0,5	1,756750
10,000333	0,5	1,761600
10,008667	0,5	1,767050
10,017000	0,5	1,770150
10,025333	0,5	1,775200
10,033667	0,5	1,777850
10,042000	0,5	1,779050
10,050333	0,5	1,778400
10,058667	0,5	1,781050
10,067000	0,5	1,780600
10,075333	0,5	1,782350
10,083667	0,5	1,784150
10,092000	0,5	1,794000
10,100333	0,5	1,804750
10,108667	0,5	1,812300
10,117000	0,5	1,814700
10,125333	0,5	1,819050
10,133667	0,5	1,817400
10,142000	0,5	1,816800
10,150333	0,5	1,816650
10,158667	0,5	1,814400
10,167000	0,5	1,811900
10,175333	0,5	1,806500
10,183667	0,5	1,806350
10,192000	0,5	1,803350
10,200333	0,5	1,804100
10,208667	0,5	1,800750
10,217000	0,5	1,800250
10,225333	0,5	1,794350
10,233667	0,5	1,798150
10,242000	0,5	1,801500
10,250333	0,5	1,802100
10,258667	0,5	1,805850
10,267000	0,5	1,808050
10,275333	0,5	1,809500
10,283667	0,5	1,811000
10,292000	0,5	1,808000
10,300333	0,5	1,809500
10,308667	0,5	1,807050
10,317000	0,5	1,812800
10,325333	0,5	1,811000
10,333667	0,5	1,814700
10,342000	0,5	1,818050
10,350333	0,5	1,820500
10,358667	0,5	1,819650
10,367000	0,5	1,817000
10,375333	0,5	1,817500
10,383667	0,5	1,820300
10,392000	0,5	1,823200
10,400333	0,5	1,820500
10,408667	0,5	1,817300
10,417000	0,5	1,812300
10,425333	0,5	1,801100
10,433667	0,5	1,789400
10,442000	0,5	1,783200
10,450333	0,5	1,771600
10,458667	0,5	1,761900
10,467000	0,5	1,752650
10,475333	0,5	1,745700
10,483667	0,5	1,735000
10,492000	0,5	1,734700
10,500333	0,5	1,725200
10,508667	0,5	1,718800
10,517000	0,5	1,711100
10,525333	0,5	1,707400
10,533667	0,5	1,703550
10,542000	0,5	1,701600
10,550333	0,5	1,697050
10,558667	0,5	1,692400
10,567000	0,5	1,688000
10,575333	0,5	1,684100
10,583667	0,5	1,686150
10,592000	0,5	1,687500
10,600333	0,5	1,690950
10,608667	0,5	1,691300
10,617000	0,5	1,696200
10,625333	0,5	1,691000
10,633667	0,5	1,685800
10,642000	0,5	1,681200
10,650333	0,5	1,681000
10,658667	0,5	1,654200
10,667000	0,5	1,640650
10,675333	0,5	1,626400
10,683667	0,5	1,618000
10,692000	0,5	1,606150
10,700333	0,5	1,596450
10,708667	0,5	1,585700
10,717000	0,5	1,576300
10,725333	0,5	1,572300
10,733667	0,5	1,565550
10,742000	0,5	1,558550
10,750333	0,5	1,553800
10,758667	0,5	1,554500
10,767000	0,5	1,547050
10,775333	0,5	1,542550
10,783667	0,5	1,539650
10,792000	0,5	1,539550
10,800333	0,5	1,540600
10,808667	0,5	1,543700
10,817000	0,5	1,544550
10,825333	0,5	1,554600
10,833667	0,5	1,556850
10,842000	0,5	1,558550
10,850333	0,5	1,545500
10,858667	0,5	1,535050
10,867000	0,5	1,519000
10,875333	0,5	1,508050
10,883667	0,5	1,494300
10,892000	0,5	1,483100
10,900333	0,5	1,476300
10,908667	0,5	1,468850
10,917000	0,5	1,459850
10,925333	0,5	1,453800
10,933667	0,5	1,455100
10,942000	0,5	1,453400
10,950333	0,5	1,451150
10,958667	0,5	1,445500
10,967000	0,5	1,446600
10,975333	0,5	1,449850
10,983667	0,5	1,458400
10,992000	0,5	1,466850
11,000333	0,5	1,476650
11,008667	0,5	1,486050
11,017000	0,5	1,497000
11,025333	0,5	1,498800
11,033667	0,5	1,493900
11,042000	0,5	1,481000
11,050333	0,5	1,467600
11,058667	0,5	1,450150
11,067000	0,5	1,439350
11,075333	0,5	1,425550
11,083667	0,5	1,423450
11,092000	0,5	1,410850
11,100333	0,5	1,402900
11,108667	0,5	1,396550
11,117000	0,5	1,390500
11,125333	0,5	1,392150
11,133667	0,5	1,394500
11,142000	0,5	1,395000
11,150333	0,5	1,401050
11,158667	0,5	1,408050
11,167000	0,5	1,414550
11,175333	0,5	1,425300
11,183667	0,5	1,422600
11,192000	0,5	1,420750
11,200333	0,5	1,410450
11,208667	0,5	1,391850
11,217000	0,5	1,358400
11,225333	0,5	1,332700
11,233667	0,5	1,315850
11,242000	0,5	1,296450
11,250333	0,5	1,287900
11,258667	0,5	1,278400
11,267000	0,5	1,280200
11,275333	0,5	1,286250
11,283667	0,5	1,297700
11,292000	0,5	1,311300
11,300333	0,5	1,324750
11,308667	0,5	1,338200
11,317000	0,5	1,354300
11,325333	0,5	1,368150
11,333667	0,5	1,384850
11,342000	0,5	1,388000
11,350333	0,5	1,397500
11,358667	0,5	1,392000
11,367000	0,5	1,383950
11,375333	0,5	1,378950
11,383667	0,5	1,370750
11,392000	0,5	1,360800
11,400333	0,5	1,350200
11,408667	0,5	1,334450
11,417000	0,5	1,331900
11,425333	0,5	1,326050
11,433667	0,5	1,325650
11,442000	0,5	1,320700
11,450333	0,5	1,323700
11,458667	0,5	1,324250
11,467000	0,5	1,328300
11,475333	0,5	1,328350
11,483667	0,5	1,327600
11,492000	0,5	1,326400
11,500333	0,5	1,324900
11,508667	0,5	1,321350
11,517000	0,5	1,308400
11,525333	0,5	1,306600
11,533667	0,5	1,301400
11,542000	0,5	1,290850
11,550333	0,5	1,281050
11,558667	0,5	1,278500
11,567000	0,5	1,276450
11,575333	0,5	1,277000
11,583667	0,5	1,275550
11,592000	0,5	1,279250
11,600333	0,5	1,283150
11,608667	0,5	1,283850
11,617000	0,5	1,291750
11,625333	0,5	1,289600
11,633667	0,5	1,293600
11,642000	0,5	1,292400
11,650333	0,5	1,300000
11,658667	0,5	1,297050
11,667000	0,5	1,295650
11,675333	0,5	1,303650
11,683667	0,5	1,306050
11,692000	0,5	1,304600
11,700333	0,5	1,304250
11,708667	0,5	1,305650
11,717000	0,5	1,312950
11,725333	0,5	1,318300
11,733667	0,5	1,326800
11,742000	0,5	1,329950
11,750333	0,5	1,336900
11,758667	0,5	1,339500
11,767000	0,5	1,349100
11,775333	0,5	1,352200
11,783667	0,5	1,353500
11,792000	0,5	1,356150
11,800333	0,5	1,363700
11,808667	0,5	1,359650
11,817000	0,5	1,369550
11,825333	0,5	1,372000
11,833667	0,5	1,375300
11,842000	0,5	1,377400
11,850333	0,5	1,373100
11,858667	0,5	1,380450
11,867000	0,5	1,387250
11,875333	0,5	1,393500
11,883667	0,5	1,395050
11,892000	0,5	1,402800
11,900333	0,5	1,401400
11,908667	0,5	1,406450
11,917000	0,5	1,405950
11,925333	0,5	1,407300
11,933667	0,5	1,408250
11,942000	0,5	1,409050
11,950333	0,5	1,408450
11,958667	0,5	1,403450
11,967000	0,5	1,412500
11,975333	0,5	1,413500
11,983667	0,5	1,411900
11,992000	0,5	1,411250
12,000333	0,5	1,405600
12,008667	0,5	1,408450
12,017000	0,5	1,412750
12,025333	0,5	1,413050
12,033667	0,5	1,414450
12,042000	0,5	1,417300
12,050333	0,5	1,418350
12,058667	0,5	1,418700
12,067000	0,5	1,420200
12,075333	0,5	1,418650
12,083667	0,5	1,416900
12,092000	0,5	1,415200
12,100333	0,5	1,415300
12,108667	0,5	1,409350
12,117000	0,5	1,415900
12,125333	0,5	1,410800
12,133667	0,5	1,411400
12,142000	0,5	1,405200
12,150333	0,5	1,400700
12,158667	0,5	1,403450
12,167000	0,5	1,410500
12,175333	0,5	1,409300
12,183667	0,5	1,411650
12,192000	0,5	1,411750
12,200333	0,5	1,412700
12,208667	0,5	1,418600
12,217000	0,5	1,414050
12,225333	0,5	1,413950
12,233667	0,5	1,412550
12,242000	0,5	1,414500
12,250333	0,5	1,404750
12,258667	0,5	1,409200
12,267000	0,5	1,414500
12,275333	0,5	1,408900
12,283667	0,5	1,404650
12,292000	0,5	1,398300
12,300333	0,5	1,399000
12,308667	0,5	1,402800
12,317000	0,5	1,401700
12,325333	0,5	1,404950
12,333667	0,5	1,398500
12,342000	0,5	1,406050
12,350333	0,5	1,405450
12,358667	0,5	1,403750
12,367000	0,5	1,406200
12,375333	0,5	1,406650
12,383667	0,5	1,409650
12,392000	0,5	1,408850
12,400333	0,5	1,405150
12,408667	0,5	1,409550
12,417000	0,5	1,414550
12,425333	0,5	1,407450
12,433667	0,5	1,406150
12,442000	0,5	1,397200
12,450333	0,5	1,404950
12,458667	0,5	1,404450
12,467000	0,5	1,403500
12,475333	0,5	1,404150
12,483667	0,5	1,410600
12,492000	0,5	1,408300
12,500333	0,5	1,410600
12,508667	0,5	1,412850
12,517000	0,5	1,412450
12,525333	0,5	1,411500
12,533667	0,5	1,415800
12,542000	0,5	1,413350
12,550333	0,5	1,417050
12,558667	0,5	1,423500
12,567000	0,5	1,424150
12,575333	0,5	1,424250
12,583667	0,5	1,420250
12,592000	0,5	1,421300
12,600333	0,5	1,425250
12,608667	0,5	1,428350
12,617000	0,5	1,425800
12,625333	0,5	1,425150
12,633667	0,5	1,420700
12,642000	0,5	1,415900
12,650333	0,5	1,410950
12,658667	0,5	1,407500
12,667000	0,5	1,398100
12,675333	0,5	1,391700
12,683667	0,5	1,389050
12,692000	0,5	1,375100
12,700333	0,5	1,370250
12,708667	0,5	1,366550
12,717000	0,5	1,359700
12,725333	0,5	1,351050
12,733667	0,5	1,337850
12,742000	0,5	1,330150
12,750333	0,5	1,332700
12,758667	0,5	1,327150
12,767000	0,5	1,321850
12,775333	0,5	1,318000
12,783667	0,5	1,320500
12,792000	0,5	1,315450
12,800333	0,5	1,313550
12,808667	0,5	1,308250
12,817000	0,5	1,307100
12,825333	0,5	1,305750
12,833667	0,5	1,307400
12,842000	0,5	1,296600
12,850333	0,5	1,305250
12,858667	0,5	1,302700
12,867000	0,5	1,299600
12,875333	0,5	1,295200
12,883667	0,5	1,286850
12,892000	0,5	1,290600
12,900333	0,5	1,295550
12,908667	0,5	1,300850
12,917000	0,5	1,304750
12,925333	0,5	1,308600
12,933667	0,5	1,311750
12,942000	0,5	1,313700
12,950333	0,5	1,309350
12,958667	0,5	1,311100
12,967000	0,5	1,307550
12,975333	0,5	1,317450
12,983667	0,5	1,318850
12,992000	0,5	1,315150
13,000333	0,5	1,326000
13,008667	0,5	1,327200
13,017000	0,5	1,326750
13,025333	0,5	1,321650
13,033667	0,5	1,319200
13,042000	0,5	1,318950
13,050333	0,5	1,329650
13,058667	0,5	1,340100
13,067000	0,5	1,345400
13,075333	0,5	1,346200
13,083667	0,5	1,344150
13,092000	0,5	1,341500
13,100333	0,5	1,338650
13,108667	0,5	1,337900
13,117000	0,5	1,351100
13,125333	0,5	1,356100
13,133667	0,5	1,356350
13,142000	0,5	1,348800
13,150333	0,5	1,347850
13,158667	0,5	1,336200
13,167000	0,5	1,332050
13,175333	0,5	1,322800
13,183667	0,5	1,331150
13,192000	0,5	1,335400
13,200333	0,5	1,338450
13,208667	0,5	1,327500
13,217000	0,5	1,323750
13,225333	0,5	1,315000
13,233667	0,5	1,315900
13,242000	0,5	1,319000
13,250333	0,5	1,317350
13,258667	0,5	1,317100
13,267000	0,5	1,312950
13,275333	0,5	1,306850
13,283667	0,5	1,299300
13,292000	0,5	1,306600
13,300333	0,5	1,314900
13,308667	0,5	1,318400
13,317000	0,5	1,308850
13,325333	0,5	1,300000
13,333667	0,5	1,297950
13,342000	0,5	1,301000
13,350333	0,5	1,292650
13,358667	0,5	1,287350
13,367000	0,5	1,273800
13,375333	0,5	1,268350
13,383667	0,5	1,254050
13,392000	0,5	1,244150
13,400333	0,5	1,235000
13,408667	0,5	1,227400
13,417000	0,5	1,226450
13,425333	0,5	1,215900
13,433667	0,5	1,197300
13,442000	0,5	1,201750
13,450333	0,5	1,200200
13,458667	0,5	1,191650
13,467000	0,5	1,182850
13,475333	0,5	1,166350
13,483667	0,5	1,168200
13,492000	0,5	1,161700
13,500333	0,5	1,161950
13,508667	0,5	1,159850
13,517000	0,5	1,157500
13,525333	0,5	1,154600
13,533667	0,5	1,155500
13,542000	0,5	1,155700
13,550333	0,5	1,151500
13,558667	0,5	1,150850
13,567000	0,5	1,157550
13,575333	0,5	1,149050
13,583667	0,5	1,152350
13,592000	0,5	1,160400
13,600333	0,5	1,158550
13,608667	0,5	1,156350
13,617000	0,5	1,143100
13,625333	0,5	1,142000
13,633667	0,5	1,143050
13,642000	0,5	1,143400
13,650333	0,5	1,137700
13,658667	0,5	1,135100
13,667000	0,5	1,128300
13,675333	0,5	1,128250
13,683667	0,5	1,122050
13,692000	0,5	1,118100
13,700333	0,5	1,116500
13,708667	0,5	1,112600
13,717000	0,5	1,113000
13,725333	0,5	1,105450
13,733667	0,5	1,105200
13,742000	0,5	1,110800
13,750333	0,5	1,108200
13,758667	0,5	1,102550
13,767000	0,5	1,089700
13,775333	0,5	1,088150
13,783667	0,5	1,094200
13,792000	0,5	1,091400
13,800333	0,5	1,083950
13,808667	0,5	1,062350
13,817000	0,5	1,040100
13,825333	0,5	1,017750
13,833667	0,5	0,994050
13,842000	0,5	0,961850
13,850333	0,5	0,935850
13,858667	0,5	0,902600
13,867000	0,5	0,868550
13,875333	0,5	0,802600
13,883667	0,5	0,723650
13,892000	0,5	0,557100
13,900333	0,5	0,310300
13,908667	0,5	0,055600
13,917000	0,5	-0,136600
13,925333	0,5	-0,254650
13,933667	0,5	-0,321250
13,942000	0,5	-0,361500
13,950333	0,5	-0,385900
13,958667	0,5	-0,408250
13,967000	0,5	-0,421950
13,975333	0,5	-0,433100
13,983667	0,5	-0,441400
13,992000	0,5	-0,443850
14,000333	0,5	-0,441800
14,008667	0,5	-0,429800
14,017000	0,5	-0,431350
14,025333	0,5	-0,425950
14,033667	0,5	-0,409650
14,042000	0,5	-0,409150
14,050333	0,5	-0,415850
14,058667	0,5	-0,425750
14,067000	0,5	-0,437400
14,075333	0,5	-0,443350
14,083667	0,5	-0,450300
14,092000	0,5	-0,451400
14,100333	0,5	-0,464300
14,108667	0,5	-0,459000
14,117000	0,5	-0,461850
14,125333	0,5	-0,456150
14,133667	0,5	-0,451900
14,142000	0,5	-0,447350
14,150333	0,5	-0,431950
14,158667	0,5	-0,426350
14,167000	0,5	-0,431200
14,175333	0,5	-0,421650
14,183667	0,5	-0,412550
14,192000	0,5	-0,413850
14,200333	0,5	-0,417450
14,208667	0,5	-0,431350
14,217000	0,5	-0,427350
14,225333	0,5	-0,427700
14,233667	0,5	-0,417750
14,242000	0,5	-0,417550
14,250333	0,5	-0,408350
14,258667	0,5	-0,407950
14,267000	0,5	-0,398500
14,275333	0,5	-0,393700
14,283667	0,5	-0,388150
14,292000	0,5	-0,383000
14,300333	0,5	-0,371600
14,308667	0,5	-0,364900
14,317000	0,5	-0,366250
14,325333	0,5	-0,349600
14,333667	0,5	-0,337950
14,342000	0,5	-0,334500
14,350333	0,5	-0,327000
14,358667	0,5	-0,321000
14,367000	0,5	-0,308900
14,375333	0,5	-0,295450
14,383667	0,5	-0,283500
14,392000	0,5	-0,266950
14,400333	0,5	-0,256850
14,408667	0,5	-0,239900
14,417000	0,5	-0,227800
14,425333	0,5	-0,209200
14,433667	0,5	-0,196200
14,442000	0,5	-0,178100
14,450333	0,5	-0,152300
14,458667	0,5	-0,137400
14,467000	0,5	-0,129850
14,475333	0,5	-0,096600
14,483667	0,5	-0,073450
14,492000	0,5	-0,056250
14,500333	0,5	-0,035000
14,508667	0,5	-0,021600
14,517000	0,5	0,012500
14,525333	0,5	0,028500
14,533667	0,5	0,052700
14,542000	0,5	0,064450
14,550333	0,5	0,087000
14,558667	0,5	0,102450
14,567000	0,5	0,124700
14,575333	0,5	0,137850
14,583667	0,5	0,160650
14,592000	0,5	0,186950
14,600333	0,5	0,221800
14,608667	0,5	0,233950
14,617000	0,5	0,265250
14,625333	0,5	0,296550
14,633667	0,5	0,328250
14,642000	0,5	0,355150
14,650333	0,5	0,379800
14,658667	0,5	0,404400
14,667000	0,5	0,438600
14,675333	0,5	0,467050
14,683667	0,5	0,486100
14,692000	0,5	0,508350
14,700333	0,5	0,519500
14,708667	0,5	0,537400
14,717000	0,5	0,554350
14,725333	0,5	0,573650
14,733667	0,5	0,595950
14,742000	0,5	0,622800
14,750333	0,5	0,636600
14,758667	0,5	0,636550
14,767000	0,5	0,642500
14,775333	0,5	0,634850
14,783667	0,5	0,616800
14,792000	0,5	0,594100
14,800333	0,5	0,567200
14,808667	0,5	0,545650
14,817000	0,5	0,539250
14,825333	0,5	0,534000
14,833667	0,5	0,528200
14,842000	0,5	0,531450
14,850333	0,5	0,531300
14,858667	0,5	0,532650
14,867000	0,5	0,535000
14,875333	0,5	0,524200
14,883667	0,5	0,520350
14,892000	0,5	0,506500
14,900333	0,5	0,497050
14,908667	0,5	0,480100
14,917000	0,5	0,483700
14,925333	0,5	0,479550
14,933667	0,5	0,473050
14,942000	0,5	0,458150
14,950333	0,5	0,450750
14,958667	0,5	0,448450
14,967000	0,5	0,449250
14,975333	0,5	0,445550
14,983667	0,5	0,446550
14,992000	0,5	0,440750
15,000333	0,5	0,439100
15,008667	0,5	0,435800
15,017000	0,5	0,436100
15,025333	0,5	0,432000
15,033667	0,5	0,433550
15,042000	0,5	0,437100
15,050333	0,5	0,423650
15,058667	0,5	0,420250
15,067000	0,5	0,422450
15,075333	0,5	0,417700
15,083667	0,5	0,409550
15,092000	0,5	0,392600
15,100333	0,5	0,382950
15,108667	0,5	0,383400
15,117000	0,5	0,377700
15,125333	0,5	0,383450
15,133667	0,5	0,376900
15,142000	0,5	0,376450
15,150333	0,5	0,373450
15,158667	0,5	0,375000
15,167000	0,5	0,367750
15,175333	0,5	0,362600
15,183667	0,5	0,367650
15,192000	0,5	0,365250
15,200333	0,5	0,346700
15,208667	0,5	0,352850
15,217000	0,5	0,352600
15,225333	0,5	0,346300
15,233667	0,5	0,340750
15,242000	0,5	0,322900
15,250333	0,5	0,320000
15,258667	0,5	0,316250
15,267000	0,5	0,318450
15,275333	0,5	0,311950
15,283667	0,5	0,313200
15,292000	0,5	0,306300
15,300333	0,5	0,307450
15,308667	0,5	0,302450
15,317000	0,5	0,303650
15,325333	0,5	0,302350
15,333667	0,5	0,306000
15,342000	0,5	0,298250
15,350333	0,5	0,286850
15,358667	0,5	0,295650
15,367000	0,5	0,294000
15,375333	0,5	0,286700
15,383667	0,5	0,272450
15,392000	0,5	0,259450
15,400333	0,5	0,260050
15,408667	0,5	0,264150
15,417000	0,5	0,260000
15,425333	0,5	0,257650
15,433667	0,5	0,249950
15,442000	0,5	0,251350
15,450333	0,5	0,244400
15,458667	0,5	0,242500
15,467000	0,5	0,233800
15,475333	0,5	0,229150
15,483667	0,5	0,227100
15,492000	0,5	0,216550
15,500333	0,5	0,210500
15,508667	0,5	0,218650
15,517000	0,5	0,218650
15,525333	0,5	0,212300
15,533667	0,5	0,199600
15,542000	0,5	0,193600
15,550333	0,5	0,200100
15,558667	0,5	0,196450
15,567000	0,5	0,192800
15,575333	0,5	0,185450
15,583667	0,5	0,182350
15,592000	0,5	0,174450
15,600333	0,5	0,177050
15,608667	0,5	0,170550
15,617000	0,5	0,169300
15,625333	0,5	0,163300
15,633667	0,5	0,170200
15,642000	0,5	0,150900
15,650333	0,5	0,160400
15,658667	0,5	0,156900
15,667000	0,5	0,156400
15,675333	0,5	0,140550
15,683667	0,5	0,129650
15,692000	0,5	0,127450
15,700333	0,5	0,130650
15,708667	0,5	0,129000
15,717000	0,5	0,128000
15,725333	0,5	0,125850
15,733667	0,5	0,117850
15,742000	0,5	0,119400
15,750333	0,5	0,116800
15,758667	0,5	0,117650
15,767000	0,5	0,110600
15,775333	0,5	0,114900
15,783667	0,5	0,109250
15,792000	0,5	0,094850
15,800333	0,5	0,101950
15,808667	0,5	0,095200
15,817000	0,5	0,089550
15,825333	0,5	0,076700
15,833667	0,5	0,062000
15,842000	0,5	0,062900
15,850333	0,5	0,063900
15,858667	0,5	0,063700
15,867000	0,5	0,057100
15,875333	0,5	0,055300
15,883667	0,5	0,050800
15,892000	0,5	0,045900
15,900333	0,5	0,041350
15,908667	0,5	0,035850
15,917000	0,5	0,039700
15,925333	0,5	0,036550
15,933667	0,5	0,027100
15,942000	0,5	0,022500
15,950333	0,5	0,033400
15,958667	0,5	0,025950
15,967000	0,5	0,021950
15,975333	0,5	0,001400
15,983667	0,5	-0,004150
15,992000	0,5	-0,008700
16,000333	0,5	-0,004400
16,008667	0,5	-0,008550
16,017000	0,5	-0,007900
16,025333	0,5	-0,013850
16,033667	0,5	-0,013600
16,042000	0,5	-0,015450
16,050333	0,5	-0,017350
16,058667	0,5	-0,022400
16,067000	0,5	-0,020350
16,075333	0,5	-0,019750
16,083667	0,5	-0,035950
16,092000	0,5	-0,027750
16,100333	0,5	-0,025700
16,108667	0,5	-0,034200
16,117000	0,5	-0,042300
16,125333	0,5	-0,056150
16,133667	0,5	-0,060850
16,142000	0,5	-0,057600
16,150333	0,5	-0,069150
16,158667	0,5	-0,069050
16,167000	0,5	-0,070500
16,175333	0,5	-0,071500
16,183667	0,5	-0,075850
16,192000	0,5	-0,075150
16,200333	0,5	-0,081200
16,208667	0,5	-0,084150
16,217000	0,5	-0,079550
16,225333	0,5	-0,082400
16,233667	0,5	-0,103200
16,242000	0,5	-0,092450
16,250333	0,5	-0,096200
16,258667	0,5	-0,106450
16,267000	0,5	-0,113850
16,275333	0,5	-0,132800
16,283667	0,5	-0,124650
16,292000	0,5	-0,134350
16,300333	0,5	-0,133300
16,308667	0,5	-0,142050
16,317000	0,5	-0,138950
16,325333	0,5	-0,146950
16,333667	0,5	-0,143950
16,342000	0,5	-0,154100
16,350333	0,5	-0,154500
16,358667	0,5	-0,159750
16,367000	0,5	-0,152300
16,375333	0,5	-0,163550
16,383667	0,5	-0,169550
16,392000	0,5	-0,163800
16,400333	0,5	-0,166100
16,408667	0,5	-0,174550
16,417000	0,5	-0,191150
16,425333	0,5	-0,196950
16,433667	0,5	-0,198000
16,442000	0,5	-0,198750
16,450333	0,5	-0,202900
16,458667	0,5	-0,207750
16,467000	0,5	-0,211450
16,475333	0,5	-0,209900
16,483667	0,5	-0,215700
16,492000	0,5	-0,215100
16,500333	0,5	-0,224300
16,508667	0,5	-0,225000
16,517000	0,5	-0,223200
16,525333	0,5	-0,232650
16,533667	0,5	-0,233500
16,542000	0,5	-0,231000
16,550333	0,5	-0,236150
16,558667	0,5	-0,245250
16,567000	0,5	-0,260600
16,575333	0,5	-0,266150
16,583667	0,5	-0,262700
16,592000	0,5	-0,270250
16,600333	0,5	-0,271900
16,608667	0,5	-0,269500
16,617000	0,5	-0,274150
16,625333	0,5	-0,280750
16,633667	0,5	-0,276700
16,642000	0,5	-0,283150
16,650333	0,5	-0,285450
16,658667	0,5	-0,287050
16,667000	0,5	-0,281350
16,675333	0,5	-0,301550
16,683667	0,5	-0,290350
16,692000	0,5	-0,291900
16,700333	0,5	-0,294400
16,708667	0,5	-0,313600
16,717000	0,5	-0,328350
16,725333	0,5	-0,329600
16,733667	0,5	-0,327650
16,742000	0,5	-0,330800
16,750333	0,5	-0,332000
16,758667	0,5	-0,331300
16,767000	0,5	-0,336600
16,775333	0,5	-0,334150
16,783667	0,5	-0,342550
16,792000	0,5	-0,339400
16,800333	0,5	-0,342700
16,808667	0,5	-0,334150
16,817000	0,5	-0,343300
16,825333	0,5	-0,352850
16,833667	0,5	-0,346250
16,842000	0,5	-0,348300
16,850333	0,5	-0,351400
16,858667	0,5	-0,369500
16,867000	0,5	-0,382800
16,875333	0,5	-0,381250
16,883667	0,5	-0,377100
16,892000	0,5	-0,376200
16,900333	0,5	-0,377350
16,908667	0,5	-0,379500
16,917000	0,5	-0,379850
16,925333	0,5	-0,379900
16,933667	0,5	-0,381450
16,942000	0,5	-0,389200
16,950333	0,5	-0,378000
16,958667	0,5	-0,382350
16,967000	0,5	-0,397700
16,975333	0,5	-0,393300
16,983667	0,5	-0,385950
16,992000	0,5	-0,396200
17,000333	0,5	-0,398650
17,008667	0,5	-0,423250
17,017000	0,5	-0,429050
17,025333	0,5	-0,433350
17,033667	0,5	-0,426300
17,042000	0,5	-0,434350
17,050333	0,5	-0,429400
17,058667	0,5	-0,435050
17,067000	0,5	-0,432850
17,075333	0,5	-0,437650
17,083667	0,5	-0,440200
17,092000	0,5	-0,443850
17,100333	0,5	-0,445400
17,108667	0,5	-0,452800
17,117000	0,5	-0,461550
17,125333	0,5	-0,455650
17,133667	0,5	-0,454600
17,142000	0,5	-0,461800
17,150333	0,5	-0,478000
17,158667	0,5	-0,488600
17,167000	0,5	-0,490450
17,175333	0,5	-0,483700
17,183667	0,5	-0,494600
17,192000	0,5	-0,490350
17,200333	0,5	-0,495800
17,208667	0,5	-0,494250
17,217000	0,5	-0,497800
17,225333	0,5	-0,496950
17,233667	0,5	-0,497500
17,242000	0,5	-0,501250
17,250333	0,5	-0,489800
17,258667	0,5	-0,499050
17,267000	0,5	-0,510300
17,275333	0,5	-0,501550
17,283667	0,5	-0,502600
17,292000	0,5	-0,505300
17,300333	0,5	-0,522900
17,308667	0,5	-0,532050
17,317000	0,5	-0,522700
17,325333	0,5	-0,528850
17,333667	0,5	-0,525750
17,342000	0,5	-0,534000
17,350333	0,5	-0,529750
17,358667	0,5	-0,533550
17,367000	0,5	-0,530550
17,375333	0,5	-0,536400
17,383667	0,5	-0,534950
17,392000	0,5	-0,533850
17,400333	0,5	-0,521650
17,408667	0,5	-0,543200
17,417000	0,5	-0,534450
17,425333	0,5	-0,532650
17,433667	0,5	-0,533900
17,442000	0,5	-0,543650
17,450333	0,5	-0,564100
17,458667	0,5	-0,556800
17,467000	0,5	-0,554050
17,475333	0,5	-0,550800
17,483667	0,5	-0,552950
17,492000	0,5	-0,550350
17,500333	0,5	-0,554100
17,508667	0,5	-0,543900
17,517000	0,5	-0,549800
17,525333	0,5	-0,544050
17,533667	0,5	-0,542300
17,542000	0,5	-0,533450
17,550333	0,5	-0,532600
17,558667	0,5	-0,543950
17,567000	0,5	-0,534900
17,575333	0,5	-0,530250
17,583667	0,5	-0,531900
17,592000	0,5	-0,539850
17,600333	0,5	-0,557100
17,608667	0,5	-0,554250
17,617000	0,5	-0,548500
17,625333	0,5	-0,547400
17,633667	0,5	-0,545400
17,642000	0,5	-0,543950
17,650333	0,5	-0,534850
17,658667	0,5	-0,532200
17,667000	0,5	-0,527250
17,675333	0,5	-0,529350
17,683667	0,5	-0,522900
17,692000	0,5	-0,518900
17,700333	0,5	-0,515300
17,708667	0,5	-0,521500
17,717000	0,5	-0,501050
17,725333	0,5	-0,503000
17,733667	0,5	-0,499950
17,742000	0,5	-0,512800
17,750333	0,5	-0,520200
17,758667	0,5	-0,514500
17,767000	0,5	-0,506900
17,775333	0,5	-0,504400
17,783667	0,5	-0,494600
17,792000	0,5	-0,497300
17,800333	0,5	-0,490150
17,808667	0,5	-0,481400
17,817000	0,5	-0,482500
17,825333	0,5	-0,477300
17,833667	0,5	-0,471800
17,842000	0,5	-0,463450
17,850333	0,5	-0,471450
17,858667	0,5	-0,462400
17,867000	0,5	-0,453900
17,875333	0,5	-0,457300
17,883667	0,5	-0,463400
17,892000	0,5	-0,467100
17,900333	0,5	-0,472900
17,908667	0,5	-0,465450
17,917000	0,5	-0,460800
17,925333	0,5	-0,457950
17,933667	0,5	-0,457750
17,942000	0,5	-0,450000
17,950333	0,5	-0,448300
17,958667	0,5	-0,443600
17,967000	0,5	-0,444250
17,975333	0,5	-0,443950
17,983667	0,5	-0,432150
17,992000	0,5	-0,435600
18,000333	0,5	-0,443250
18,008667	0,5	-0,434400
18,017000	0,5	-0,430800
18,025333	0,5	-0,438950
18,033667	0,5	-0,446900
18,042000	0,5	-0,465950
18,050333	0,5	-0,458000
18,058667	0,5	-0,465000
18,067000	0,5	-0,463400
18,075333	0,5	-0,465650
18,083667	0,5	-0,461750
18,092000	0,5	-0,460800
18,100333	0,5	-0,460350
18,108667	0,5	-0,460100
18,117000	0,5	-0,462400
18,125333	0,5	-0,457550
18,133667	0,5	-0,453700
18,142000	0,5	-0,465150
18,150333	0,5	-0,464750
18,158667	0,5	-0,465750
18,167000	0,5	-0,462600
18,175333	0,5	-0,468250
18,183667	0,5	-0,489500
18,192000	0,5	-0,493850
18,200333	0,5	-0,496900
18,208667	0,5	-0,496500
18,217000	0,5	-0,504450
18,225333	0,5	-0,500550
18,233667	0,5	-0,508200
18,242000	0,5	-0,512850
18,250333	0,5	-0,516700
18,258667	0,5	-0,513400
18,267000	0,5	-0,521500
18,275333	0,5	-0,524700
18,283667	0,5	-0,523350
18,292000	0,5	-0,542600
18,300333	0,5	-0,537600
18,308667	0,5	-0,537050
18,317000	0,5	-0,538000
18,325333	0,5	-0,553050
18,333667	0,5	-0,573300
18,342000	0,5	-0,580750
18,350333	0,5	-0,578750
18,358667	0,5	-0,589850
18,367000	0,5	-0,590500
18,375333	0,5	-0,598350
18,383667	0,5	-0,596100
18,392000	0,5	-0,602750
18,400333	0,5	-0,603750
18,408667	0,5	-0,610050
18,417000	0,5	-0,611650
18,425333	0,5	-0,613650
18,433667	0,5	-0,612300
18,442000	0,5	-0,637100
18,450333	0,5	-0,623900
18,458667	0,5	-0,633200
18,467000	0,5	-0,640700
18,475333	0,5	-0,655550
18,483667	0,5	-0,682650
18,492000	0,5	-0,675750
18,500333	0,5	-0,684350
18,508667	0,5	-0,682550
18,517000	0,5	-0,694950
18,525333	0,5	-0,696550
18,533667	0,5	-0,704850
18,542000	0,5	-0,702700
18,550333	0,5	-0,711700
18,558667	0,5	-0,714200
18,567000	0,5	-0,714950
18,575333	0,5	-0,712800
18,583667	0,5	-0,722800
18,592000	0,5	-0,733900
18,600333	0,5	-0,729700
18,608667	0,5	-0,735150
18,617000	0,5	-0,746100
18,625333	0,5	-0,761550
18,633667	0,5	-0,778950
18,642000	0,5	-0,783000
18,650333	0,5	-0,784600
18,658667	0,5	-0,791600
18,667000	0,5	-0,791100
18,675333	0,5	-0,801100
18,683667	0,5	-0,801500
18,692000	0,5	-0,808050
18,700333	0,5	-0,808300
18,708667	0,5	-0,819450
18,717000	0,5	-0,812050
18,725333	0,5	-0,819150
18,733667	0,5	-0,832650
18,742000	0,5	-0,833700
18,750333	0,5	-0,830800
18,758667	0,5	-0,844900
18,767000	0,5	-0,855350
18,775333	0,5	-0,881500
18,783667	0,5	-0,889700
18,792000	0,5	-0,889850
18,800333	0,5	-0,893250
18,808667	0,5	-0,893900
18,817000	0,5	-0,897850
18,825333	0,5	-0,901550
18,833667	0,5	-0,911550
18,842000	0,5	-0,910300
18,850333	0,5	-0,916800
18,858667	0,5	-0,917700
18,867000	0,5	-0,915800
18,875333	0,5	-0,923550
18,883667	0,5	-0,939550
18,892000	0,5	-0,935600
18,900333	0,5	-0,941500
18,908667	0,5	-0,945200
18,917000	0,5	-0,973700
18,925333	0,5	-0,984800
18,933667	0,5	-0,987550
18,942000	0,5	-0,985200
18,950333	0,5	-0,990750
18,958667	0,5	-0,993000
18,967000	0,5	-0,997150
18,975333	0,5	-1,003350
18,983667	0,5	-1,001350
18,992000	0,5	-1,008900
19,000333	0,5	-1,007400
19,008667	0,5	-1,013400
19,017000	0,5	-1,004650
19,025333	0,5	-1,027200
19,033667	0,5	-1,026050
19,042000	0,5	-1,026800
19,050333	0,5	-1,028550
19,058667	0,5	-1,037900
19,067000	0,5	-1,059250
19,075333	0,5	-1,070100
19,083667	0,5	-1,072600
19,092000	0,5	-1,083200
19,100333	0,5	-1,083800
19,108667	0,5	-1,093600
19,117000	0,5	-1,094750
19,125333	0,5	-1,103350
19,133667	0,5	-1,106150
19,142000	0,5	-1,109450
19,150333	0,5	-1,120600
19,158667	0,5	-1,116750
19,167000	0,5	-1,120900
19,175333	0,5	-1,147550
19,183667	0,5	-1,135350
19,192000	0,5	-1,138950
19,200333	0,5	-1,151400
19,208667	0,5	-1,164900
19,217000	0,5	-1,195100
19,225333	0,5	-1,184550
19,233667	0,5	-1,192200
19,242000	0,5	-1,193300
19,250333	0,5	-1,206200
19,258667	0,5	-1,208650
19,267000	0,5	-1,212650
19,275333	0,5	-1,214700
19,283667	0,5	-1,222700
19,292000	0,5	-1,226700
19,300333	0,5	-1,231800
19,308667	0,5	-1,232850
19,317000	0,5	-1,240050
19,325333	0,5	-1,251300
19,333667	0,5	-1,243850
19,342000	0,5	-1,245950
19,350333	0,5	-1,252350
19,358667	0,5	-1,267500
19,367000	0,5	-1,284450
19,375333	0,5	-1,282100
19,383667	0,5	-1,278450
19,392000	0,5	-1,294750
19,400333	0,5	-1,295850
19,408667	0,5	-1,300650
19,417000	0,5	-1,299000
19,425333	0,5	-1,303600
19,433667	0,5	-1,303300
19,442000	0,5	-1,308500
19,450333	0,5	-1,314300
19,458667	0,5	-1,305700
19,467000	0,5	-1,317700
19,475333	0,5	-1,320150
19,483667	0,5	-1,318050
19,492000	0,5	-1,323550
19,500333	0,5	-1,338450
19,508667	0,5	-1,348500
19,517000	0,5	-1,363000
19,525333	0,5	-1,353100
19,533667	0,5	-1,360750
19,542000	0,5	-1,360300
19,550333	0,5	-1,369600
19,558667	0,5	-1,371400
19,567000	0,5	-1,377050
19,575333	0,5	-1,374500
19,583667	0,5	-1,386250
19,592000	0,5	-1,387350
19,600333	0,5	-1,380050
19,608667	0,5	-1,375050
19,617000	0,5	-1,394950
19,625333	0,5	-1,387150
19,633667	0,5	-1,389250
19,642000	0,5	-1,401150
19,650333	0,5	-1,413600
19,658667	0,5	-1,434600
19,667000	0,5	-1,435650
19,675333	0,5	-1,444250
19,683667	0,5	-1,443050
19,692000	0,5	-1,450250
19,700333	0,5	-1,449350
19,708667	0,5	-1,451550
19,717000	0,5	-1,453450
19,725333	0,5	-1,456800
19,733667	0,5	-1,459750
19,742000	0,5	-1,460250
19,750333	0,5	-1,451550
19,758667	0,5	-1,463050
19,767000	0,5	-1,469700
19,775333	0,5	-1,465650
19,783667	0,5	-1,465050
19,792000	0,5	-1,476700
19,800333	0,5	-1,495300
19,808667	0,5	-1,509850
19,817000	0,5	-1,515250
19,825333	0,5	-1,509800
19,833667	0,5	-1,515350
19,842000	0,5	-1,512800
19,850333	0,5	-1,513850
19,858667	0,5	-1,515400
19,867000	0,5	-1,518600
19,875333	0,5	-1,522550
19,883667	0,5	-1,528200
19,892000	0,5	-1,522300
19,900333	0,5	-1,521250
19,908667	0,5	-1,538500
19,917000	0,5	-1,539350
19,925333	0,5	-1,533650
19,933667	0,5	-1,543250
19,942000	0,5	-1,552900
19,950333	0,5	-1,574250
19,958667	0,5	-1,578500
19,967000	0,5	-1,578200
19,975333	0,5	-1,578600
19,983667	0,5	-1,581700
19,992000	0,5	-1,586600
20,000333	0,5	-1,585550
20,008667	0,5	-1,589800
20,017000	0,5	-1,587450
20,025333	0,5	-1,595050
20,033667	0,5	-1,594750
20,042000	0,5	-1,588900
20,050333	0,5	-1,589800
20,058667	0,5	-1,619900
20,067000	0,5	-1,609450
20,075333	0,5	-1,605900
20,083667	0,5	-1,613100
20,092000	0,5	-1,626350
20,100333	0,5	-1,648950
20,108667	0,5	-1,645150
20,117000	0,5	-1,651850
20,125333	0,5	-1,657200
20,133667	0,5	-1,664650
20,142000	0,5	-1,662400
20,150333	0,5	-1,669650
20,158667	0,5	-1,672150
20,167000	0,5	-1,678200
20,175333	0,5	-1,679000
20,183667	0,5	-1,678800
20,192000	0,5	-1,664500
20,200333	0,5	-1,676650
20,208667	0,5	-1,679950
20,217000	0,5	-1,678350
20,225333	0,5	-1,672950
20,233667	0,5	-1,685750
20,242000	0,5	-1,698850
20,250333	0,5	-1,706600
20,258667	0,5	-1,697700
20,267000	0,5	-1,695100
20,275333	0,5	-1,694350
20,283667	0,5	-1,692900
20,292000	0,5	-1,689850
20,300333	0,5	-1,687300
20,308667	0,5	-1,686450
20,317000	0,5	-1,678300
20,325333	0,5	-1,681200
20,333667	0,5	-1,666100
20,342000	0,5	-1,656550
20,350333	0,5	-1,668050
20,358667	0,5	-1,665450
20,367000	0,5	-1,663350
20,375333	0,5	-1,665850
20,383667	0,5	-1,675100
20,392000	0,5	-1,694800
20,400333	0,5	-1,693000
20,408667	0,5	-1,690550
20,417000	0,5	-1,685600
20,425333	0,5	-1,687600
20,433667	0,5	-1,686750
20,442000	0,5	-1,689050
20,450333	0,5	-1,681750
20,458667	0,5	-1,677050
20,467000	0,5	-1,677750
20,475333	0,5	-1,670500
20,483667	0,5	-1,657050
20,492000	0,5	-1,651100
20,500333	0,5	-1,665550
20,508667	0,5	-1,653650
20,517000	0,5	-1,657800
20,525333	0,5	-1,659100
20,533667	0,5	-1,678450
20,542000	0,5	-1,686450
20,550333	0,5	-1,679750
20,558667	0,5	-1,670800
20,567000	0,5	-1,668300
20,575333	0,5	-1,660050
20,583667	0,5	-1,654350
20,592000	0,5	-1,648650
20,600333	0,5	-1,640150
20,608667	0,5	-1,638100
20,617000	0,5	-1,632750
20,625333	0,5	-1,623600
20,633667	0,5	-1,611900
20,642000	0,5	-1,617000
20,650333	0,5	-1,624950
20,658667	0,5	-1,631500
20,667000	0,5	-1,637700
20,675333	0,5	-1,655450
20,683667	0,5	-1,671900
20,692000	0,5	-1,685350
20,700333	0,5	-1,682900
20,708667	0,5	-1,690900
20,717000	0,5	-1,687800
20,725333	0,5	-1,695250
20,733667	0,5	-1,694950
20,742000	0,5	-1,696750
20,750333	0,5	-1,693450
20,758667	0,5	-1,694900
20,767000	0,5	-1,697650
20,775333	0,5	-1,670650
20,783667	0,5	-1,662850
20,792000	0,5	-1,671900
20,800333	0,5	-1,673750
20,808667	0,5	-1,674500
20,817000	0,5	-1,686450
20,825333	0,5	-1,699050
20,833667	0,5	-1,718700
20,842000	0,5	-1,712700
20,850333	0,5	-1,719650
20,858667	0,5	-1,710250
20,867000	0,5	-1,710500
20,875333	0,5	-1,700250
20,883667	0,5	-1,700350
20,892000	0,5	-1,691750
20,900333	0,5	-1,687950
20,908667	0,5	-1,686500
20,917000	0,5	-1,671400
20,925333	0,5	-1,648150
20,933667	0,5	-1,643000
20,942000	0,5	-1,650100
20,950333	0,5	-1,645450
20,958667	0,5	-1,650100
20,967000	0,5	-1,653300
20,975333	0,5	-1,677050
20,983667	0,5	-1,665500
20,992000	0,5	-1,660650
21,000333	0,5	-1,650800
21,008667	0,5	-1,657300
21,017000	0,5	-1,646800
21,025333	0,5	-1,640000
21,033667	0,5	-1,632900
21,042000	0,5	-1,628000
21,050333	0,5	-1,621500
21,058667	0,5	-1,616550
21,067000	0,5	-1,591900
21,075333	0,5	-1,570400
21,083667	0,5	-1,574100
21,092000	0,5	-1,576450
21,100333	0,5	-1,576200
21,108667	0,5	-1,580900
21,117000	0,5	-1,590750
21,125333	0,5	-1,604350
21,133667	0,5	-1,596500
21,142000	0,5	-1,590600
21,150333	0,5	-1,591000
21,158667	0,5	-1,585100
21,167000	0,5	-1,583700
21,175333	0,5	-1,578200
21,183667	0,5	-1,571250
21,192000	0,5	-1,566300
21,200333	0,5	-1,565750
21,208667	0,5	-1,557900
21,217000	0,5	-1,525350
21,225333	0,5	-1,504650
21,233667	0,5	-1,513250
21,242000	0,5	-1,509800
21,250333	0,5	-1,506500
21,258667	0,5	-1,517200
21,267000	0,5	-1,520900
21,275333	0,5	-1,532700
21,283667	0,5	-1,516050
21,292000	0,5	-1,513350
21,300333	0,5	-1,505350
21,308667	0,5	-1,504150
21,317000	0,5	-1,494350
21,325333	0,5	-1,492550
21,333667	0,5	-1,481450
21,342000	0,5	-1,472950
21,350333	0,5	-1,465550
21,358667	0,5	-1,436400
21,367000	0,5	-1,416200
21,375333	0,5	-1,406000
21,383667	0,5	-1,406800
21,392000	0,5	-1,409700
21,400333	0,5	-1,412950
21,408667	0,5	-1,418900
21,417000	0,5	-1,430000
21,425333	0,5	-1,420200
21,433667	0,5	-1,411200
21,442000	0,5	-1,402250
21,450333	0,5	-1,399450
21,458667	0,5	-1,384250
21,467000	0,5	-1,379550
21,475333	0,5	-1,365150
21,483667	0,5	-1,359100
21,492000	0,5	-1,348900
21,500333	0,5	-1,337850
21,508667	0,5	-1,302950
21,517000	0,5	-1,278000
21,525333	0,5	-1,276250
21,533667	0,5	-1,265800
21,542000	0,5	-1,262250
21,550333	0,5	-1,253400
21,558667	0,5	-1,260550
21,567000	0,5	-1,253250
21,575333	0,5	-1,239400
21,583667	0,5	-1,205050
21,592000	0,5	-1,181800
21,600333	0,5	-1,147050
21,608667	0,5	-1,116400
21,617000	0,5	-1,081700
21,625333	0,5	-1,053050
21,633667	0,5	-1,027750
21,642000	0,5	-1,022600
21,650333	0,5	-1,009600
21,658667	0,5	-0,996500
21,667000	0,5	-0,995900
21,675333	0,5	-1,002650
21,683667	0,5	-0,995750
21,692000	0,5	-0,994050
21,700333	0,5	-0,992900
21,708667	0,5	-0,988300
21,717000	0,5	-0,981600
21,725333	0,5	-0,958650
21,733667	0,5	-0,946600
21,742000	0,5	-0,920650
21,750333	0,5	-0,913100
21,758667	0,5	-0,887900
21,767000	0,5	-0,872350
21,775333	0,5	-0,844250
21,783667	0,5	-0,819900
21,792000	0,5	-0,796250
21,800333	0,5	-0,751050
21,808667	0,5	-0,716600
21,817000	0,5	-0,702650
21,825333	0,5	-0,672150
21,833667	0,5	-0,645900
21,842000	0,5	-0,632450
21,850333	0,5	-0,616950
21,858667	0,5	-0,594100
21,867000	0,5	-0,563650
21,875333	0,5	-0,541100
21,883667	0,5	-0,511200
21,892000	0,5	-0,492350
21,900333	0,5	-0,463850
21,908667	0,5	-0,449800
21,917000	0,5	-0,426000
21,925333	0,5	-0,405800
21,933667	0,5	-0,382200
21,942000	0,5	-0,351150
21,950333	0,5	-0,310550
21,958667	0,5	-0,302650
21,967000	0,5	-0,274750
21,975333	0,5	-0,248850
21,983667	0,5	-0,228900
21,992000	0,5	-0,203200
22,000333	0,5	-0,198950
22,008667	0,5	-0,155950
22,017000	0,5	-0,124350
22,025333	0,5	-0,082450
22,033667	0,5	-0,049900
22,042000	0,5	-0,016850
22,050333	0,5	0,013050
22,058667	0,5	0,048500
22,067000	0,5	0,084500
22,075333	0,5	0,120950
22,083667	0,5	0,153950
22,092000	0,5	0,193700
22,100333	0,5	0,235600
22,108667	0,5	0,258100
22,117000	0,5	0,317700
22,125333	0,5	0,367950
22,133667	0,5	0,407950
22,142000	0,5	0,450850
22,150333	0,5	0,494100
22,158667	0,5	0,552250
22,167000	0,5	0,623750
22,175333	0,5	0,677950
22,183667	0,5	0,749550
22,192000	0,5	0,808350
22,200333	0,5	0,878850
22,208667	0,5	0,936300
22,217000	0,5	1,000250
22,225333	0,5	1,050800
22,233667	0,5	1,100150
22,242000	0,5	1,148350
22,250333	0,5	1,191200
22,258667	0,5	1,255100
22,267000	0,5	1,313400
22,275333	0,5	1,364550
22,283667	0,5	1,406200
22,292000	0,5	1,454450
22,300333	0,5	1,497350
22,308667	0,5	1,563400
22,317000	0,5	1,608300
22,325333	0,5	1,657750
22,333667	0,5	1,701050
22,342000	0,5	1,750700
22,350333	0,5	1,802550
22,358667	0,5	1,864900
22,367000	0,5	1,917050
22,375333	0,5	1,976350
22,383667	0,5	2,022050
22,392000	0,5	2,090200
22,400333	0,5	2,149050
22,408667	0,5	2,235650
22,417000	0,5	2,300500
22,425333	0,5	2,365700
22,433667	0,5	2,426350
22,442000	0,5	2,482250
22,450333	0,5	2,566350
22,458667	0,5	2,643050
22,467000	0,5	2,724150
22,475333	0,5	2,793200
22,483667	0,5	2,870050
22,492000	0,5	2,939400
22,500333	0,5	3,019850
22,508667	0,5	3,091550
22,517000	0,5	3,165450
22,525333	0,5	3,229800
22,533667	0,5	3,275800
22,542000	0,5	3,352550
22,550333	0,5	3,441100
22,558667	0,5	3,517250
22,567000	0,5	3,571700
22,575333	0,5	3,625550
22,583667	0,5	3,659300
22,592000	0,5	3,704650
22,600333	0,5	3,744400
22,608667	0,5	3,790300
22,617000	0,5	3,824000
22,625333	0,5	3,862200
22,633667	0,5	3,883450
22,642000	0,5	3,906250
22,650333	0,5	3,921350
22,658667	0,5	3,925000
22,667000	0,5	3,917150
22,675333	0,5	3,868100
22,683667	0,5	3,836350
22,692000	0,5	3,815800
22,700333	0,5	3,783900
22,708667	0,5	3,735800
22,717000	0,5	3,665800
22,725333	0,5	3,588250
22,733667	0,5	3,506900
22,742000	0,5	3,432650
22,750333	0,5	3,362700
22,758667	0,5	3,268600
22,767000	0,5	3,172600
22,775333	0,5	3,065750
22,783667	0,5	2,947550
22,792000	0,5	2,814700
22,800333	0,5	2,672500
22,808667	0,5	2,522400
22,817000	0,5	2,364600
22,825333	0,5	2,154950
22,833667	0,5	2,005100
22,842000	0,5	1,849350
22,850333	0,5	1,682250
22,858667	0,5	1,502100
22,867000	0,5	1,324900
22,875333	0,5	1,152950
22,883667	0,5	0,981250
22,892000	0,5	0,806150
22,900333	0,5	0,642700
22,908667	0,5	0,480900
22,917000	0,5	0,326850
22,925333	0,5	0,165650
22,933667	0,5	0,015400
22,942000	0,5	-0,141700
22,950333	0,5	-0,287550
22,958667	0,5	-0,434300
22,967000	0,5	-0,558650
22,975333	0,5	-0,703950
22,983667	0,5	-0,847300
22,992000	0,5	-1,005950
23,000333	0,5	-1,136600
23,008667	0,5	-1,259800
23,017000	0,5	-1,366150
23,025333	0,5	-1,460500
23,033667	0,5	-1,570450
23,042000	0,5	-1,663500
23,050333	0,5	-1,748050
23,058667	0,5	-1,821300
23,067000	0,5	-1,893100
23,075333	0,5	-1,958600
23,083667	0,5	-2,029000
23,092000	0,5	-2,089550
23,100333	0,5	-2,154650
23,108667	0,5	-2,210050
23,117000	0,5	-2,246550
23,125333	0,5	-2,293550
23,133667	0,5	-2,350500
23,142000	0,5	-2,427600
23,150333	0,5	-2,472600
23,158667	0,5	-2,500700
23,167000	0,5	-2,527600
23,175333	0,5	-2,537800
23,183667	0,5	-2,555250
23,192000	0,5	-2,564000
23,200333	0,5	-2,566000
23,208667	0,5	-2,564050
23,217000	0,5	-2,560950
23,225333	0,5	-2,557000
23,233667	0,5	-2,552700
23,242000	0,5	-2,550450
23,250333	0,5	-2,540000
23,258667	0,5	-2,530650
23,267000	0,5	-2,554400
23,275333	0,5	-2,513350
23,283667	0,5	-2,512200
23,292000	0,5	-2,538100
23,300333	0,5	-2,534450
23,308667	0,5	-2,526050
23,317000	0,5	-2,501100
23,325333	0,5	-2,479450
23,333667	0,5	-2,457750
23,342000	0,5	-2,440850
23,350333	0,5	-2,411050
23,358667	0,5	-2,385050
23,367000	0,5	-2,349900
23,375333	0,5	-2,319650
23,383667	0,5	-2,286250
23,392000	0,5	-2,261600
23,400333	0,5	-2,232650
23,408667	0,5	-2,223250
23,417000	0,5	-2,222850
23,425333	0,5	-2,167350
23,433667	0,5	-2,131350
23,442000	0,5	-2,132350
23,450333	0,5	-2,124100
23,458667	0,5	-2,102850
23,467000	0,5	-2,086350
23,475333	0,5	-2,068400
23,483667	0,5	-2,051350
23,492000	0,5	-2,033050
23,500333	0,5	-2,016950
23,508667	0,5	-1,992150
23,517000	0,5	-1,975450
23,525333	0,5	-1,953100
23,533667	0,5	-1,935700
23,542000	0,5	-1,915850
23,550333	0,5	-1,899750
23,558667	0,5	-1,958500
23,567000	0,5	-1,938150
23,575333	0,5	-1,887850
23,583667	0,5	-1,843000
23,592000	0,5	-1,832600
23,600333	0,5	-1,827650
23,608667	0,5	-1,821600
23,617000	0,5	-1,814000
23,625333	0,5	-1,803000
23,633667	0,5	-1,796400
23,642000	0,5	-1,785750
23,650333	0,5	-1,778350
23,658667	0,5	-1,769450
23,667000	0,5	-1,762500
23,675333	0,5	-1,757300
23,683667	0,5	-1,751100
23,692000	0,5	-1,750200
23,700333	0,5	-1,764300
23,708667	0,5	-1,868100
23,717000	0,5	-1,844500
23,725333	0,5	-1,791350
23,733667	0,5	-1,760000
23,742000	0,5	-1,750200
23,750333	0,5	-1,753100
23,758667	0,5	-1,758300
23,767000	0,5	-1,759250
23,775333	0,5	-1,751200
23,783667	0,5	-1,739050
23,792000	0,5	-1,733150
23,800333	0,5	-1,722800
23,808667	0,5	-1,715350
23,817000	0,5	-1,704450
23,825333	0,5	-1,693300
23,833667	0,5	-1,684850
23,842000	0,5	-1,682200
23,850333	0,5	-1,772350
23,858667	0,5	-1,799900
23,867000	0,5	-1,779100
23,875333	0,5	-1,723450
23,883667	0,5	-1,692200
23,892000	0,5	-1,683750
23,900333	0,5	-1,684450
23,908667	0,5	-1,693550
23,917000	0,5	-1,695350
23,925333	0,5	-1,680500
23,933667	0,5	-1,680750
23,942000	0,5	-1,673150
23,950333	0,5	-1,664700
23,958667	0,5	-1,656650
23,967000	0,5	-1,647050
23,975333	0,5	-1,632050
23,983667	0,5	-1,626200
23,992000	0,5	-1,618600
24,000333	0,5	-1,741950
24,008667	0,5	-1,693650
24,017000	0,5	-1,685150
24,025333	0,5	-1,609950
24,033667	0,5	-1,590250
24,042000	0,5	-1,570800
24,050333	0,5	-1,572000
24,058667	0,5	-1,578200
24,067000	0,5	-1,555500
24,075333	0,5	-1,535700
24,083667	0,5	-1,519900
24,092000	0,5	-1,507750
24,100333	0,5	-1,493900
24,108667	0,5	-1,481250
24,117000	0,5	-1,461300
24,125333	0,5	-1,453550
24,133667	0,5	-1,438750
24,142000	0,5	-1,471600
24,150333	0,5	-1,539250
24,158667	0,5	-1,502700
24,167000	0,5	-1,475750
24,175333	0,5	-1,427050
24,183667	0,5	-1,406550
24,192000	0,5	-1,395950
24,200333	0,5	-1,389350
24,208667	0,5	-1,397350
24,217000	0,5	-1,370050
24,225333	0,5	-1,359050
24,233667	0,5	-1,336550
24,242000	0,5	-1,326550
24,250333	0,5	-1,300550
24,258667	0,5	-1,284000
24,267000	0,5	-1,262050
24,275333	0,5	-1,238650
24,283667	0,5	-1,227250
24,292000	0,5	-1,275750
24,300333	0,5	-1,294400
24,308667	0,5	-1,253600
24,317000	0,5	-1,218000
24,325333	0,5	-1,176200
24,333667	0,5	-1,168500
24,342000	0,5	-1,155000
24,350333	0,5	-1,156750
24,358667	0,5	-1,155150
24,367000	0,5	-1,143650
24,375333	0,5	-1,123300
24,383667	0,5	-1,111400
24,392000	0,5	-1,095050
24,400333	0,5	-1,082500
24,408667	0,5	-1,066000
24,417000	0,5	-1,053200
24,425333	0,5	-1,039000
24,433667	0,5	-1,032700
24,442000	0,5	-1,090650
24,450333	0,5	-1,068200
24,458667	0,5	-1,044750
24,467000	0,5	-1,007650
24,475333	0,5	-0,979050
24,483667	0,5	-0,965600
24,492000	0,5	-0,958350
24,500333	0,5	-0,954200
24,508667	0,5	-0,950850
24,517000	0,5	-0,922850
24,525333	0,5	-0,913000
24,533667	0,5	-0,895750
24,542000	0,5	-0,884400
24,550333	0,5	-0,869650
24,558667	0,5	-0,854850
24,567000	0,5	-0,840450
24,575333	0,5	-0,828150
24,583667	0,5	-0,831800
24,592000	0,5	-0,859050
24,600333	0,5	-0,847350
24,608667	0,5	-0,828600
24,617000	0,5	-0,800550
24,625333	0,5	-0,784950
24,633667	0,5	-0,779800
24,642000	0,5	-0,781300
24,650333	0,5	-0,783300
24,658667	0,5	-0,764800
24,667000	0,5	-0,757400
24,675333	0,5	-0,742600
24,683667	0,5	-0,732500
24,692000	0,5	-0,719300
24,700333	0,5	-0,706900
24,708667	0,5	-0,689700
24,717000	0,5	-0,678350
24,725333	0,5	-0,669250
24,733667	0,5	-0,683950
24,742000	0,5	-0,678000
24,750333	0,5	-0,671300
24,758667	0,5	-0,646300
24,767000	0,5	-0,630300
24,775333	0,5	-0,616700
24,783667	0,5	-0,609900
24,792000	0,5	-0,611400
24,800333	0,5	-0,606200
24,808667	0,5	-0,598200
24,817000	0,5	-0,591350
24,825333	0,5	-0,580450
24,833667	0,5	-0,577400
24,842000	0,5	-0,571250
24,850333	0,5	-0,559750
24,858667	0,5	-0,553600
24,867000	0,5	-0,544600
24,875333	0,5	-0,539600
24,883667	0,5	-0,552800
24,892000	0,5	-0,543900
24,900333	0,5	-0,535450
24,908667	0,5	-0,520350
24,917000	0,5	-0,505550
24,925333	0,5	-0,496600
24,933667	0,5	-0,488500
24,942000	0,5	-0,493000
24,950333	0,5	-0,483100
24,958667	0,5	-0,474350
24,967000	0,5	-0,468250
24,975333	0,5	-0,459800
24,983667	0,5	-0,452850
24,992000	0,5	-0,443200
25,000333	0,5	-0,436350
25,008667	0,5	-0,429000
25,017000	0,5	-0,425050
25,025333	0,5	-0,422850
25,033667	0,5	-0,430400
25,042000	0,5	-0,418950
25,050333	0,5	-0,416450
25,058667	0,5	-0,405750
25,067000	0,5	-0,400050
25,075333	0,5	-0,398550
25,083667	0,5	-0,398200
25,092000	0,5	-0,399500
25,100333	0,5	-0,393950
25,108667	0,5	-0,386100
25,117000	0,5	-0,383250
25,125333	0,5	-0,378000
25,133667	0,5	-0,371700
25,142000	0,5	-0,363350
25,150333	0,5	-0,358150
25,158667	0,5	-0,350900
25,167000	0,5	-0,345500
25,175333	0,5	-0,344800
25,183667	0,5	-0,341800
25,192000	0,5	-0,335550
25,200333	0,5	-0,331350
25,208667	0,5	-0,326000
25,217000	0,5	-0,322100
25,225333	0,5	-0,320650
25,233667	0,5	-0,318100
25,242000	0,5	-0,317400
25,250333	0,5	-0,316650
25,258667	0,5	-0,315400
25,267000	0,5	-0,314200
25,275333	0,5	-0,311100
25,283667	0,5	-0,310100
25,292000	0,5	-0,305700
25,300333	0,5	-0,301600
25,308667	0,5	-0,301600
25,317000	0,5	-0,297200
25,325333	0,5	-0,296750
25,333667	0,5	-0,291400
25,342000	0,5	-0,287700
25,350333	0,5	-0,285200
25,358667	0,5	-0,280950
25,367000	0,5	-0,279400
25,375333	0,5	-0,276100
25,383667	0,5	-0,270950
25,392000	0,5	-0,269300
25,400333	0,5	-0,267850
25,408667	0,5	-0,266050
25,417000	0,5	-0,265000
25,425333	0,5	-0,262900
25,433667	0,5	-0,261550
25,442000	0,5	-0,258300
25,450333	0,5	-0,257900
25,458667	0,5	-0,256500
25,467000	0,5	-0,256800
25,475333	0,5	-0,254100
25,483667	0,5	-0,251700
25,492000	0,5	-0,252300
25,500333	0,5	-0,256300
25,508667	0,5	-0,253750
25,517000	0,5	-0,252550
25,525333	0,5	-0,250200
25,533667	0,5	-0,245700
25,542000	0,5	-0,241400
25,550333	0,5	-0,243600
25,558667	0,5	-0,243450
25,567000	0,5	-0,241100
25,575333	0,5	-0,238350
25,583667	0,5	-0,235350
25,592000	0,5	-0,236700
25,600333	0,5	-0,230750
25,608667	0,5	-0,228050
25,617000	0,5	-0,228850
25,625333	0,5	-0,223850
25,633667	0,5	-0,222550
25,642000	0,5	-0,219650
25,650333	0,5	-0,224250
25,658667	0,5	-0,226550
25,667000	0,5	-0,220400
25,675333	0,5	-0,217800
25,683667	0,5	-0,212950
25,692000	0,5	-0,215750
25,700333	0,5	-0,210400
25,708667	0,5	-0,209600
25,717000	0,5	-0,207100
25,725333	0,5	-0,205800
25,733667	0,5	-0,201500
25,742000	0,5	-0,203900
25,750333	0,5	-0,198850
25,758667	0,5	-0,196550
25,767000	0,5	-0,187150
25,775333	0,5	-0,190100
25,783667	0,5	-0,178550
25,792000	0,5	-0,185850
25,800333	0,5	-0,184850
25,808667	0,5	-0,182750
25,817000	0,5	-0,179250
25,825333	0,5	-0,171300
25,833667	0,5	-0,175250
25,842000	0,5	-0,174300
25,850333	0,5	-0,172850
25,858667	0,5	-0,171150
25,867000	0,5	-0,167900
25,875333	0,5	-0,169400
25,883667	0,5	-0,170650
25,892000	0,5	-0,170250
25,900333	0,5	-0,170350
25,908667	0,5	-0,165650
25,917000	0,5	-0,166900
25,925333	0,5	-0,168600
25,933667	0,5	-0,158850
25,942000	0,5	-0,163050
25,950333	0,5	-0,166950
25,958667	0,5	-0,161300
25,967000	0,5	-0,157400
25,975333	0,5	-0,142800
25,983667	0,5	-0,147700
25,992000	0,5	-0,144300
26,000333	0,5	-0,146700
