File Path	chrom://chromeleon01/ikbm_chromeleon/2022/ICS-5000/ED1/Esteban/20220612_Cell_7_4_eg.seq/878.smp/ED_1.channel/ED_1.chm
Channel	ED_1

Injection Information:
Data Vault	ikbm_chromeleon
Injection	CelS2_24h-EGS_2
Injection Number	33
Position	RD3
Comment	
Processing Method	Stop sequence after Cell Death
Instrument Method	ICS5000_PA200_FullNative_Ox_26min_ED1
Type	Unknown
Status	Finished
Injection Date	13.06.2022
Injection Time	07:17:33
Injection Volume (µl)	5,0
Dilution Factor	1,0000
Weight	1,0000

Chromatogram Data Information:
Time Min. (min)	0,000167
Time Max. (min)	26,000167
Data Points	3121
Detector	EDet1
Generating Data System	Chromeleon 7.2.9.11323
Exporting Data System	Chromeleon 7.2.9.0
Operator	Instrument Controller
Signal Quantity	
Signal Unit	nC
Signal Min.	-1,841500
Signal Max.	383,808256
Channel	ED_1
Driver Name	DC-5000
Channel Type	Evaluation
Min. Step (s)	0,5
Max. Step (s)	0,5
Average Step (s)	0,5

Signal Parameter Information:
Signal Info	

Chromatogram Data:
Time (min)	Step (s)	Value (nC)
0,000167	n.a.	-0,030200
0,008500	0,5	-0,046550
0,016833	0,5	-0,043200
0,025167	0,5	-0,026200
0,033500	0,5	-0,032200
0,041833	0,5	-0,032250
0,050167	0,5	-0,029450
0,058500	0,5	-0,021550
0,066833	0,5	0,010100
0,075167	0,5	-0,000350
0,083500	0,5	0,001300
0,091833	0,5	0,002250
0,100167	0,5	0,008350
0,108500	0,5	0,002850
0,116833	0,5	0,006900
0,125167	0,5	-0,000450
0,133500	0,5	-0,001000
0,141833	0,5	-0,003300
0,150167	0,5	-0,002900
0,158500	0,5	-0,011400
0,166833	0,5	-0,012700
0,175167	0,5	0,001150
0,183500	0,5	-0,017600
0,191833	0,5	-0,013250
0,200167	0,5	-0,013400
0,208500	0,5	0,001100
0,216833	0,5	0,017850
0,225167	0,5	0,009200
0,233500	0,5	0,003450
0,241833	0,5	0,010050
0,250167	0,5	0,005000
0,258500	0,5	0,004700
0,266833	0,5	0,000600
0,275167	0,5	0,002800
0,283500	0,5	-0,000150
0,291833	0,5	0,016150
0,300167	0,5	0,021700
0,308500	0,5	0,013700
0,316833	0,5	-0,000800
0,325167	0,5	0,000750
0,333500	0,5	-0,020050
0,341833	0,5	-0,018100
0,350167	0,5	-0,019000
0,358500	0,5	-0,005250
0,366833	0,5	0,012100
0,375167	0,5	0,007700
0,383500	0,5	0,008300
0,391833	0,5	0,006400
0,400167	0,5	0,006350
0,408500	0,5	0,000200
0,416833	0,5	0,000750
0,425167	0,5	-0,007700
0,433500	0,5	-0,004300
0,441833	0,5	-0,006050
0,450167	0,5	-0,009500
0,458500	0,5	-0,018100
0,466833	0,5	-0,007250
0,475167	0,5	-0,008800
0,483500	0,5	-0,018700
0,491833	0,5	-0,019000
0,500167	0,5	-0,011050
0,508500	0,5	0,001250
0,516833	0,5	0,009750
0,525167	0,5	0,003250
0,533500	0,5	0,007150
0,541833	0,5	0,005050
0,550167	0,5	0,001650
0,558500	0,5	0,000200
0,566833	0,5	-0,001300
0,575167	0,5	0,001450
0,583500	0,5	-0,004950
0,591833	0,5	-0,001000
0,600167	0,5	-0,019800
0,608500	0,5	-0,013250
0,616833	0,5	-0,002800
0,625167	0,5	-0,012050
0,633500	0,5	-0,018800
0,641833	0,5	-0,013600
0,650167	0,5	-0,008350
0,658500	0,5	0,007750
0,666833	0,5	0,017050
0,675167	0,5	0,020900
0,683500	0,5	0,012650
0,691833	0,5	0,017000
0,700167	0,5	0,006700
0,708500	0,5	0,007250
0,716833	0,5	0,006650
0,725167	0,5	0,001000
0,733500	0,5	0,005600
0,741833	0,5	0,001950
0,750167	0,5	-0,006350
0,758500	0,5	0,002800
0,766833	0,5	0,010000
0,775167	0,5	-0,002900
0,783500	0,5	-0,003550
0,791833	0,5	-0,004550
0,800167	0,5	0,014450
0,808500	0,5	0,020900
0,816833	0,5	0,022500
0,825167	0,5	0,014850
0,833500	0,5	0,025950
0,841833	0,5	0,016300
0,850167	0,5	0,025700
0,858500	0,5	0,022850
0,866833	0,5	0,028800
0,875167	0,5	0,022300
0,883500	0,5	0,020050
0,891833	0,5	0,017350
0,900167	0,5	0,011100
0,908500	0,5	0,025800
0,916833	0,5	0,025100
0,925167	0,5	0,016750
0,933500	0,5	0,012800
0,941833	0,5	0,021350
0,950167	0,5	0,039350
0,958500	0,5	0,049650
0,966833	0,5	0,037700
0,975167	0,5	0,042200
0,983500	0,5	0,039350
0,991833	0,5	0,046300
1,000167	0,5	0,038500
1,008500	0,5	0,042750
1,016833	0,5	0,036150
1,025167	0,5	0,040600
1,033500	0,5	0,042500
1,041833	0,5	0,037800
1,050167	0,5	0,032100
1,058500	0,5	0,060700
1,066833	0,5	0,041850
1,075167	0,5	0,037500
1,083500	0,5	0,039050
1,091833	0,5	0,046950
1,100167	0,5	0,067700
1,108500	0,5	0,061900
1,116833	0,5	0,062850
1,125167	0,5	0,062300
1,133500	0,5	0,063750
1,141833	0,5	0,064850
1,150167	0,5	0,072550
1,158500	0,5	0,067150
1,166833	0,5	0,068900
1,175167	0,5	0,064100
1,183500	0,5	0,064150
1,191833	0,5	0,055750
1,200167	0,5	0,053350
1,208500	0,5	0,070000
1,216833	0,5	0,054850
1,225167	0,5	0,056550
1,233500	0,5	0,056550
1,241833	0,5	0,072300
1,250167	0,5	0,091050
1,258500	0,5	0,083150
1,266833	0,5	0,078850
1,275167	0,5	0,080450
1,283500	0,5	0,079500
1,291833	0,5	0,081000
1,300167	0,5	0,075050
1,308500	0,5	0,074650
1,316833	0,5	0,068500
1,325167	0,5	0,070450
1,333500	0,5	0,067600
1,341833	0,5	0,067150
1,350167	0,5	0,062850
1,358500	0,5	0,072150
1,366833	0,5	0,054600
1,375167	0,5	0,061200
1,383500	0,5	0,055500
1,391833	0,5	0,069150
1,400167	0,5	0,086050
1,408500	0,5	0,078850
1,416833	0,5	0,073300
1,425167	0,5	0,072000
1,433500	0,5	0,068950
1,441833	0,5	0,069150
1,450167	0,5	0,060200
1,458500	0,5	0,058100
1,466833	0,5	0,057600
1,475167	0,5	0,055150
1,483500	0,5	0,051600
1,491833	0,5	0,042100
1,500167	0,5	0,050600
1,508500	0,5	0,040650
1,516833	0,5	0,030400
1,525167	0,5	0,028250
1,533500	0,5	0,032700
1,541833	0,5	0,040350
1,550167	0,5	0,039050
1,558500	0,5	-0,010500
1,566833	0,5	-0,168100
1,575167	0,5	-0,560000
1,583500	0,5	-0,954100
1,591833	0,5	-0,657850
1,600167	0,5	1,609600
1,608500	0,5	8,149650
1,616833	0,5	22,362700
1,625167	0,5	43,905401
1,633500	0,5	64,172001
1,641833	0,5	72,661001
1,650167	0,5	67,083001
1,658500	0,5	53,814751
1,666833	0,5	40,120151
1,675167	0,5	29,397800
1,683500	0,5	21,976250
1,691833	0,5	17,111900
1,700167	0,5	13,918800
1,708500	0,5	11,735750
1,716833	0,5	10,147000
1,725167	0,5	8,965250
1,733500	0,5	8,091100
1,741833	0,5	7,471700
1,750167	0,5	7,041100
1,758500	0,5	6,782150
1,766833	0,5	6,643400
1,775167	0,5	6,558850
1,783500	0,5	6,463500
1,791833	0,5	6,340850
1,800167	0,5	6,150000
1,808500	0,5	5,911050
1,816833	0,5	5,646200
1,825167	0,5	5,376150
1,833500	0,5	5,124200
1,841833	0,5	4,910700
1,850167	0,5	4,752800
1,858500	0,5	4,644900
1,866833	0,5	4,552100
1,875167	0,5	4,438150
1,883500	0,5	4,378650
1,891833	0,5	4,524100
1,900167	0,5	5,186750
1,908500	0,5	6,898200
1,916833	0,5	10,111100
1,925167	0,5	14,012350
1,933500	0,5	16,397150
1,941833	0,5	15,907150
1,950167	0,5	13,334000
1,958500	0,5	10,386850
1,966833	0,5	8,087350
1,975167	0,5	6,601750
1,983500	0,5	5,797600
1,991833	0,5	5,483050
2,000167	0,5	5,626550
2,008500	0,5	6,240300
2,016833	0,5	7,102100
2,025167	0,5	7,726350
2,033500	0,5	7,795550
2,041833	0,5	7,456650
2,050167	0,5	6,890100
2,058500	0,5	6,229550
2,066833	0,5	5,606250
2,075167	0,5	5,177000
2,083500	0,5	4,948700
2,091833	0,5	4,881550
2,100167	0,5	4,836300
2,108500	0,5	4,852900
2,116833	0,5	4,902150
2,125167	0,5	4,933250
2,133500	0,5	4,885950
2,141833	0,5	4,745500
2,150167	0,5	4,602850
2,158500	0,5	4,527350
2,166833	0,5	4,529950
2,175167	0,5	4,608950
2,183500	0,5	4,751900
2,191833	0,5	4,927900
2,200167	0,5	5,123000
2,208500	0,5	5,359600
2,216833	0,5	5,688150
2,225167	0,5	6,071650
2,233500	0,5	6,391450
2,241833	0,5	6,478250
2,250167	0,5	6,250750
2,258500	0,5	5,901550
2,266833	0,5	5,633150
2,275167	0,5	5,518650
2,283500	0,5	5,529700
2,291833	0,5	5,594200
2,300167	0,5	5,728850
2,308500	0,5	5,934800
2,316833	0,5	6,238050
2,325167	0,5	6,690900
2,333500	0,5	7,446600
2,341833	0,5	8,671900
2,350167	0,5	10,336250
2,358500	0,5	12,022700
2,366833	0,5	13,251400
2,375167	0,5	14,075000
2,383500	0,5	15,218050
2,391833	0,5	17,649450
2,400167	0,5	22,225250
2,408500	0,5	30,107150
2,416833	0,5	44,260451
2,425167	0,5	72,478751
2,433500	0,5	127,435552
2,441833	0,5	215,266553
2,450167	0,5	314,301055
2,458500	0,5	380,031556
2,466833	0,5	383,808256
2,475167	0,5	334,366355
2,483500	0,5	261,260404
2,491833	0,5	191,104503
2,500167	0,5	136,932952
2,508500	0,5	100,259401
2,516833	0,5	77,094151
2,525167	0,5	62,288051
2,533500	0,5	51,863851
2,541833	0,5	43,579401
2,550167	0,5	36,689051
2,558500	0,5	31,052050
2,566833	0,5	26,581700
2,575167	0,5	23,132450
2,583500	0,5	20,495100
2,591833	0,5	18,496100
2,600167	0,5	17,008450
2,608500	0,5	15,882800
2,616833	0,5	15,018600
2,625167	0,5	14,317300
2,633500	0,5	13,757500
2,641833	0,5	13,341850
2,650167	0,5	13,096150
2,658500	0,5	12,973000
2,666833	0,5	12,863750
2,675167	0,5	12,641900
2,683500	0,5	12,245100
2,691833	0,5	11,675250
2,700167	0,5	11,074300
2,708500	0,5	10,543250
2,716833	0,5	10,132250
2,725167	0,5	9,851200
2,733500	0,5	9,673600
2,741833	0,5	9,637400
2,750167	0,5	9,788250
2,758500	0,5	10,219000
2,766833	0,5	10,908800
2,775167	0,5	11,692300
2,783500	0,5	12,225850
2,791833	0,5	12,234350
2,800167	0,5	11,664650
2,808500	0,5	10,729400
2,816833	0,5	9,709200
2,825167	0,5	8,842450
2,833500	0,5	8,149850
2,841833	0,5	7,615850
2,850167	0,5	7,200750
2,858500	0,5	6,868450
2,866833	0,5	6,592400
2,875167	0,5	6,348100
2,883500	0,5	6,121100
2,891833	0,5	5,932750
2,900167	0,5	5,766550
2,908500	0,5	5,617150
2,916833	0,5	5,484850
2,925167	0,5	5,364500
2,933500	0,5	5,253100
2,941833	0,5	5,144900
2,950167	0,5	5,040850
2,958500	0,5	4,935250
2,966833	0,5	4,810500
2,975167	0,5	4,697850
2,983500	0,5	4,562850
2,991833	0,5	4,424900
3,000167	0,5	4,309250
3,008500	0,5	4,203500
3,016833	0,5	4,121000
3,025167	0,5	4,029650
3,033500	0,5	3,939500
3,041833	0,5	3,844350
3,050167	0,5	3,747650
3,058500	0,5	3,645150
3,066833	0,5	3,540900
3,075167	0,5	3,446750
3,083500	0,5	3,362000
3,091833	0,5	3,296600
3,100167	0,5	3,238350
3,108500	0,5	3,195200
3,116833	0,5	3,133650
3,125167	0,5	3,090950
3,133500	0,5	3,021250
3,141833	0,5	2,954400
3,150167	0,5	2,885350
3,158500	0,5	2,815450
3,166833	0,5	2,748800
3,175167	0,5	2,673800
3,183500	0,5	2,593650
3,191833	0,5	2,522000
3,200167	0,5	2,454850
3,208500	0,5	2,392800
3,216833	0,5	2,341100
3,225167	0,5	2,299950
3,233500	0,5	2,262400
3,241833	0,5	2,232950
3,250167	0,5	2,204600
3,258500	0,5	2,166600
3,266833	0,5	2,134150
3,275167	0,5	2,103700
3,283500	0,5	2,044900
3,291833	0,5	1,998650
3,300167	0,5	1,950550
3,308500	0,5	1,906350
3,316833	0,5	1,870850
3,325167	0,5	1,817600
3,333500	0,5	1,779750
3,341833	0,5	1,747100
3,350167	0,5	1,729100
3,358500	0,5	1,713000
3,366833	0,5	1,714650
3,375167	0,5	1,732100
3,383500	0,5	1,766300
3,391833	0,5	1,816050
3,400167	0,5	1,884250
3,408500	0,5	1,986150
3,416833	0,5	2,146700
3,425167	0,5	2,390800
3,433500	0,5	2,755100
3,441833	0,5	3,284100
3,450167	0,5	3,963050
3,458500	0,5	4,767300
3,466833	0,5	5,585200
3,475167	0,5	6,323850
3,483500	0,5	6,930100
3,491833	0,5	7,468200
3,500167	0,5	8,048900
3,508500	0,5	8,832550
3,516833	0,5	9,882900
3,525167	0,5	11,144350
3,533500	0,5	12,380000
3,541833	0,5	13,277050
3,550167	0,5	13,547950
3,558500	0,5	13,072000
3,566833	0,5	11,926050
3,575167	0,5	10,300750
3,583500	0,5	8,498500
3,591833	0,5	6,796600
3,600167	0,5	5,346250
3,608500	0,5	4,237950
3,616833	0,5	3,435700
3,625167	0,5	2,887400
3,633500	0,5	2,538450
3,641833	0,5	2,309850
3,650167	0,5	2,161100
3,658500	0,5	2,052800
3,666833	0,5	1,978300
3,675167	0,5	1,935250
3,683500	0,5	1,931050
3,691833	0,5	1,967500
3,700167	0,5	2,040700
3,708500	0,5	2,138100
3,716833	0,5	2,236200
3,725167	0,5	2,273300
3,733500	0,5	2,265700
3,741833	0,5	2,201700
3,750167	0,5	2,087700
3,758500	0,5	1,942600
3,766833	0,5	1,770750
3,775167	0,5	1,609000
3,783500	0,5	1,469450
3,791833	0,5	1,352450
3,800167	0,5	1,254100
3,808500	0,5	1,175650
3,816833	0,5	1,105300
3,825167	0,5	1,049850
3,833500	0,5	0,999300
3,841833	0,5	0,962300
3,850167	0,5	0,920300
3,858500	0,5	0,906300
3,866833	0,5	0,889650
3,875167	0,5	0,872050
3,883500	0,5	0,858500
3,891833	0,5	0,859550
3,900167	0,5	0,865700
3,908500	0,5	0,878450
3,916833	0,5	0,881750
3,925167	0,5	0,888350
3,933500	0,5	0,891200
3,941833	0,5	0,896200
3,950167	0,5	0,898350
3,958500	0,5	0,899000
3,966833	0,5	0,896750
3,975167	0,5	0,895300
3,983500	0,5	0,901900
3,991833	0,5	0,897950
4,000167	0,5	0,898500
4,008500	0,5	0,908800
4,016833	0,5	0,914000
4,025167	0,5	0,911250
4,033500	0,5	0,915550
4,041833	0,5	0,922550
4,050167	0,5	0,944150
4,058500	0,5	0,953650
4,066833	0,5	0,964700
4,075167	0,5	0,977550
4,083500	0,5	0,995550
4,091833	0,5	1,003050
4,100167	0,5	1,011600
4,108500	0,5	1,017400
4,116833	0,5	1,016700
4,125167	0,5	1,017950
4,133500	0,5	1,014500
4,141833	0,5	1,019850
4,150167	0,5	1,015850
4,158500	0,5	1,036350
4,166833	0,5	1,044400
4,175167	0,5	1,075800
4,183500	0,5	1,125250
4,191833	0,5	1,207050
4,200167	0,5	1,323650
4,208500	0,5	1,486200
4,216833	0,5	1,712050
4,225167	0,5	2,032200
4,233500	0,5	2,462100
4,241833	0,5	3,032500
4,250167	0,5	3,724350
4,258500	0,5	4,516000
4,266833	0,5	5,322200
4,275167	0,5	6,055600
4,283500	0,5	6,605250
4,291833	0,5	6,889400
4,300167	0,5	6,880350
4,308500	0,5	6,604700
4,316833	0,5	6,085500
4,325167	0,5	5,447300
4,333500	0,5	4,760100
4,341833	0,5	4,106300
4,350167	0,5	3,520100
4,358500	0,5	3,011000
4,366833	0,5	2,601250
4,375167	0,5	2,266800
4,383500	0,5	2,008400
4,391833	0,5	1,798200
4,400167	0,5	1,640100
4,408500	0,5	1,503500
4,416833	0,5	1,398700
4,425167	0,5	1,311500
4,433500	0,5	1,231950
4,441833	0,5	1,165150
4,450167	0,5	1,114450
4,458500	0,5	1,060850
4,466833	0,5	1,010600
4,475167	0,5	0,974250
4,483500	0,5	0,943200
4,491833	0,5	0,926750
4,500167	0,5	0,915450
4,508500	0,5	0,897700
4,516833	0,5	0,870150
4,525167	0,5	0,843150
4,533500	0,5	0,808700
4,541833	0,5	0,783650
4,550167	0,5	0,753050
4,558500	0,5	0,731700
4,566833	0,5	0,712450
4,575167	0,5	0,696350
4,583500	0,5	0,676350
4,591833	0,5	0,672750
4,600167	0,5	0,674850
4,608500	0,5	0,659650
4,616833	0,5	0,641500
4,625167	0,5	0,630000
4,633500	0,5	0,618400
4,641833	0,5	0,612150
4,650167	0,5	0,598650
4,658500	0,5	0,579850
4,666833	0,5	0,565800
4,675167	0,5	0,554350
4,683500	0,5	0,541300
4,691833	0,5	0,533800
4,700167	0,5	0,527450
4,708500	0,5	0,517950
4,716833	0,5	0,510800
4,725167	0,5	0,503250
4,733500	0,5	0,491800
4,741833	0,5	0,488250
4,750167	0,5	0,495100
4,758500	0,5	0,479950
4,766833	0,5	0,475650
4,775167	0,5	0,471350
4,783500	0,5	0,479650
4,791833	0,5	0,492600
4,800167	0,5	0,500700
4,808500	0,5	0,505850
4,816833	0,5	0,526150
4,825167	0,5	0,551200
4,833500	0,5	0,588700
4,841833	0,5	0,631800
4,850167	0,5	0,683600
4,858500	0,5	0,739400
4,866833	0,5	0,806650
4,875167	0,5	0,870650
4,883500	0,5	0,911700
4,891833	0,5	0,964250
4,900167	0,5	0,986550
4,908500	0,5	0,989150
4,916833	0,5	0,982600
4,925167	0,5	0,974250
4,933500	0,5	0,966400
4,941833	0,5	0,963000
4,950167	0,5	0,943350
4,958500	0,5	0,944400
4,966833	0,5	0,932800
4,975167	0,5	0,934800
4,983500	0,5	0,930200
4,991833	0,5	0,936550
5,000167	0,5	0,940850
5,008500	0,5	0,941700
5,016833	0,5	0,945450
5,025167	0,5	0,940500
5,033500	0,5	0,930500
5,041833	0,5	0,925750
5,050167	0,5	0,897950
5,058500	0,5	0,857650
5,066833	0,5	0,813150
5,075167	0,5	0,766650
5,083500	0,5	0,725450
5,091833	0,5	0,676550
5,100167	0,5	0,630100
5,108500	0,5	0,591100
5,116833	0,5	0,562700
5,125167	0,5	0,539550
5,133500	0,5	0,527350
5,141833	0,5	0,514200
5,150167	0,5	0,510800
5,158500	0,5	0,507800
5,166833	0,5	0,509550
5,175167	0,5	0,509150
5,183500	0,5	0,504150
5,191833	0,5	0,509700
5,200167	0,5	0,496750
5,208500	0,5	0,488300
5,216833	0,5	0,476800
5,225167	0,5	0,473900
5,233500	0,5	0,474450
5,241833	0,5	0,466350
5,250167	0,5	0,456750
5,258500	0,5	0,447650
5,266833	0,5	0,440900
5,275167	0,5	0,439050
5,283500	0,5	0,433400
5,291833	0,5	0,436700
5,300167	0,5	0,432850
5,308500	0,5	0,439400
5,316833	0,5	0,438850
5,325167	0,5	0,440150
5,333500	0,5	0,442050
5,341833	0,5	0,441900
5,350167	0,5	0,429750
5,358500	0,5	0,422400
5,366833	0,5	0,414150
5,375167	0,5	0,412000
5,383500	0,5	0,412850
5,391833	0,5	0,408400
5,400167	0,5	0,402750
5,408500	0,5	0,402100
5,416833	0,5	0,402200
5,425167	0,5	0,404100
5,433500	0,5	0,411200
5,441833	0,5	0,414550
5,450167	0,5	0,430400
5,458500	0,5	0,444150
5,466833	0,5	0,465700
5,475167	0,5	0,494700
5,483500	0,5	0,541250
5,491833	0,5	0,582650
5,500167	0,5	0,629900
5,508500	0,5	0,677850
5,516833	0,5	0,722400
5,525167	0,5	0,759050
5,533500	0,5	0,777350
5,541833	0,5	0,770550
5,550167	0,5	0,748650
5,558500	0,5	0,707300
5,566833	0,5	0,666200
5,575167	0,5	0,612300
5,583500	0,5	0,562300
5,591833	0,5	0,519200
5,600167	0,5	0,483700
5,608500	0,5	0,457200
5,616833	0,5	0,434000
5,625167	0,5	0,418200
5,633500	0,5	0,420000
5,641833	0,5	0,414700
5,650167	0,5	0,411000
5,658500	0,5	0,416300
5,666833	0,5	0,421600
5,675167	0,5	0,441900
5,683500	0,5	0,448550
5,691833	0,5	0,451150
5,700167	0,5	0,447400
5,708500	0,5	0,450650
5,716833	0,5	0,445900
5,725167	0,5	0,441250
5,733500	0,5	0,432450
5,741833	0,5	0,428450
5,750167	0,5	0,418900
5,758500	0,5	0,413200
5,766833	0,5	0,408400
5,775167	0,5	0,409950
5,783500	0,5	0,419400
5,791833	0,5	0,427200
5,800167	0,5	0,450850
5,808500	0,5	0,486950
5,816833	0,5	0,532400
5,825167	0,5	0,576150
5,833500	0,5	0,615050
5,841833	0,5	0,637650
5,850167	0,5	0,648650
5,858500	0,5	0,638150
5,866833	0,5	0,614950
5,875167	0,5	0,573650
5,883500	0,5	0,536600
5,891833	0,5	0,493150
5,900167	0,5	0,461750
5,908500	0,5	0,438900
5,916833	0,5	0,423050
5,925167	0,5	0,428150
5,933500	0,5	0,429300
5,941833	0,5	0,430550
5,950167	0,5	0,434250
5,958500	0,5	0,439950
5,966833	0,5	0,445850
5,975167	0,5	0,449100
5,983500	0,5	0,440850
5,991833	0,5	0,436250
6,000167	0,5	0,428250
6,008500	0,5	0,422650
6,016833	0,5	0,415900
6,025167	0,5	0,402250
6,033500	0,5	0,385450
6,041833	0,5	0,368650
6,050167	0,5	0,343400
6,058500	0,5	0,316450
6,066833	0,5	0,287900
6,075167	0,5	0,272500
6,083500	0,5	0,247550
6,091833	0,5	0,233150
6,100167	0,5	0,222150
6,108500	0,5	0,221650
6,116833	0,5	0,226700
6,125167	0,5	0,233300
6,133500	0,5	0,243450
6,141833	0,5	0,259950
6,150167	0,5	0,284450
6,158500	0,5	0,314550
6,166833	0,5	0,348100
6,175167	0,5	0,380850
6,183500	0,5	0,410050
6,191833	0,5	0,437300
6,200167	0,5	0,455200
6,208500	0,5	0,453000
6,216833	0,5	0,454900
6,225167	0,5	0,444800
6,233500	0,5	0,429400
6,241833	0,5	0,417300
6,250167	0,5	0,408750
6,258500	0,5	0,417500
6,266833	0,5	0,442000
6,275167	0,5	0,480900
6,283500	0,5	0,528400
6,291833	0,5	0,594100
6,300167	0,5	0,666500
6,308500	0,5	0,740550
6,316833	0,5	0,801550
6,325167	0,5	0,847450
6,333500	0,5	0,868300
6,341833	0,5	0,868950
6,350167	0,5	0,841500
6,358500	0,5	0,799900
6,366833	0,5	0,760150
6,375167	0,5	0,736450
6,383500	0,5	0,726250
6,391833	0,5	0,774150
6,400167	0,5	0,881100
6,408500	0,5	1,080850
6,416833	0,5	1,368750
6,425167	0,5	1,760400
6,433500	0,5	2,253500
6,441833	0,5	2,839900
6,450167	0,5	3,492050
6,458500	0,5	4,184450
6,466833	0,5	4,895550
6,475167	0,5	5,605500
6,483500	0,5	6,312700
6,491833	0,5	7,028750
6,500167	0,5	7,797450
6,508500	0,5	8,697950
6,516833	0,5	9,856650
6,525167	0,5	11,475350
6,533500	0,5	13,915900
6,541833	0,5	17,723850
6,550167	0,5	23,625950
6,558500	0,5	32,469450
6,566833	0,5	44,835801
6,575167	0,5	60,611201
6,583500	0,5	78,680301
6,591833	0,5	96,855051
6,600167	0,5	112,592052
6,608500	0,5	123,629252
6,616833	0,5	128,804852
6,625167	0,5	128,086152
6,633500	0,5	122,444952
6,641833	0,5	113,329952
6,650167	0,5	102,232202
6,658500	0,5	90,522851
6,666833	0,5	79,078151
6,675167	0,5	68,245351
6,683500	0,5	58,162051
6,691833	0,5	48,796701
6,700167	0,5	40,132201
6,708500	0,5	32,349750
6,716833	0,5	25,639700
6,725167	0,5	20,149050
6,733500	0,5	15,838600
6,741833	0,5	12,583850
6,750167	0,5	10,172850
6,758500	0,5	8,411050
6,766833	0,5	7,117350
6,775167	0,5	6,150950
6,783500	0,5	5,412350
6,791833	0,5	4,831050
6,800167	0,5	4,355750
6,808500	0,5	3,967050
6,816833	0,5	3,644350
6,825167	0,5	3,360650
6,833500	0,5	3,129800
6,841833	0,5	2,934250
6,850167	0,5	2,778200
6,858500	0,5	2,646900
6,866833	0,5	2,528950
6,875167	0,5	2,425900
6,883500	0,5	2,332500
6,891833	0,5	2,242150
6,900167	0,5	2,152400
6,908500	0,5	2,056200
6,916833	0,5	1,957050
6,925167	0,5	1,855000
6,933500	0,5	1,757550
6,941833	0,5	1,669950
6,950167	0,5	1,584750
6,958500	0,5	1,511950
6,966833	0,5	1,447100
6,975167	0,5	1,386400
6,983500	0,5	1,342350
6,991833	0,5	1,301350
7,000167	0,5	1,280950
7,008500	0,5	1,263850
7,016833	0,5	1,252100
7,025167	0,5	1,251600
7,033500	0,5	1,264500
7,041833	0,5	1,287100
7,050167	0,5	1,287750
7,058500	0,5	1,370200
7,066833	0,5	1,411350
7,075167	0,5	1,462600
7,083500	0,5	1,510150
7,091833	0,5	1,549050
7,100167	0,5	1,581300
7,108500	0,5	1,610300
7,116833	0,5	1,631450
7,125167	0,5	1,647900
7,133500	0,5	1,667000
7,141833	0,5	1,679750
7,150167	0,5	1,685900
7,158500	0,5	1,667900
7,166833	0,5	1,627550
7,175167	0,5	1,567950
7,183500	0,5	1,493000
7,191833	0,5	1,406450
7,200167	0,5	1,321950
7,208500	0,5	1,244600
7,216833	0,5	1,174100
7,225167	0,5	1,116750
7,233500	0,5	1,065100
7,241833	0,5	1,018350
7,250167	0,5	0,984200
7,258500	0,5	0,950850
7,266833	0,5	0,921300
7,275167	0,5	0,895050
7,283500	0,5	0,880150
7,291833	0,5	0,868300
7,300167	0,5	0,878400
7,308500	0,5	0,888550
7,316833	0,5	0,915000
7,325167	0,5	0,947500
7,333500	0,5	0,989500
7,341833	0,5	1,037350
7,350167	0,5	1,082350
7,358500	0,5	1,113100
7,366833	0,5	1,145400
7,375167	0,5	1,171800
7,383500	0,5	1,200050
7,391833	0,5	1,241050
7,400167	0,5	1,318050
7,408500	0,5	1,423750
7,416833	0,5	1,546700
7,425167	0,5	1,689850
7,433500	0,5	1,819050
7,441833	0,5	1,923150
7,450167	0,5	1,972250
7,458500	0,5	1,956450
7,466833	0,5	1,881150
7,475167	0,5	1,757050
7,483500	0,5	1,605700
7,491833	0,5	1,450300
7,500167	0,5	1,304650
7,508500	0,5	1,187200
7,516833	0,5	1,091650
7,525167	0,5	1,026200
7,533500	0,5	0,977450
7,541833	0,5	0,948750
7,550167	0,5	0,935400
7,558500	0,5	0,937700
7,566833	0,5	0,954350
7,575167	0,5	0,990550
7,583500	0,5	1,036700
7,591833	0,5	1,092950
7,600167	0,5	1,141050
7,608500	0,5	1,176250
7,616833	0,5	1,200450
7,625167	0,5	1,200850
7,633500	0,5	1,193050
7,641833	0,5	1,175050
7,650167	0,5	1,152450
7,658500	0,5	1,125050
7,666833	0,5	1,106050
7,675167	0,5	1,085800
7,683500	0,5	1,071250
7,691833	0,5	1,065450
7,700167	0,5	1,075900
7,708500	0,5	1,096550
7,716833	0,5	1,124000
7,725167	0,5	1,168600
7,733500	0,5	1,222750
7,741833	0,5	1,284000
7,750167	0,5	1,319500
7,758500	0,5	1,333000
7,766833	0,5	1,310200
7,775167	0,5	1,261700
7,783500	0,5	1,198200
7,791833	0,5	1,136050
7,800167	0,5	1,086900
7,808500	0,5	1,050000
7,816833	0,5	1,019600
7,825167	0,5	1,000150
7,833500	0,5	0,983050
7,841833	0,5	0,967400
7,850167	0,5	0,963450
7,858500	0,5	0,964800
7,866833	0,5	0,977750
7,875167	0,5	0,996750
7,883500	0,5	1,021900
7,891833	0,5	1,057700
7,900167	0,5	1,098100
7,908500	0,5	1,142750
7,916833	0,5	1,194800
7,925167	0,5	1,248750
7,933500	0,5	1,305100
7,941833	0,5	1,358000
7,950167	0,5	1,407600
7,958500	0,5	1,440750
7,966833	0,5	1,458200
7,975167	0,5	1,449500
7,983500	0,5	1,424400
7,991833	0,5	1,396300
8,000167	0,5	1,373550
8,008500	0,5	1,363200
8,016833	0,5	1,360100
8,025167	0,5	1,358650
8,033500	0,5	1,353200
8,041833	0,5	1,335200
8,050167	0,5	1,308100
8,058500	0,5	1,272000
8,066833	0,5	1,233000
8,075167	0,5	1,199950
8,083500	0,5	1,169300
8,091833	0,5	1,148900
8,100167	0,5	1,137950
8,108500	0,5	1,145950
8,116833	0,5	1,171850
8,125167	0,5	1,230250
8,133500	0,5	1,315500
8,141833	0,5	1,418250
8,150167	0,5	1,521550
8,158500	0,5	1,592500
8,166833	0,5	1,622900
8,175167	0,5	1,596750
8,183500	0,5	1,533800
8,191833	0,5	1,444850
8,200167	0,5	1,358700
8,208500	0,5	1,296600
8,216833	0,5	1,257200
8,225167	0,5	1,249850
8,233500	0,5	1,256250
8,241833	0,5	1,268850
8,250167	0,5	1,283800
8,258500	0,5	1,288150
8,266833	0,5	1,290100
8,275167	0,5	1,294300
8,283500	0,5	1,314950
8,291833	0,5	1,352500
8,300167	0,5	1,424350
8,308500	0,5	1,551850
8,316833	0,5	1,755350
8,325167	0,5	2,073150
8,333500	0,5	2,520750
8,341833	0,5	3,107900
8,350167	0,5	3,821500
8,358500	0,5	4,644000
8,366833	0,5	5,564800
8,375167	0,5	6,574950
8,383500	0,5	7,729650
8,391833	0,5	9,154900
8,400167	0,5	11,175750
8,408500	0,5	14,390750
8,416833	0,5	19,785400
8,425167	0,5	28,547050
8,433500	0,5	41,596501
8,441833	0,5	58,745651
8,450167	0,5	78,241701
8,458500	0,5	97,104351
8,466833	0,5	112,187652
8,475167	0,5	121,283852
8,483500	0,5	123,401652
8,491833	0,5	118,624502
8,500167	0,5	107,737502
8,508500	0,5	92,362951
8,516833	0,5	74,828651
8,525167	0,5	57,677601
8,533500	0,5	42,761101
8,541833	0,5	30,922550
8,550167	0,5	22,166650
8,558500	0,5	16,045150
8,566833	0,5	11,939000
8,575167	0,5	9,268500
8,583500	0,5	7,559450
8,591833	0,5	6,458300
8,600167	0,5	5,725850
8,608500	0,5	5,214950
8,616833	0,5	4,831950
8,625167	0,5	4,514050
8,633500	0,5	4,227400
8,641833	0,5	3,948450
8,650167	0,5	3,675850
8,658500	0,5	3,420000
8,666833	0,5	3,196500
8,675167	0,5	3,024800
8,683500	0,5	2,915400
8,691833	0,5	2,860350
8,700167	0,5	2,843650
8,708500	0,5	2,848600
8,716833	0,5	2,849950
8,725167	0,5	2,825050
8,733500	0,5	2,776650
8,741833	0,5	2,702000
8,750167	0,5	2,620700
8,758500	0,5	2,544250
8,766833	0,5	2,472000
8,775167	0,5	2,397850
8,783500	0,5	2,311650
8,791833	0,5	2,216700
8,800167	0,5	2,117600
8,808500	0,5	2,030900
8,816833	0,5	1,967350
8,825167	0,5	1,927550
8,833500	0,5	1,915950
8,841833	0,5	1,905650
8,850167	0,5	1,898750
8,858500	0,5	1,876700
8,866833	0,5	1,842450
8,875167	0,5	1,801550
8,883500	0,5	1,756000
8,891833	0,5	1,714250
8,900167	0,5	1,676150
8,908500	0,5	1,644100
8,916833	0,5	1,615350
8,925167	0,5	1,595300
8,933500	0,5	1,578800
8,941833	0,5	1,563300
8,950167	0,5	1,540900
8,958500	0,5	1,511150
8,966833	0,5	1,474550
8,975167	0,5	1,426450
8,983500	0,5	1,383350
8,991833	0,5	1,351500
9,000167	0,5	1,323750
9,008500	0,5	1,304400
9,016833	0,5	1,290050
9,025167	0,5	1,278600
9,033500	0,5	1,267800
9,041833	0,5	1,256250
9,050167	0,5	1,251500
9,058500	0,5	1,240900
9,066833	0,5	1,234300
9,075167	0,5	1,239800
9,083500	0,5	1,243950
9,091833	0,5	1,243900
9,100167	0,5	1,243800
9,108500	0,5	1,245200
9,116833	0,5	1,242500
9,125167	0,5	1,239950
9,133500	0,5	1,246000
9,141833	0,5	1,259650
9,150167	0,5	1,292700
9,158500	0,5	1,340550
9,166833	0,5	1,410600
9,175167	0,5	1,487850
9,183500	0,5	1,568250
9,191833	0,5	1,628950
9,200167	0,5	1,652600
9,208500	0,5	1,636050
9,216833	0,5	1,577100
9,225167	0,5	1,497800
9,233500	0,5	1,411450
9,241833	0,5	1,329450
9,250167	0,5	1,268000
9,258500	0,5	1,219550
9,266833	0,5	1,188300
9,275167	0,5	1,163850
9,283500	0,5	1,147250
9,291833	0,5	1,130150
9,300167	0,5	1,113600
9,308500	0,5	1,100100
9,316833	0,5	1,083650
9,325167	0,5	1,071850
9,333500	0,5	1,060600
9,341833	0,5	1,052600
9,350167	0,5	1,050450
9,358500	0,5	1,055800
9,366833	0,5	1,066900
9,375167	0,5	1,081500
9,383500	0,5	1,097750
9,391833	0,5	1,110050
9,400167	0,5	1,117700
9,408500	0,5	1,117700
9,416833	0,5	1,107850
9,425167	0,5	1,094650
9,433500	0,5	1,079050
9,441833	0,5	1,069650
9,450167	0,5	1,060400
9,458500	0,5	1,055000
9,466833	0,5	1,051600
9,475167	0,5	1,049900
9,483500	0,5	1,048350
9,491833	0,5	1,041350
9,500167	0,5	1,039650
9,508500	0,5	1,032700
9,516833	0,5	1,033300
9,525167	0,5	1,030800
9,533500	0,5	1,033850
9,541833	0,5	1,033350
9,550167	0,5	1,041000
9,558500	0,5	1,046150
9,566833	0,5	1,064350
9,575167	0,5	1,080550
9,583500	0,5	1,099100
9,591833	0,5	1,121500
9,600167	0,5	1,135350
9,608500	0,5	1,143400
9,616833	0,5	1,146650
9,625167	0,5	1,164100
9,633500	0,5	1,189950
9,641833	0,5	1,231950
9,650167	0,5	1,294400
9,658500	0,5	1,372650
9,666833	0,5	1,454600
9,675167	0,5	1,525300
9,683500	0,5	1,579700
9,691833	0,5	1,607500
9,700167	0,5	1,603200
9,708500	0,5	1,572600
9,716833	0,5	1,525700
9,725167	0,5	1,471550
9,733500	0,5	1,413250
9,741833	0,5	1,359650
9,750167	0,5	1,307100
9,758500	0,5	1,263050
9,766833	0,5	1,223050
9,775167	0,5	1,192850
9,783500	0,5	1,168300
9,791833	0,5	1,159150
9,800167	0,5	1,170950
9,808500	0,5	1,220100
9,816833	0,5	1,295700
9,825167	0,5	1,402850
9,833500	0,5	1,521950
9,841833	0,5	1,635950
9,850167	0,5	1,711850
9,858500	0,5	1,735950
9,866833	0,5	1,708550
9,875167	0,5	1,631700
9,883500	0,5	1,536550
9,891833	0,5	1,440650
9,900167	0,5	1,362950
9,908500	0,5	1,300200
9,916833	0,5	1,264450
9,925167	0,5	1,237200
9,933500	0,5	1,212850
9,941833	0,5	1,178250
9,950167	0,5	1,136500
9,958500	0,5	1,092400
9,966833	0,5	1,045300
9,975167	0,5	1,004700
9,983500	0,5	0,973150
9,991833	0,5	0,956050
10,000167	0,5	0,947650
10,008500	0,5	0,951150
10,016833	0,5	0,960800
10,025167	0,5	0,973050
10,033500	0,5	0,987250
10,041833	0,5	1,003400
10,050167	0,5	1,010350
10,058500	0,5	1,013150
10,066833	0,5	1,016250
10,075167	0,5	1,015650
10,083500	0,5	1,015700
10,091833	0,5	1,028400
10,100167	0,5	1,048800
10,108500	0,5	1,087150
10,116833	0,5	1,129950
10,125167	0,5	1,179750
10,133500	0,5	1,225050
10,141833	0,5	1,270100
10,150167	0,5	1,316550
10,158500	0,5	1,378700
10,166833	0,5	1,461500
10,175167	0,5	1,575550
10,183500	0,5	1,712900
10,191833	0,5	1,874100
10,200167	0,5	2,041350
10,208500	0,5	2,196450
10,216833	0,5	2,328600
10,225167	0,5	2,420500
10,233500	0,5	2,459750
10,241833	0,5	2,431150
10,250167	0,5	2,349700
10,258500	0,5	2,228200
10,266833	0,5	2,077150
10,275167	0,5	1,925200
10,283500	0,5	1,795700
10,291833	0,5	1,719450
10,300167	0,5	1,705500
10,308500	0,5	1,764250
10,316833	0,5	1,890650
10,325167	0,5	2,044950
10,333500	0,5	2,197750
10,341833	0,5	2,293600
10,350167	0,5	2,301650
10,358500	0,5	2,219200
10,366833	0,5	2,054150
10,375167	0,5	1,839250
10,383500	0,5	1,615250
10,391833	0,5	1,407500
10,400167	0,5	1,239600
10,408500	0,5	1,118150
10,416833	0,5	1,031850
10,425167	0,5	0,985500
10,433500	0,5	0,961050
10,441833	0,5	0,959650
10,450167	0,5	0,962700
10,458500	0,5	0,980550
10,466833	0,5	1,002250
10,475167	0,5	1,030350
10,483500	0,5	1,058850
10,491833	0,5	1,088700
10,500167	0,5	1,105600
10,508500	0,5	1,125250
10,516833	0,5	1,120900
10,525167	0,5	1,097050
10,533500	0,5	1,060800
10,541833	0,5	1,012650
10,550167	0,5	0,969950
10,558500	0,5	0,924550
10,566833	0,5	0,886600
10,575167	0,5	0,854000
10,583500	0,5	0,820100
10,591833	0,5	0,786500
10,600167	0,5	0,759500
10,608500	0,5	0,734400
10,616833	0,5	0,725350
10,625167	0,5	0,718750
10,633500	0,5	0,728250
10,641833	0,5	0,744700
10,650167	0,5	0,768950
10,658500	0,5	0,799750
10,666833	0,5	0,841350
10,675167	0,5	0,887300
10,683500	0,5	0,940000
10,691833	0,5	1,008200
10,700167	0,5	1,106050
10,708500	0,5	1,227600
10,716833	0,5	1,369300
10,725167	0,5	1,504300
10,733500	0,5	1,615700
10,741833	0,5	1,668900
10,750167	0,5	1,653250
10,758500	0,5	1,572800
10,766833	0,5	1,446600
10,775167	0,5	1,305500
10,783500	0,5	1,183050
10,791833	0,5	1,080450
10,800167	0,5	1,014350
10,808500	0,5	0,984700
10,816833	0,5	0,981850
10,825167	0,5	0,997600
10,833500	0,5	1,014850
10,841833	0,5	1,036700
10,850167	0,5	1,043150
10,858500	0,5	1,034700
10,866833	0,5	1,012750
10,875167	0,5	0,980400
10,883500	0,5	0,936350
10,891833	0,5	0,892400
10,900167	0,5	0,848400
10,908500	0,5	0,813000
10,916833	0,5	0,783600
10,925167	0,5	0,763600
10,933500	0,5	0,750950
10,941833	0,5	0,755250
10,950167	0,5	0,769150
10,958500	0,5	0,791800
10,966833	0,5	0,823400
10,975167	0,5	0,861700
10,983500	0,5	0,900950
10,991833	0,5	0,944950
11,000167	0,5	0,982450
11,008500	0,5	1,026400
11,016833	0,5	1,081300
11,025167	0,5	1,160600
11,033500	0,5	1,269400
11,041833	0,5	1,411150
11,050167	0,5	1,563750
11,058500	0,5	1,700900
11,066833	0,5	1,786000
11,075167	0,5	1,810600
11,083500	0,5	1,771150
11,091833	0,5	1,681950
11,100167	0,5	1,581350
11,108500	0,5	1,479100
11,116833	0,5	1,385350
11,125167	0,5	1,299950
11,133500	0,5	1,217700
11,141833	0,5	1,141750
11,150167	0,5	1,065400
11,158500	0,5	0,996550
11,166833	0,5	0,926200
11,175167	0,5	0,866700
11,183500	0,5	0,816900
11,191833	0,5	0,768950
11,200167	0,5	0,733350
11,208500	0,5	0,708150
11,216833	0,5	0,695000
11,225167	0,5	0,692050
11,233500	0,5	0,692200
11,241833	0,5	0,702150
11,250167	0,5	0,726150
11,258500	0,5	0,754500
11,266833	0,5	0,794950
11,275167	0,5	0,854650
11,283500	0,5	0,937650
11,291833	0,5	1,051250
11,300167	0,5	1,183150
11,308500	0,5	1,306950
11,316833	0,5	1,400350
11,325167	0,5	1,437700
11,333500	0,5	1,412700
11,341833	0,5	1,326200
11,350167	0,5	1,204950
11,358500	0,5	1,069150
11,366833	0,5	0,942650
11,375167	0,5	0,837700
11,383500	0,5	0,764750
11,391833	0,5	0,718150
11,400167	0,5	0,697850
11,408500	0,5	0,689350
11,416833	0,5	0,694600
11,425167	0,5	0,707900
11,433500	0,5	0,723700
11,441833	0,5	0,736100
11,450167	0,5	0,751350
11,458500	0,5	0,762650
11,466833	0,5	0,770300
11,475167	0,5	0,777800
11,483500	0,5	0,788150
11,491833	0,5	0,807000
11,500167	0,5	0,819600
11,508500	0,5	0,833200
11,516833	0,5	0,839000
11,525167	0,5	0,832400
11,533500	0,5	0,809000
11,541833	0,5	0,791350
11,550167	0,5	0,771650
11,558500	0,5	0,742550
11,566833	0,5	0,723100
11,575167	0,5	0,718300
11,583500	0,5	0,738250
11,591833	0,5	0,770400
11,600167	0,5	0,804250
11,608500	0,5	0,836600
11,616833	0,5	0,862550
11,625167	0,5	0,886600
11,633500	0,5	0,937100
11,641833	0,5	1,024550
11,650167	0,5	1,168700
11,658500	0,5	1,372050
11,666833	0,5	1,588850
11,675167	0,5	1,615100
11,683500	0,5	1,380450
11,691833	0,5	0,999100
11,700167	0,5	0,663700
11,708500	0,5	0,391150
11,716833	0,5	0,184900
11,725167	0,5	0,047250
11,733500	0,5	-0,038650
11,741833	0,5	-0,098550
11,750167	0,5	-0,140700
11,758500	0,5	-0,175850
11,766833	0,5	-0,204650
11,775167	0,5	-0,228050
11,783500	0,5	-0,245700
11,791833	0,5	-0,263100
11,800167	0,5	-0,277600
11,808500	0,5	-0,285950
11,816833	0,5	-0,291100
11,825167	0,5	-0,296300
11,833500	0,5	-0,294350
11,841833	0,5	-0,285100
11,850167	0,5	-0,278400
11,858500	0,5	-0,267900
11,866833	0,5	-0,259950
11,875167	0,5	-0,236600
11,883500	0,5	-0,218450
11,891833	0,5	-0,200200
11,900167	0,5	-0,180850
11,908500	0,5	-0,163650
11,916833	0,5	-0,155400
11,925167	0,5	-0,153100
11,933500	0,5	-0,158850
11,941833	0,5	-0,169200
11,950167	0,5	-0,181600
11,958500	0,5	-0,202650
11,966833	0,5	-0,214750
11,975167	0,5	-0,237900
11,983500	0,5	-0,250850
11,991833	0,5	-0,267650
12,000167	0,5	-0,283250
12,008500	0,5	-0,298950
12,016833	0,5	-0,319400
12,025167	0,5	-0,323400
12,033500	0,5	-0,325050
12,041833	0,5	-0,332650
12,050167	0,5	-0,335750
12,058500	0,5	-0,339350
12,066833	0,5	-0,334650
12,075167	0,5	-0,333300
12,083500	0,5	-0,333950
12,091833	0,5	-0,327650
12,100167	0,5	-0,323500
12,108500	0,5	-0,317600
12,116833	0,5	-0,313450
12,125167	0,5	-0,310850
12,133500	0,5	-0,305150
12,141833	0,5	-0,302400
12,150167	0,5	-0,297450
12,158500	0,5	-0,294750
12,166833	0,5	-0,292300
12,175167	0,5	-0,281950
12,183500	0,5	-0,276150
12,191833	0,5	-0,264250
12,200167	0,5	-0,257100
12,208500	0,5	-0,251300
12,216833	0,5	-0,247550
12,225167	0,5	-0,242400
12,233500	0,5	-0,242400
12,241833	0,5	-0,241900
12,250167	0,5	-0,239900
12,258500	0,5	-0,233400
12,266833	0,5	-0,232050
12,275167	0,5	-0,223650
12,283500	0,5	-0,213600
12,291833	0,5	-0,211350
12,300167	0,5	-0,204950
12,308500	0,5	-0,206050
12,316833	0,5	-0,205800
12,325167	0,5	-0,205950
12,333500	0,5	-0,200900
12,341833	0,5	-0,202800
12,350167	0,5	-0,203300
12,358500	0,5	-0,201850
12,366833	0,5	-0,200100
12,375167	0,5	-0,199950
12,383500	0,5	-0,197300
12,391833	0,5	-0,198500
12,400167	0,5	-0,189150
12,408500	0,5	-0,186900
12,416833	0,5	-0,184400
12,425167	0,5	-0,177700
12,433500	0,5	-0,169200
12,441833	0,5	-0,169500
12,450167	0,5	-0,165750
12,458500	0,5	-0,165050
12,466833	0,5	-0,162100
12,475167	0,5	-0,155300
12,483500	0,5	-0,152250
12,491833	0,5	-0,143150
12,500167	0,5	-0,139400
12,508500	0,5	-0,133450
12,516833	0,5	-0,124150
12,525167	0,5	-0,117700
12,533500	0,5	-0,112500
12,541833	0,5	-0,106150
12,550167	0,5	-0,095500
12,558500	0,5	-0,083450
12,566833	0,5	-0,077300
12,575167	0,5	-0,063950
12,583500	0,5	-0,055600
12,591833	0,5	-0,051400
12,600167	0,5	-0,048400
12,608500	0,5	-0,046700
12,616833	0,5	-0,041350
12,625167	0,5	-0,039400
12,633500	0,5	-0,032450
12,641833	0,5	-0,029250
12,650167	0,5	-0,024250
12,658500	0,5	-0,010100
12,666833	0,5	-0,001450
12,675167	0,5	0,007350
12,683500	0,5	0,020100
12,691833	0,5	0,038650
12,700167	0,5	0,058500
12,708500	0,5	0,065500
12,716833	0,5	0,085200
12,725167	0,5	0,107100
12,733500	0,5	0,128250
12,741833	0,5	0,147250
12,750167	0,5	0,165350
12,758500	0,5	0,190950
12,766833	0,5	0,222350
12,775167	0,5	0,243550
12,783500	0,5	0,263650
12,791833	0,5	0,287700
12,800167	0,5	0,308650
12,808500	0,5	0,325100
12,816833	0,5	0,338750
12,825167	0,5	0,347800
12,833500	0,5	0,347600
12,841833	0,5	0,348800
12,850167	0,5	0,340650
12,858500	0,5	0,319250
12,866833	0,5	0,307800
12,875167	0,5	0,294250
12,883500	0,5	0,274250
12,891833	0,5	0,260750
12,900167	0,5	0,240550
12,908500	0,5	0,236600
12,916833	0,5	0,232950
12,925167	0,5	0,229150
12,933500	0,5	0,222650
12,941833	0,5	0,225100
12,950167	0,5	0,217600
12,958500	0,5	0,216100
12,966833	0,5	0,213100
12,975167	0,5	0,205750
12,983500	0,5	0,207200
12,991833	0,5	0,209100
13,000167	0,5	0,211550
13,008500	0,5	0,206850
13,016833	0,5	0,213850
13,025167	0,5	0,214650
13,033500	0,5	0,215850
13,041833	0,5	0,211100
13,050167	0,5	0,211750
13,058500	0,5	0,215150
13,066833	0,5	0,226650
13,075167	0,5	0,221800
13,083500	0,5	0,225350
13,091833	0,5	0,229200
13,100167	0,5	0,233450
13,108500	0,5	0,236350
13,116833	0,5	0,242250
13,125167	0,5	0,243200
13,133500	0,5	0,250650
13,141833	0,5	0,253600
13,150167	0,5	0,255350
13,158500	0,5	0,252600
13,166833	0,5	0,257000
13,175167	0,5	0,247000
13,183500	0,5	0,240200
13,191833	0,5	0,230250
13,200167	0,5	0,222950
13,208500	0,5	0,223400
13,216833	0,5	0,216050
13,225167	0,5	0,221950
13,233500	0,5	0,218950
13,241833	0,5	0,217750
13,250167	0,5	0,214450
13,258500	0,5	0,217450
13,266833	0,5	0,214100
13,275167	0,5	0,209600
13,283500	0,5	0,212200
13,291833	0,5	0,214550
13,300167	0,5	0,205900
13,308500	0,5	0,209200
13,316833	0,5	0,211100
13,325167	0,5	0,212150
13,333500	0,5	0,210100
13,341833	0,5	0,211400
13,350167	0,5	0,224650
13,358500	0,5	0,247400
13,366833	0,5	0,282350
13,375167	0,5	0,320200
13,383500	0,5	0,377850
13,391833	0,5	0,430900
13,400167	0,5	0,484450
13,408500	0,5	0,518400
13,416833	0,5	0,534550
13,425167	0,5	0,527900
13,433500	0,5	0,506300
13,441833	0,5	0,459550
13,450167	0,5	0,415950
13,458500	0,5	0,373850
13,466833	0,5	0,338150
13,475167	0,5	0,307550
13,483500	0,5	0,287700
13,491833	0,5	0,268400
13,500167	0,5	0,259650
13,508500	0,5	0,253400
13,516833	0,5	0,237650
13,525167	0,5	0,231050
13,533500	0,5	0,222700
13,541833	0,5	0,215800
13,550167	0,5	0,215000
13,558500	0,5	0,222850
13,566833	0,5	0,229300
13,575167	0,5	0,250500
13,583500	0,5	0,278800
13,591833	0,5	0,312500
13,600167	0,5	0,357350
13,608500	0,5	0,419600
13,616833	0,5	0,472150
13,625167	0,5	0,515550
13,633500	0,5	0,536650
13,641833	0,5	0,538850
13,650167	0,5	0,517500
13,658500	0,5	0,475500
13,666833	0,5	0,417000
13,675167	0,5	0,367400
13,683500	0,5	0,325200
13,691833	0,5	0,294700
13,700167	0,5	0,279650
13,708500	0,5	0,275550
13,716833	0,5	0,288100
13,725167	0,5	0,310900
13,733500	0,5	0,329200
13,741833	0,5	0,335400
13,750167	0,5	0,346400
13,758500	0,5	0,346800
13,766833	0,5	0,354200
13,775167	0,5	0,370800
13,783500	0,5	0,404050
13,791833	0,5	0,470700
13,800167	0,5	0,547550
13,808500	0,5	0,611050
13,816833	0,5	0,651850
13,825167	0,5	0,661350
13,833500	0,5	0,637850
13,841833	0,5	0,583800
13,850167	0,5	0,516250
13,858500	0,5	0,453900
13,866833	0,5	0,397700
13,875167	0,5	0,365350
13,883500	0,5	0,341700
13,891833	0,5	0,308250
13,900167	0,5	0,294750
13,908500	0,5	0,271650
13,916833	0,5	0,249150
13,925167	0,5	0,242100
13,933500	0,5	0,247650
13,941833	0,5	0,288100
13,950167	0,5	0,347400
13,958500	0,5	0,417400
13,966833	0,5	0,481200
13,975167	0,5	0,532050
13,983500	0,5	0,554600
13,991833	0,5	0,553900
14,000167	0,5	0,520700
14,008500	0,5	0,474700
14,016833	0,5	0,419250
14,025167	0,5	0,363250
14,033500	0,5	0,306850
14,041833	0,5	0,253700
14,050167	0,5	0,226050
14,058500	0,5	0,200550
14,066833	0,5	0,190850
14,075167	0,5	0,196650
14,083500	0,5	0,228500
14,091833	0,5	0,278500
14,100167	0,5	0,344950
14,108500	0,5	0,402000
14,116833	0,5	0,442600
14,125167	0,5	0,455800
14,133500	0,5	0,453650
14,141833	0,5	0,416800
14,150167	0,5	0,372150
14,158500	0,5	0,304250
14,166833	0,5	0,254900
14,175167	0,5	0,202400
14,183500	0,5	0,167300
14,191833	0,5	0,151650
14,200167	0,5	0,154800
14,208500	0,5	0,162050
14,216833	0,5	0,183650
14,225167	0,5	0,207350
14,233500	0,5	0,227050
14,241833	0,5	0,255050
14,250167	0,5	0,257550
14,258500	0,5	0,254850
14,266833	0,5	0,235750
14,275167	0,5	0,205200
14,283500	0,5	0,175100
14,291833	0,5	0,140350
14,300167	0,5	0,109650
14,308500	0,5	0,089050
14,316833	0,5	0,085950
14,325167	0,5	0,080650
14,333500	0,5	0,077050
14,341833	0,5	0,091400
14,350167	0,5	0,105350
14,358500	0,5	0,106500
14,366833	0,5	0,102200
14,375167	0,5	0,094550
14,383500	0,5	0,090400
14,391833	0,5	0,081150
14,400167	0,5	0,078200
14,408500	0,5	0,073000
14,416833	0,5	0,083950
14,425167	0,5	0,095500
14,433500	0,5	0,122750
14,441833	0,5	0,149850
14,450167	0,5	0,182800
14,458500	0,5	0,197500
14,466833	0,5	0,212700
14,475167	0,5	0,198850
14,483500	0,5	0,179350
14,491833	0,5	0,153700
14,500167	0,5	0,112650
14,508500	0,5	0,072300
14,516833	0,5	0,038100
14,525167	0,5	0,010500
14,533500	0,5	-0,000400
14,541833	0,5	-0,013700
14,550167	0,5	-0,017850
14,558500	0,5	-0,018400
14,566833	0,5	-0,016450
14,575167	0,5	-0,008450
14,583500	0,5	0,000000
14,591833	0,5	0,003450
14,600167	0,5	0,003450
14,608500	0,5	-0,003500
14,616833	0,5	-0,007450
14,625167	0,5	-0,023100
14,633500	0,5	-0,027500
14,641833	0,5	-0,032300
14,650167	0,5	-0,035050
14,658500	0,5	-0,043900
14,666833	0,5	-0,052400
14,675167	0,5	-0,044600
14,683500	0,5	-0,030000
14,691833	0,5	-0,026000
14,700167	0,5	-0,021900
14,708500	0,5	-0,017050
14,716833	0,5	-0,016200
14,725167	0,5	-0,023850
14,733500	0,5	-0,029250
14,741833	0,5	-0,047600
14,750167	0,5	-0,057550
14,758500	0,5	-0,077950
14,766833	0,5	-0,073750
14,775167	0,5	-0,084550
14,783500	0,5	-0,072050
14,791833	0,5	-0,069300
14,800167	0,5	-0,061800
14,808500	0,5	-0,060050
14,816833	0,5	-0,060450
14,825167	0,5	-0,048350
14,833500	0,5	-0,047450
14,841833	0,5	-0,044300
14,850167	0,5	-0,046200
14,858500	0,5	-0,053600
14,866833	0,5	-0,055950
14,875167	0,5	-0,060550
14,883500	0,5	-0,064600
14,891833	0,5	-0,070800
14,900167	0,5	-0,081250
14,908500	0,5	-0,087600
14,916833	0,5	-0,097250
14,925167	0,5	-0,109800
14,933500	0,5	-0,106350
14,941833	0,5	-0,109850
14,950167	0,5	-0,118450
14,958500	0,5	-0,123600
14,966833	0,5	-0,134550
14,975167	0,5	-0,122150
14,983500	0,5	-0,124750
14,991833	0,5	-0,113150
15,000167	0,5	-0,110400
15,008500	0,5	-0,100950
15,016833	0,5	-0,094800
15,025167	0,5	-0,089250
15,033500	0,5	-0,090550
15,041833	0,5	-0,096200
15,050167	0,5	-0,102950
15,058500	0,5	-0,109450
15,066833	0,5	-0,118100
15,075167	0,5	-0,129500
15,083500	0,5	-0,127800
15,091833	0,5	-0,135850
15,100167	0,5	-0,148600
15,108500	0,5	-0,158650
15,116833	0,5	-0,164800
15,125167	0,5	-0,164650
15,133500	0,5	-0,160300
15,141833	0,5	-0,161900
15,150167	0,5	-0,160650
15,158500	0,5	-0,166450
15,166833	0,5	-0,161950
15,175167	0,5	-0,160750
15,183500	0,5	-0,155450
15,191833	0,5	-0,154000
15,200167	0,5	-0,148050
15,208500	0,5	-0,149450
15,216833	0,5	-0,151100
15,225167	0,5	-0,144900
15,233500	0,5	-0,142400
15,241833	0,5	-0,144300
15,250167	0,5	-0,153700
15,258500	0,5	-0,160800
15,266833	0,5	-0,166000
15,275167	0,5	-0,165250
15,283500	0,5	-0,177350
15,291833	0,5	-0,178900
15,300167	0,5	-0,190100
15,308500	0,5	-0,190450
15,316833	0,5	-0,194900
15,325167	0,5	-0,192100
15,333500	0,5	-0,192500
15,341833	0,5	-0,192350
15,350167	0,5	-0,190750
15,358500	0,5	-0,193650
15,366833	0,5	-0,192700
15,375167	0,5	-0,185350
15,383500	0,5	-0,181700
15,391833	0,5	-0,181850
15,400167	0,5	-0,188000
15,408500	0,5	-0,187850
15,416833	0,5	-0,181450
15,425167	0,5	-0,180900
15,433500	0,5	-0,168550
15,441833	0,5	-0,163850
15,450167	0,5	-0,158600
15,458500	0,5	-0,153700
15,466833	0,5	-0,144500
15,475167	0,5	-0,145350
15,483500	0,5	-0,146750
15,491833	0,5	-0,145550
15,500167	0,5	-0,139950
15,508500	0,5	-0,158000
15,516833	0,5	-0,150150
15,525167	0,5	-0,143000
15,533500	0,5	-0,134700
15,541833	0,5	-0,133300
15,550167	0,5	-0,135150
15,558500	0,5	-0,116550
15,566833	0,5	-0,097800
15,575167	0,5	-0,079350
15,583500	0,5	-0,069000
15,591833	0,5	-0,061050
15,600167	0,5	-0,057000
15,608500	0,5	-0,055950
15,616833	0,5	-0,062100
15,625167	0,5	-0,068700
15,633500	0,5	-0,080400
15,641833	0,5	-0,092600
15,650167	0,5	-0,106450
15,658500	0,5	-0,128300
15,666833	0,5	-0,130700
15,675167	0,5	-0,140900
15,683500	0,5	-0,150800
15,691833	0,5	-0,157950
15,700167	0,5	-0,176150
15,708500	0,5	-0,174900
15,716833	0,5	-0,178500
15,725167	0,5	-0,180300
15,733500	0,5	-0,185500
15,741833	0,5	-0,184700
15,750167	0,5	-0,181150
15,758500	0,5	-0,177600
15,766833	0,5	-0,170750
15,775167	0,5	-0,171600
15,783500	0,5	-0,171850
15,791833	0,5	-0,181350
15,800167	0,5	-0,181100
15,808500	0,5	-0,192450
15,816833	0,5	-0,188000
15,825167	0,5	-0,195450
15,833500	0,5	-0,203300
15,841833	0,5	-0,212500
15,850167	0,5	-0,215950
15,858500	0,5	-0,204550
15,866833	0,5	-0,196100
15,875167	0,5	-0,193350
15,883500	0,5	-0,184300
15,891833	0,5	-0,183600
15,900167	0,5	-0,184700
15,908500	0,5	-0,194200
15,916833	0,5	-0,201050
15,925167	0,5	-0,212200
15,933500	0,5	-0,221850
15,941833	0,5	-0,226450
15,950167	0,5	-0,242700
15,958500	0,5	-0,240500
15,966833	0,5	-0,242750
15,975167	0,5	-0,243800
15,983500	0,5	-0,254350
15,991833	0,5	-0,259400
16,000167	0,5	-0,272000
16,008500	0,5	-0,263000
16,016833	0,5	-0,264300
16,025167	0,5	-0,257800
16,033500	0,5	-0,261550
16,041833	0,5	-0,260150
16,050167	0,5	-0,254050
16,058500	0,5	-0,249700
16,066833	0,5	-0,249650
16,075167	0,5	-0,245150
16,083500	0,5	-0,241450
16,091833	0,5	-0,245750
16,100167	0,5	-0,253250
16,108500	0,5	-0,245600
16,116833	0,5	-0,245100
16,125167	0,5	-0,247600
16,133500	0,5	-0,255100
16,141833	0,5	-0,266400
16,150167	0,5	-0,263650
16,158500	0,5	-0,260600
16,166833	0,5	-0,254200
16,175167	0,5	-0,252450
16,183500	0,5	-0,248750
16,191833	0,5	-0,254650
16,200167	0,5	-0,252500
16,208500	0,5	-0,255050
16,216833	0,5	-0,252950
16,225167	0,5	-0,250350
16,233500	0,5	-0,250700
16,241833	0,5	-0,262700
16,250167	0,5	-0,260150
16,258500	0,5	-0,252500
16,266833	0,5	-0,250700
16,275167	0,5	-0,253500
16,283500	0,5	-0,259800
16,291833	0,5	-0,260800
16,300167	0,5	-0,261200
16,308500	0,5	-0,252300
16,316833	0,5	-0,256950
16,325167	0,5	-0,258500
16,333500	0,5	-0,265750
16,341833	0,5	-0,265500
16,350167	0,5	-0,264950
16,358500	0,5	-0,259500
16,366833	0,5	-0,259450
16,375167	0,5	-0,259300
16,383500	0,5	-0,253800
16,391833	0,5	-0,261750
16,400167	0,5	-0,255500
16,408500	0,5	-0,243950
16,416833	0,5	-0,245600
16,425167	0,5	-0,246750
16,433500	0,5	-0,262150
16,441833	0,5	-0,263150
16,450167	0,5	-0,254800
16,458500	0,5	-0,254000
16,466833	0,5	-0,253150
16,475167	0,5	-0,257050
16,483500	0,5	-0,251250
16,491833	0,5	-0,257150
16,500167	0,5	-0,255200
16,508500	0,5	-0,261400
16,516833	0,5	-0,266350
16,525167	0,5	-0,262100
16,533500	0,5	-0,262650
16,541833	0,5	-0,279450
16,550167	0,5	-0,263950
16,558500	0,5	-0,266500
16,566833	0,5	-0,268950
16,575167	0,5	-0,273550
16,583500	0,5	-0,280550
16,591833	0,5	-0,272450
16,600167	0,5	-0,273000
16,608500	0,5	-0,266150
16,616833	0,5	-0,263850
16,625167	0,5	-0,258700
16,633500	0,5	-0,261950
16,641833	0,5	-0,250050
16,650167	0,5	-0,243550
16,658500	0,5	-0,234900
16,666833	0,5	-0,230700
16,675167	0,5	-0,216900
16,683500	0,5	-0,216800
16,691833	0,5	-0,215650
16,700167	0,5	-0,204200
16,708500	0,5	-0,201000
16,716833	0,5	-0,209300
16,725167	0,5	-0,212000
16,733500	0,5	-0,229600
16,741833	0,5	-0,220550
16,750167	0,5	-0,217700
16,758500	0,5	-0,212650
16,766833	0,5	-0,204650
16,775167	0,5	-0,193050
16,783500	0,5	-0,182150
16,791833	0,5	-0,172050
16,800167	0,5	-0,155400
16,808500	0,5	-0,143250
16,816833	0,5	-0,130600
16,825167	0,5	-0,114650
16,833500	0,5	-0,114700
16,841833	0,5	-0,107500
16,850167	0,5	-0,096300
16,858500	0,5	-0,104250
16,866833	0,5	-0,110600
16,875167	0,5	-0,128800
16,883500	0,5	-0,136950
16,891833	0,5	-0,142300
16,900167	0,5	-0,146750
16,908500	0,5	-0,146950
16,916833	0,5	-0,148100
16,925167	0,5	-0,151300
16,933500	0,5	-0,158750
16,941833	0,5	-0,150500
16,950167	0,5	-0,148200
16,958500	0,5	-0,141800
16,966833	0,5	-0,139450
16,975167	0,5	-0,132050
16,983500	0,5	-0,141700
16,991833	0,5	-0,121750
17,000167	0,5	-0,121400
17,008500	0,5	-0,120800
17,016833	0,5	-0,125250
17,025167	0,5	-0,132750
17,033500	0,5	-0,130600
17,041833	0,5	-0,116050
17,050167	0,5	-0,111900
17,058500	0,5	-0,101850
17,066833	0,5	-0,101350
17,075167	0,5	-0,103100
17,083500	0,5	-0,103150
17,091833	0,5	-0,105150
17,100167	0,5	-0,110000
17,108500	0,5	-0,113850
17,116833	0,5	-0,112400
17,125167	0,5	-0,123750
17,133500	0,5	-0,130000
17,141833	0,5	-0,119500
17,150167	0,5	-0,122950
17,158500	0,5	-0,130550
17,166833	0,5	-0,139750
17,175167	0,5	-0,150400
17,183500	0,5	-0,146650
17,191833	0,5	-0,148500
17,200167	0,5	-0,142750
17,208500	0,5	-0,150450
17,216833	0,5	-0,144150
17,225167	0,5	-0,148900
17,233500	0,5	-0,146350
17,241833	0,5	-0,141950
17,250167	0,5	-0,143000
17,258500	0,5	-0,139100
17,266833	0,5	-0,138350
17,275167	0,5	-0,154500
17,283500	0,5	-0,151300
17,291833	0,5	-0,150800
17,300167	0,5	-0,159700
17,308500	0,5	-0,164100
17,316833	0,5	-0,179900
17,325167	0,5	-0,186000
17,333500	0,5	-0,191050
17,341833	0,5	-0,184650
17,350167	0,5	-0,191300
17,358500	0,5	-0,186300
17,366833	0,5	-0,188600
17,375167	0,5	-0,189300
17,383500	0,5	-0,189900
17,391833	0,5	-0,191050
17,400167	0,5	-0,193600
17,408500	0,5	-0,193000
17,416833	0,5	-0,196550
17,425167	0,5	-0,212450
17,433500	0,5	-0,205600
17,441833	0,5	-0,203950
17,450167	0,5	-0,207450
17,458500	0,5	-0,218500
17,466833	0,5	-0,231750
17,475167	0,5	-0,226900
17,483500	0,5	-0,229500
17,491833	0,5	-0,239200
17,500167	0,5	-0,234150
17,508500	0,5	-0,241450
17,516833	0,5	-0,240750
17,525167	0,5	-0,248700
17,533500	0,5	-0,249050
17,541833	0,5	-0,253300
17,550167	0,5	-0,258100
17,558500	0,5	-0,250650
17,566833	0,5	-0,259900
17,575167	0,5	-0,266500
17,583500	0,5	-0,259900
17,591833	0,5	-0,265300
17,600167	0,5	-0,275650
17,608500	0,5	-0,288250
17,616833	0,5	-0,299650
17,625167	0,5	-0,294750
17,633500	0,5	-0,298250
17,641833	0,5	-0,297750
17,650167	0,5	-0,303800
17,658500	0,5	-0,299300
17,666833	0,5	-0,307950
17,675167	0,5	-0,303550
17,683500	0,5	-0,313100
17,691833	0,5	-0,310300
17,700167	0,5	-0,309650
17,708500	0,5	-0,303850
17,716833	0,5	-0,324300
17,725167	0,5	-0,321700
17,733500	0,5	-0,321450
17,741833	0,5	-0,320850
17,750167	0,5	-0,328150
17,758500	0,5	-0,344150
17,766833	0,5	-0,342750
17,775167	0,5	-0,342800
17,783500	0,5	-0,344250
17,791833	0,5	-0,346450
17,800167	0,5	-0,346650
17,808500	0,5	-0,348550
17,816833	0,5	-0,347550
17,825167	0,5	-0,353450
17,833500	0,5	-0,354650
17,841833	0,5	-0,359600
17,850167	0,5	-0,351100
17,858500	0,5	-0,354250
17,866833	0,5	-0,357100
17,875167	0,5	-0,349650
17,883500	0,5	-0,352250
17,891833	0,5	-0,353700
17,900167	0,5	-0,361050
17,908500	0,5	-0,369450
17,916833	0,5	-0,376800
17,925167	0,5	-0,369350
17,933500	0,5	-0,371850
17,941833	0,5	-0,367800
17,950167	0,5	-0,371150
17,958500	0,5	-0,372550
17,966833	0,5	-0,376900
17,975167	0,5	-0,373900
17,983500	0,5	-0,378550
17,991833	0,5	-0,371900
18,000167	0,5	-0,376850
18,008500	0,5	-0,379950
18,016833	0,5	-0,390600
18,025167	0,5	-0,380100
18,033500	0,5	-0,383000
18,041833	0,5	-0,389400
18,050167	0,5	-0,403000
18,058500	0,5	-0,412350
18,066833	0,5	-0,407900
18,075167	0,5	-0,408000
18,083500	0,5	-0,413750
18,091833	0,5	-0,413200
18,100167	0,5	-0,415500
18,108500	0,5	-0,414900
18,116833	0,5	-0,419700
18,125167	0,5	-0,422950
18,133500	0,5	-0,424650
18,141833	0,5	-0,426400
18,150167	0,5	-0,429250
18,158500	0,5	-0,447500
18,166833	0,5	-0,438350
18,175167	0,5	-0,441350
18,183500	0,5	-0,444800
18,191833	0,5	-0,455550
18,200167	0,5	-0,467700
18,208500	0,5	-0,475700
18,216833	0,5	-0,479150
18,225167	0,5	-0,478850
18,233500	0,5	-0,477600
18,241833	0,5	-0,482150
18,250167	0,5	-0,478600
18,258500	0,5	-0,482750
18,266833	0,5	-0,483300
18,275167	0,5	-0,482600
18,283500	0,5	-0,486000
18,291833	0,5	-0,475100
18,300167	0,5	-0,487350
18,308500	0,5	-0,491500
18,316833	0,5	-0,488000
18,325167	0,5	-0,483800
18,333500	0,5	-0,491600
18,341833	0,5	-0,499350
18,350167	0,5	-0,507400
18,358500	0,5	-0,504400
18,366833	0,5	-0,508200
18,375167	0,5	-0,504300
18,383500	0,5	-0,507450
18,391833	0,5	-0,500850
18,400167	0,5	-0,506450
18,408500	0,5	-0,506550
18,416833	0,5	-0,500450
18,425167	0,5	-0,503500
18,433500	0,5	-0,496400
18,441833	0,5	-0,495550
18,450167	0,5	-0,501900
18,458500	0,5	-0,503750
18,466833	0,5	-0,494850
18,475167	0,5	-0,496750
18,483500	0,5	-0,498600
18,491833	0,5	-0,516650
18,500167	0,5	-0,513350
18,508500	0,5	-0,512500
18,516833	0,5	-0,508700
18,525167	0,5	-0,509400
18,533500	0,5	-0,505100
18,541833	0,5	-0,505150
18,550167	0,5	-0,500700
18,558500	0,5	-0,501000
18,566833	0,5	-0,497750
18,575167	0,5	-0,495550
18,583500	0,5	-0,497900
18,591833	0,5	-0,489050
18,600167	0,5	-0,498650
18,608500	0,5	-0,494000
18,616833	0,5	-0,488800
18,625167	0,5	-0,487650
18,633500	0,5	-0,491350
18,641833	0,5	-0,501850
18,650167	0,5	-0,494650
18,658500	0,5	-0,481750
18,666833	0,5	-0,479750
18,675167	0,5	-0,469000
18,683500	0,5	-0,468450
18,691833	0,5	-0,460300
18,700167	0,5	-0,466550
18,708500	0,5	-0,472450
18,716833	0,5	-0,475250
18,725167	0,5	-0,485300
18,733500	0,5	-0,482800
18,741833	0,5	-0,487450
18,750167	0,5	-0,507950
18,758500	0,5	-0,498650
18,766833	0,5	-0,506100
18,775167	0,5	-0,513850
18,783500	0,5	-0,522750
18,791833	0,5	-0,537450
18,800167	0,5	-0,533250
18,808500	0,5	-0,538450
18,816833	0,5	-0,538950
18,825167	0,5	-0,537250
18,833500	0,5	-0,532100
18,841833	0,5	-0,530200
18,850167	0,5	-0,525150
18,858500	0,5	-0,526250
18,866833	0,5	-0,531250
18,875167	0,5	-0,528550
18,883500	0,5	-0,530400
18,891833	0,5	-0,542000
18,900167	0,5	-0,546350
18,908500	0,5	-0,544950
18,916833	0,5	-0,548750
18,925167	0,5	-0,555800
18,933500	0,5	-0,563950
18,941833	0,5	-0,571800
18,950167	0,5	-0,569850
18,958500	0,5	-0,569050
18,966833	0,5	-0,571800
18,975167	0,5	-0,564250
18,983500	0,5	-0,568000
18,991833	0,5	-0,564050
19,000167	0,5	-0,571000
19,008500	0,5	-0,570450
19,016833	0,5	-0,569650
19,025167	0,5	-0,557250
19,033500	0,5	-0,556700
19,041833	0,5	-0,557700
19,050167	0,5	-0,550600
19,058500	0,5	-0,548900
19,066833	0,5	-0,553500
19,075167	0,5	-0,560100
19,083500	0,5	-0,568450
19,091833	0,5	-0,575350
19,100167	0,5	-0,568550
19,108500	0,5	-0,567700
19,116833	0,5	-0,560300
19,125167	0,5	-0,555600
19,133500	0,5	-0,549350
19,141833	0,5	-0,551650
19,150167	0,5	-0,551450
19,158500	0,5	-0,560750
19,166833	0,5	-0,568800
19,175167	0,5	-0,567600
19,183500	0,5	-0,577150
19,191833	0,5	-0,585700
19,200167	0,5	-0,580950
19,208500	0,5	-0,584650
19,216833	0,5	-0,581300
19,225167	0,5	-0,595750
19,233500	0,5	-0,598050
19,241833	0,5	-0,595900
19,250167	0,5	-0,596850
19,258500	0,5	-0,594350
19,266833	0,5	-0,592650
19,275167	0,5	-0,587100
19,283500	0,5	-0,588550
19,291833	0,5	-0,587300
19,300167	0,5	-0,586700
19,308500	0,5	-0,580100
19,316833	0,5	-0,564250
19,325167	0,5	-0,537250
19,333500	0,5	-0,533200
19,341833	0,5	-0,500450
19,350167	0,5	-0,476900
19,358500	0,5	-0,464400
19,366833	0,5	-0,464350
19,375167	0,5	-0,485600
19,383500	0,5	-0,491300
19,391833	0,5	-0,510850
19,400167	0,5	-0,513100
19,408500	0,5	-0,513800
19,416833	0,5	-0,501250
19,425167	0,5	-0,477550
19,433500	0,5	-0,441100
19,441833	0,5	-0,408000
19,450167	0,5	-0,375900
19,458500	0,5	-0,367050
19,466833	0,5	-0,370600
19,475167	0,5	-0,402650
19,483500	0,5	-0,453650
19,491833	0,5	-0,486450
19,500167	0,5	-0,513000
19,508500	0,5	-0,540850
19,516833	0,5	-0,551750
19,525167	0,5	-0,572350
19,533500	0,5	-0,564650
19,541833	0,5	-0,555850
19,550167	0,5	-0,553550
19,558500	0,5	-0,553000
19,566833	0,5	-0,551400
19,575167	0,5	-0,547750
19,583500	0,5	-0,546350
19,591833	0,5	-0,543250
19,600167	0,5	-0,542500
19,608500	0,5	-0,525850
19,616833	0,5	-0,503650
19,625167	0,5	-0,486250
19,633500	0,5	-0,467750
19,641833	0,5	-0,435450
19,650167	0,5	-0,425900
19,658500	0,5	-0,433150
19,666833	0,5	-0,459450
19,675167	0,5	-0,487450
19,683500	0,5	-0,509450
19,691833	0,5	-0,527350
19,700167	0,5	-0,549700
19,708500	0,5	-0,558200
19,716833	0,5	-0,567850
19,725167	0,5	-0,570900
19,733500	0,5	-0,572250
19,741833	0,5	-0,577300
19,750167	0,5	-0,574050
19,758500	0,5	-0,565800
19,766833	0,5	-0,560900
19,775167	0,5	-0,570400
19,783500	0,5	-0,567850
19,791833	0,5	-0,565800
19,800167	0,5	-0,561950
19,808500	0,5	-0,570400
19,816833	0,5	-0,578850
19,825167	0,5	-0,577750
19,833500	0,5	-0,568050
19,841833	0,5	-0,569500
19,850167	0,5	-0,560900
19,858500	0,5	-0,561000
19,866833	0,5	-0,559800
19,875167	0,5	-0,555450
19,883500	0,5	-0,561750
19,891833	0,5	-0,561700
19,900167	0,5	-0,560550
19,908500	0,5	-0,543100
19,916833	0,5	-0,542600
19,925167	0,5	-0,545350
19,933500	0,5	-0,535900
19,941833	0,5	-0,537150
19,950167	0,5	-0,539400
19,958500	0,5	-0,543300
19,966833	0,5	-0,551850
19,975167	0,5	-0,547300
19,983500	0,5	-0,545750
19,991833	0,5	-0,534650
20,000167	0,5	-0,532450
20,008500	0,5	-0,529700
20,016833	0,5	-0,531100
20,025167	0,5	-0,527250
20,033500	0,5	-0,524000
20,041833	0,5	-0,526350
20,050167	0,5	-0,518750
20,058500	0,5	-0,509850
20,066833	0,5	-0,519950
20,075167	0,5	-0,520450
20,083500	0,5	-0,512100
20,091833	0,5	-0,519600
20,100167	0,5	-0,520100
20,108500	0,5	-0,536850
20,116833	0,5	-0,535100
20,125167	0,5	-0,540150
20,133500	0,5	-0,535500
20,141833	0,5	-0,537150
20,150167	0,5	-0,531450
20,158500	0,5	-0,534150
20,166833	0,5	-0,531450
20,175167	0,5	-0,536650
20,183500	0,5	-0,532650
20,191833	0,5	-0,523700
20,200167	0,5	-0,516250
20,208500	0,5	-0,510300
20,216833	0,5	-0,519750
20,225167	0,5	-0,508200
20,233500	0,5	-0,507250
20,241833	0,5	-0,512150
20,250167	0,5	-0,524000
20,258500	0,5	-0,533150
20,266833	0,5	-0,535650
20,275167	0,5	-0,537400
20,283500	0,5	-0,539300
20,291833	0,5	-0,536150
20,300167	0,5	-0,541000
20,308500	0,5	-0,534950
20,316833	0,5	-0,540150
20,325167	0,5	-0,535850
20,333500	0,5	-0,540950
20,341833	0,5	-0,536400
20,350167	0,5	-0,523900
20,358500	0,5	-0,529750
20,366833	0,5	-0,533500
20,375167	0,5	-0,527150
20,383500	0,5	-0,528950
20,391833	0,5	-0,537050
20,400167	0,5	-0,546850
20,408500	0,5	-0,550600
20,416833	0,5	-0,541150
20,425167	0,5	-0,544650
20,433500	0,5	-0,539250
20,441833	0,5	-0,545700
20,450167	0,5	-0,532250
20,458500	0,5	-0,536950
20,466833	0,5	-0,535100
20,475167	0,5	-0,537750
20,483500	0,5	-0,534000
20,491833	0,5	-0,519600
20,500167	0,5	-0,510750
20,508500	0,5	-0,520950
20,516833	0,5	-0,512500
20,525167	0,5	-0,513300
20,533500	0,5	-0,512800
20,541833	0,5	-0,515600
20,550167	0,5	-0,535300
20,558500	0,5	-0,521800
20,566833	0,5	-0,528450
20,575167	0,5	-0,519700
20,583500	0,5	-0,521350
20,591833	0,5	-0,513750
20,600167	0,5	-0,513900
20,608500	0,5	-0,509300
20,616833	0,5	-0,506400
20,625167	0,5	-0,507800
20,633500	0,5	-0,500050
20,641833	0,5	-0,484350
20,650167	0,5	-0,476950
20,658500	0,5	-0,483450
20,666833	0,5	-0,481650
20,675167	0,5	-0,483300
20,683500	0,5	-0,485250
20,691833	0,5	-0,489800
20,700167	0,5	-0,500000
20,708500	0,5	-0,495700
20,716833	0,5	-0,487700
20,725167	0,5	-0,487400
20,733500	0,5	-0,478000
20,741833	0,5	-0,475250
20,750167	0,5	-0,469100
20,758500	0,5	-0,466100
20,766833	0,5	-0,463050
20,775167	0,5	-0,456300
20,783500	0,5	-0,436400
20,791833	0,5	-0,422800
20,800167	0,5	-0,421050
20,808500	0,5	-0,421800
20,816833	0,5	-0,415350
20,825167	0,5	-0,416350
20,833500	0,5	-0,421950
20,841833	0,5	-0,425050
20,850167	0,5	-0,425900
20,858500	0,5	-0,412150
20,866833	0,5	-0,410400
20,875167	0,5	-0,394450
20,883500	0,5	-0,394100
20,891833	0,5	-0,379650
20,900167	0,5	-0,374150
20,908500	0,5	-0,364350
20,916833	0,5	-0,364550
20,925167	0,5	-0,361600
20,933500	0,5	-0,339600
20,941833	0,5	-0,325400
20,950167	0,5	-0,326550
20,958500	0,5	-0,328150
20,966833	0,5	-0,326700
20,975167	0,5	-0,330650
20,983500	0,5	-0,336450
20,991833	0,5	-0,337850
21,000167	0,5	-0,329550
21,008500	0,5	-0,324900
21,016833	0,5	-0,310000
21,025167	0,5	-0,308200
21,033500	0,5	-0,295950
21,041833	0,5	-0,287550
21,050167	0,5	-0,278600
21,058500	0,5	-0,278450
21,066833	0,5	-0,273450
21,075167	0,5	-0,249050
21,083500	0,5	-0,234700
21,091833	0,5	-0,223850
21,100167	0,5	-0,222850
21,108500	0,5	-0,221400
21,116833	0,5	-0,219900
21,125167	0,5	-0,223600
21,133500	0,5	-0,236050
21,141833	0,5	-0,226150
21,150167	0,5	-0,222650
21,158500	0,5	-0,218350
21,166833	0,5	-0,216850
21,175167	0,5	-0,203800
21,183500	0,5	-0,201850
21,191833	0,5	-0,189250
21,200167	0,5	-0,186100
21,208500	0,5	-0,176100
21,216833	0,5	-0,168050
21,225167	0,5	-0,143750
21,233500	0,5	-0,121950
21,241833	0,5	-0,116950
21,250167	0,5	-0,109100
21,258500	0,5	-0,109500
21,266833	0,5	-0,103700
21,275167	0,5	-0,097850
21,283500	0,5	-0,093000
21,291833	0,5	-0,066500
21,300167	0,5	-0,039450
21,308500	0,5	-0,014050
21,316833	0,5	0,017650
21,325167	0,5	0,039550
21,333500	0,5	0,053200
21,341833	0,5	0,058150
21,350167	0,5	0,052250
21,358500	0,5	0,045800
21,366833	0,5	0,051900
21,375167	0,5	0,069400
21,383500	0,5	0,082150
21,391833	0,5	0,078650
21,400167	0,5	0,086450
21,408500	0,5	0,092350
21,416833	0,5	0,096700
21,425167	0,5	0,097850
21,433500	0,5	0,111900
21,441833	0,5	0,124350
21,450167	0,5	0,124800
21,458500	0,5	0,131650
21,466833	0,5	0,135600
21,475167	0,5	0,149250
21,483500	0,5	0,155200
21,491833	0,5	0,167750
21,500167	0,5	0,175650
21,508500	0,5	0,192600
21,516833	0,5	0,222800
21,525167	0,5	0,249350
21,533500	0,5	0,254900
21,541833	0,5	0,265600
21,550167	0,5	0,264800
21,558500	0,5	0,276150
21,566833	0,5	0,281800
21,575167	0,5	0,276100
21,583500	0,5	0,302950
21,591833	0,5	0,307900
21,600167	0,5	0,328100
21,608500	0,5	0,335200
21,616833	0,5	0,361350
21,625167	0,5	0,377500
21,633500	0,5	0,402400
21,641833	0,5	0,410850
21,650167	0,5	0,426000
21,658500	0,5	0,446550
21,666833	0,5	0,481000
21,675167	0,5	0,498250
21,683500	0,5	0,503300
21,691833	0,5	0,519350
21,700167	0,5	0,530350
21,708500	0,5	0,540100
21,716833	0,5	0,547650
21,725167	0,5	0,559550
21,733500	0,5	0,575750
21,741833	0,5	0,599450
21,750167	0,5	0,613050
21,758500	0,5	0,639700
21,766833	0,5	0,655950
21,775167	0,5	0,676200
21,783500	0,5	0,693500
21,791833	0,5	0,715600
21,800167	0,5	0,738300
21,808500	0,5	0,782150
21,816833	0,5	0,807950
21,825167	0,5	0,829500
21,833500	0,5	0,854400
21,841833	0,5	0,881950
21,850167	0,5	0,902400
21,858500	0,5	0,919650
21,866833	0,5	0,941650
21,875167	0,5	0,968350
21,883500	0,5	1,001050
21,891833	0,5	1,019650
21,900167	0,5	1,041400
21,908500	0,5	1,057950
21,916833	0,5	1,075150
21,925167	0,5	1,087500
21,933500	0,5	1,101550
21,941833	0,5	1,109650
21,950167	0,5	1,128050
21,958500	0,5	1,152700
21,966833	0,5	1,163150
21,975167	0,5	1,181600
21,983500	0,5	1,204350
21,991833	0,5	1,218950
22,000167	0,5	1,247250
22,008500	0,5	1,255450
22,016833	0,5	1,278400
22,025167	0,5	1,312750
22,033500	0,5	1,335550
22,041833	0,5	1,361000
22,050167	0,5	1,389150
22,058500	0,5	1,421000
22,066833	0,5	1,452550
22,075167	0,5	1,489650
22,083500	0,5	1,522950
22,091833	0,5	1,558650
22,100167	0,5	1,598900
22,108500	0,5	1,644550
22,116833	0,5	1,667950
22,125167	0,5	1,705550
22,133500	0,5	1,732950
22,141833	0,5	1,745200
22,150167	0,5	1,770450
22,158500	0,5	1,790050
22,166833	0,5	1,825800
22,175167	0,5	1,861500
22,183500	0,5	1,901750
22,191833	0,5	1,934550
22,200167	0,5	1,978900
22,208500	0,5	2,011600
22,216833	0,5	2,055500
22,225167	0,5	2,089400
22,233500	0,5	2,128850
22,241833	0,5	2,172600
22,250167	0,5	2,210100
22,258500	0,5	2,249400
22,266833	0,5	2,314000
22,275167	0,5	2,376950
22,283500	0,5	2,432400
22,291833	0,5	2,482550
22,300167	0,5	2,521450
22,308500	0,5	2,570000
22,316833	0,5	2,617650
22,325167	0,5	2,665450
22,333500	0,5	2,698100
22,341833	0,5	2,748750
22,350167	0,5	2,791900
22,358500	0,5	2,841800
22,366833	0,5	2,885650
22,375167	0,5	2,938350
22,383500	0,5	2,980450
22,391833	0,5	3,022500
22,400167	0,5	3,076650
22,408500	0,5	3,125300
22,416833	0,5	3,200350
22,425167	0,5	3,256050
22,433500	0,5	3,311450
22,441833	0,5	3,365400
22,450167	0,5	3,408650
22,458500	0,5	3,473750
22,466833	0,5	3,534500
22,475167	0,5	3,590850
22,483500	0,5	3,647400
22,491833	0,5	3,697900
22,500167	0,5	3,763050
22,508500	0,5	3,816050
22,516833	0,5	3,881100
22,525167	0,5	3,928200
22,533500	0,5	3,984200
22,541833	0,5	4,011750
22,550167	0,5	4,073450
22,558500	0,5	4,129150
22,566833	0,5	4,194050
22,575167	0,5	4,238150
22,583500	0,5	4,275800
22,591833	0,5	4,316200
22,600167	0,5	4,344450
22,608500	0,5	4,389850
22,616833	0,5	4,415550
22,625167	0,5	4,446600
22,633500	0,5	4,466050
22,641833	0,5	4,485900
22,650167	0,5	4,494000
22,658500	0,5	4,506650
22,666833	0,5	4,504800
22,675167	0,5	4,505250
22,683500	0,5	4,468150
22,691833	0,5	4,453700
22,700167	0,5	4,443800
22,708500	0,5	4,438050
22,716833	0,5	4,402050
22,725167	0,5	4,352550
22,733500	0,5	4,284500
22,741833	0,5	4,203500
22,750167	0,5	4,120350
22,758500	0,5	4,030250
22,766833	0,5	3,936350
22,775167	0,5	3,830100
22,783500	0,5	3,720000
22,791833	0,5	3,609400
22,800167	0,5	3,485400
22,808500	0,5	3,360050
22,816833	0,5	3,233250
22,825167	0,5	3,098350
22,833500	0,5	2,928700
22,841833	0,5	2,794550
22,850167	0,5	2,676300
22,858500	0,5	2,540050
22,866833	0,5	2,395050
22,875167	0,5	2,245950
22,883500	0,5	2,104000
22,891833	0,5	1,954500
22,900167	0,5	1,807650
22,908500	0,5	1,661950
22,916833	0,5	1,517850
22,925167	0,5	1,373950
22,933500	0,5	1,234650
22,941833	0,5	1,090850
22,950167	0,5	0,953900
22,958500	0,5	0,816000
22,966833	0,5	0,684950
22,975167	0,5	0,573650
22,983500	0,5	0,434550
22,991833	0,5	0,313500
23,000167	0,5	0,168350
23,008500	0,5	0,025700
23,016833	0,5	-0,085150
23,025167	0,5	-0,199000
23,033500	0,5	-0,292850
23,041833	0,5	-0,393850
23,050167	0,5	-0,499000
23,058500	0,5	-0,586000
23,066833	0,5	-0,674750
23,075167	0,5	-0,754950
23,083500	0,5	-0,829000
23,091833	0,5	-0,896300
23,100167	0,5	-0,965300
23,108500	0,5	-1,028000
23,116833	0,5	-1,096900
23,125167	0,5	-1,126000
23,133500	0,5	-1,184600
23,141833	0,5	-1,242650
23,150167	0,5	-1,336400
23,158500	0,5	-1,391650
23,166833	0,5	-1,434750
23,175167	0,5	-1,472800
23,183500	0,5	-1,500600
23,191833	0,5	-1,550850
23,200167	0,5	-1,581650
23,208500	0,5	-1,608800
23,216833	0,5	-1,632650
23,225167	0,5	-1,655900
23,233500	0,5	-1,672300
23,241833	0,5	-1,694850
23,250167	0,5	-1,707100
23,258500	0,5	-1,723750
23,266833	0,5	-1,722950
23,275167	0,5	-1,753400
23,283500	0,5	-1,749200
23,291833	0,5	-1,750300
23,300167	0,5	-1,789300
23,308500	0,5	-1,819150
23,316833	0,5	-1,824300
23,325167	0,5	-1,827600
23,333500	0,5	-1,829550
23,341833	0,5	-1,841150
23,350167	0,5	-1,841500
23,358500	0,5	-1,839600
23,366833	0,5	-1,837250
23,375167	0,5	-1,830500
23,383500	0,5	-1,828700
23,391833	0,5	-1,821150
23,400167	0,5	-1,814850
23,408500	0,5	-1,800950
23,416833	0,5	-1,803000
23,425167	0,5	-1,822900
23,433500	0,5	-1,783150
23,441833	0,5	-1,763650
23,450167	0,5	-1,771700
23,458500	0,5	-1,773150
23,466833	0,5	-1,771300
23,475167	0,5	-1,762100
23,483500	0,5	-1,756150
23,491833	0,5	-1,751200
23,500167	0,5	-1,746850
23,508500	0,5	-1,736200
23,516833	0,5	-1,729600
23,525167	0,5	-1,715700
23,533500	0,5	-1,709000
23,541833	0,5	-1,695450
23,550167	0,5	-1,682500
23,558500	0,5	-1,672300
23,566833	0,5	-1,748350
23,575167	0,5	-1,696200
23,583500	0,5	-1,670650
23,591833	0,5	-1,620300
23,600167	0,5	-1,611300
23,608500	0,5	-1,607750
23,616833	0,5	-1,598650
23,625167	0,5	-1,588150
23,633500	0,5	-1,579000
23,641833	0,5	-1,569350
23,650167	0,5	-1,557750
23,658500	0,5	-1,545750
23,666833	0,5	-1,534800
23,675167	0,5	-1,520350
23,683500	0,5	-1,513450
23,691833	0,5	-1,497750
23,700167	0,5	-1,497800
23,708500	0,5	-1,490250
23,716833	0,5	-1,567800
23,725167	0,5	-1,524200
23,733500	0,5	-1,476400
23,741833	0,5	-1,432750
23,750167	0,5	-1,419250
23,758500	0,5	-1,407100
23,766833	0,5	-1,395900
23,775167	0,5	-1,391450
23,783500	0,5	-1,377400
23,791833	0,5	-1,357300
23,800167	0,5	-1,339500
23,808500	0,5	-1,323650
23,816833	0,5	-1,307400
23,825167	0,5	-1,291050
23,833500	0,5	-1,274000
23,841833	0,5	-1,260300
23,850167	0,5	-1,245100
23,858500	0,5	-1,308350
23,866833	0,5	-1,329100
23,875167	0,5	-1,299400
23,883500	0,5	-1,232600
23,891833	0,5	-1,199050
23,900167	0,5	-1,182850
23,908500	0,5	-1,171000
23,916833	0,5	-1,169800
23,925167	0,5	-1,151450
23,933500	0,5	-1,141950
23,941833	0,5	-1,122400
23,950167	0,5	-1,109800
23,958500	0,5	-1,092000
23,966833	0,5	-1,075300
23,975167	0,5	-1,060650
23,983500	0,5	-1,044550
23,991833	0,5	-1,026000
24,000167	0,5	-1,013350
24,008500	0,5	-1,112550
24,016833	0,5	-1,084300
24,025167	0,5	-1,041000
24,033500	0,5	-0,989700
24,041833	0,5	-0,954050
24,050167	0,5	-0,942700
24,058500	0,5	-0,931500
24,066833	0,5	-0,932400
24,075167	0,5	-0,921400
24,083500	0,5	-0,898450
24,091833	0,5	-0,886950
24,100167	0,5	-0,872550
24,108500	0,5	-0,860950
24,116833	0,5	-0,845250
24,125167	0,5	-0,834650
24,133500	0,5	-0,817550
24,141833	0,5	-0,808400
24,150167	0,5	-0,826950
24,158500	0,5	-0,883150
24,166833	0,5	-0,851950
24,175167	0,5	-0,817650
24,183500	0,5	-0,769250
24,191833	0,5	-0,747750
24,200167	0,5	-0,735950
24,208500	0,5	-0,730500
24,216833	0,5	-0,723750
24,225167	0,5	-0,702600
24,233500	0,5	-0,688700
24,241833	0,5	-0,674300
24,250167	0,5	-0,662650
24,258500	0,5	-0,653100
24,266833	0,5	-0,643950
24,275167	0,5	-0,625450
24,283500	0,5	-0,616050
24,291833	0,5	-0,600750
24,300167	0,5	-0,672650
24,308500	0,5	-0,657300
24,316833	0,5	-0,647100
24,325167	0,5	-0,603300
24,333500	0,5	-0,580950
24,341833	0,5	-0,564850
24,350167	0,5	-0,559900
24,358500	0,5	-0,560050
24,366833	0,5	-0,556250
24,375167	0,5	-0,535050
24,383500	0,5	-0,523300
24,391833	0,5	-0,513800
24,400167	0,5	-0,499650
24,408500	0,5	-0,487050
24,416833	0,5	-0,477700
24,425167	0,5	-0,466300
24,433500	0,5	-0,455750
24,441833	0,5	-0,453600
24,450167	0,5	-0,511650
24,458500	0,5	-0,489000
24,466833	0,5	-0,470050
24,475167	0,5	-0,439200
24,483500	0,5	-0,420850
24,491833	0,5	-0,412850
24,500167	0,5	-0,412550
24,508500	0,5	-0,415950
24,516833	0,5	-0,409700
24,525167	0,5	-0,402350
24,533500	0,5	-0,389950
24,541833	0,5	-0,387250
24,550167	0,5	-0,376450
24,558500	0,5	-0,376350
24,566833	0,5	-0,363650
24,575167	0,5	-0,354700
24,583500	0,5	-0,351900
24,591833	0,5	-0,357100
24,600167	0,5	-0,389250
24,608500	0,5	-0,362200
24,616833	0,5	-0,349350
24,625167	0,5	-0,324100
24,633500	0,5	-0,315250
24,641833	0,5	-0,310400
24,650167	0,5	-0,313000
24,658500	0,5	-0,320650
24,666833	0,5	-0,312200
24,675167	0,5	-0,298650
24,683500	0,5	-0,295650
24,691833	0,5	-0,287450
24,700167	0,5	-0,286500
24,708500	0,5	-0,275400
24,716833	0,5	-0,271300
24,725167	0,5	-0,261900
24,733500	0,5	-0,259000
24,741833	0,5	-0,287350
24,750167	0,5	-0,287300
24,758500	0,5	-0,275900
24,766833	0,5	-0,259050
24,775167	0,5	-0,244350
24,783500	0,5	-0,241350
24,791833	0,5	-0,229900
24,800167	0,5	-0,238150
24,808500	0,5	-0,238000
24,816833	0,5	-0,231900
24,825167	0,5	-0,225950
24,833500	0,5	-0,220850
24,841833	0,5	-0,217850
24,850167	0,5	-0,213800
24,858500	0,5	-0,209300
24,866833	0,5	-0,204850
24,875167	0,5	-0,201950
24,883500	0,5	-0,198650
24,891833	0,5	-0,219150
24,900167	0,5	-0,210750
24,908500	0,5	-0,207350
24,916833	0,5	-0,195000
24,925167	0,5	-0,187750
24,933500	0,5	-0,186050
24,941833	0,5	-0,185150
24,950167	0,5	-0,188150
24,958500	0,5	-0,186450
24,966833	0,5	-0,182450
24,975167	0,5	-0,176250
24,983500	0,5	-0,176650
24,991833	0,5	-0,171150
25,000167	0,5	-0,168550
25,008500	0,5	-0,163000
25,016833	0,5	-0,161450
25,025167	0,5	-0,156450
25,033500	0,5	-0,159350
25,041833	0,5	-0,171100
25,050167	0,5	-0,163400
25,058500	0,5	-0,157250
25,066833	0,5	-0,151100
25,075167	0,5	-0,146450
25,083500	0,5	-0,146650
25,091833	0,5	-0,147050
25,100167	0,5	-0,152150
25,108500	0,5	-0,149650
25,116833	0,5	-0,144050
25,125167	0,5	-0,142000
25,133500	0,5	-0,139850
25,141833	0,5	-0,141950
25,150167	0,5	-0,137550
25,158500	0,5	-0,136850
25,166833	0,5	-0,131250
25,175167	0,5	-0,132100
25,183500	0,5	-0,136950
25,191833	0,5	-0,133700
25,200167	0,5	-0,131450
25,208500	0,5	-0,128800
25,216833	0,5	-0,124150
25,225167	0,5	-0,121250
25,233500	0,5	-0,123600
25,241833	0,5	-0,125650
25,250167	0,5	-0,126350
25,258500	0,5	-0,125000
25,266833	0,5	-0,123850
25,275167	0,5	-0,124850
25,283500	0,5	-0,121750
25,291833	0,5	-0,120850
25,300167	0,5	-0,120900
25,308500	0,5	-0,120650
25,316833	0,5	-0,117500
25,325167	0,5	-0,114050
25,333500	0,5	-0,121400
25,341833	0,5	-0,117850
25,350167	0,5	-0,116350
25,358500	0,5	-0,113150
25,366833	0,5	-0,110550
25,375167	0,5	-0,109150
25,383500	0,5	-0,108550
25,391833	0,5	-0,112600
25,400167	0,5	-0,110800
25,408500	0,5	-0,110950
25,416833	0,5	-0,107900
25,425167	0,5	-0,110650
25,433500	0,5	-0,110400
25,441833	0,5	-0,110900
25,450167	0,5	-0,109700
25,458500	0,5	-0,109850
25,466833	0,5	-0,108250
25,475167	0,5	-0,110250
25,483500	0,5	-0,108150
25,491833	0,5	-0,105600
25,500167	0,5	-0,105850
25,508500	0,5	-0,109000
25,516833	0,5	-0,104800
25,525167	0,5	-0,104200
25,533500	0,5	-0,104750
25,541833	0,5	-0,102600
25,550167	0,5	-0,104300
25,558500	0,5	-0,105150
25,566833	0,5	-0,103550
25,575167	0,5	-0,104250
25,583500	0,5	-0,102850
25,591833	0,5	-0,104750
25,600167	0,5	-0,102800
25,608500	0,5	-0,104850
25,616833	0,5	-0,103100
25,625167	0,5	-0,103600
25,633500	0,5	-0,099750
25,641833	0,5	-0,099150
25,650167	0,5	-0,100250
25,658500	0,5	-0,104600
25,666833	0,5	-0,102200
25,675167	0,5	-0,100950
25,683500	0,5	-0,101050
25,691833	0,5	-0,096450
25,700167	0,5	-0,096750
25,708500	0,5	-0,096450
25,716833	0,5	-0,092950
25,725167	0,5	-0,096550
25,733500	0,5	-0,096000
25,741833	0,5	-0,096250
25,750167	0,5	-0,096650
25,758500	0,5	-0,095300
25,766833	0,5	-0,094050
25,775167	0,5	-0,093400
25,783500	0,5	-0,093150
25,791833	0,5	-0,090050
25,800167	0,5	-0,092900
25,808500	0,5	-0,095450
25,816833	0,5	-0,093950
25,825167	0,5	-0,094250
25,833500	0,5	-0,089100
25,841833	0,5	-0,085800
25,850167	0,5	-0,090100
25,858500	0,5	-0,085750
25,866833	0,5	-0,088600
25,875167	0,5	-0,086350
25,883500	0,5	-0,087450
25,891833	0,5	-0,084600
25,900167	0,5	-0,086600
25,908500	0,5	-0,084500
25,916833	0,5	-0,081800
25,925167	0,5	-0,082400
25,933500	0,5	-0,080000
25,941833	0,5	-0,075800
25,950167	0,5	-0,081750
25,958500	0,5	-0,081800
25,966833	0,5	-0,083150
25,975167	0,5	-0,078800
25,983500	0,5	-0,073600
25,991833	0,5	-0,076200
26,000167	0,5	-0,072800
