File Path	chrom://chromeleon01/ikbm_chromeleon/2022/ICS-5000/ED1/Esteban/20220612_Cell_7_4_eg.seq/751.smp/ED_1.channel/ED_1.chm
Channel	ED_1

Injection Information:
Data Vault	ikbm_chromeleon
Injection	CelS2_04h-EGS_2
Injection Number	92
Position	GE1
Comment	
Processing Method	Stop sequence after Cell Death
Instrument Method	ICS5000_PA200_FullNative_Ox_26min_ED1
Type	Unknown
Status	Finished
Injection Date	14.06.2022
Injection Time	11:26:35
Injection Volume (µl)	5,0
Dilution Factor	1,0000
Weight	1,0000

Chromatogram Data Information:
Time Min. (min)	0,000167
Time Max. (min)	26,000167
Data Points	3121
Detector	EDet1
Generating Data System	Chromeleon 7.2.9.11323
Exporting Data System	Chromeleon 7.2.9.0
Operator	Instrument Controller
Signal Quantity	
Signal Unit	nC
Signal Min.	-2,911750
Signal Max.	115,598202
Channel	ED_1
Driver Name	DC-5000
Channel Type	Evaluation
Min. Step (s)	0,5
Max. Step (s)	0,5
Average Step (s)	0,5

Signal Parameter Information:
Signal Info	

Chromatogram Data:
Time (min)	Step (s)	Value (nC)
0,000167	n.a.	0,029450
0,008500	0,5	-0,041000
0,016833	0,5	-0,036500
0,025167	0,5	-0,028050
0,033500	0,5	-0,012950
0,041833	0,5	-0,003250
0,050167	0,5	0,001750
0,058500	0,5	-0,005400
0,066833	0,5	0,001900
0,075167	0,5	-0,010350
0,083500	0,5	0,005650
0,091833	0,5	-0,007850
0,100167	0,5	-0,018750
0,108500	0,5	0,007450
0,116833	0,5	-0,000300
0,125167	0,5	-0,027400
0,133500	0,5	-0,028350
0,141833	0,5	-0,020400
0,150167	0,5	0,017950
0,158500	0,5	0,011750
0,166833	0,5	0,000700
0,175167	0,5	-0,004900
0,183500	0,5	0,003250
0,191833	0,5	0,001650
0,200167	0,5	0,000550
0,208500	0,5	-0,006600
0,216833	0,5	-0,021200
0,225167	0,5	-0,016000
0,233500	0,5	-0,024050
0,241833	0,5	-0,026450
0,250167	0,5	-0,045300
0,258500	0,5	-0,010500
0,266833	0,5	-0,040150
0,275167	0,5	-0,048000
0,283500	0,5	-0,047200
0,291833	0,5	-0,035000
0,300167	0,5	0,004850
0,308500	0,5	0,006550
0,316833	0,5	-0,017550
0,325167	0,5	-0,024250
0,333500	0,5	-0,043750
0,341833	0,5	-0,042150
0,350167	0,5	-0,046400
0,358500	0,5	-0,049750
0,366833	0,5	-0,054250
0,375167	0,5	-0,054800
0,383500	0,5	-0,050700
0,391833	0,5	-0,073000
0,400167	0,5	-0,079650
0,408500	0,5	-0,051950
0,416833	0,5	-0,081700
0,425167	0,5	-0,081650
0,433500	0,5	-0,081450
0,441833	0,5	-0,070400
0,450167	0,5	-0,033550
0,458500	0,5	-0,058600
0,466833	0,5	-0,057350
0,475167	0,5	-0,068950
0,483500	0,5	-0,058950
0,491833	0,5	-0,069650
0,500167	0,5	-0,063800
0,508500	0,5	-0,074900
0,516833	0,5	-0,076500
0,525167	0,5	-0,081300
0,533500	0,5	-0,089650
0,541833	0,5	-0,102350
0,550167	0,5	-0,098400
0,558500	0,5	-0,084950
0,566833	0,5	-0,109100
0,575167	0,5	-0,106450
0,583500	0,5	-0,105400
0,591833	0,5	-0,082650
0,600167	0,5	-0,065600
0,608500	0,5	-0,067450
0,616833	0,5	-0,083050
0,625167	0,5	-0,074700
0,633500	0,5	-0,081500
0,641833	0,5	-0,081400
0,650167	0,5	-0,094700
0,658500	0,5	-0,093550
0,666833	0,5	-0,093550
0,675167	0,5	-0,095500
0,683500	0,5	-0,103950
0,691833	0,5	-0,101900
0,700167	0,5	-0,090700
0,708500	0,5	-0,094200
0,716833	0,5	-0,119100
0,725167	0,5	-0,117600
0,733500	0,5	-0,106350
0,741833	0,5	-0,086250
0,750167	0,5	-0,070700
0,758500	0,5	-0,080550
0,766833	0,5	-0,081550
0,775167	0,5	-0,089950
0,783500	0,5	-0,086750
0,791833	0,5	-0,087900
0,800167	0,5	-0,083550
0,808500	0,5	-0,096900
0,816833	0,5	-0,091050
0,825167	0,5	-0,098600
0,833500	0,5	-0,094250
0,841833	0,5	-0,099600
0,850167	0,5	-0,077750
0,858500	0,5	-0,100650
0,866833	0,5	-0,108250
0,875167	0,5	-0,102050
0,883500	0,5	-0,085700
0,891833	0,5	-0,065550
0,900167	0,5	-0,064350
0,908500	0,5	-0,068250
0,916833	0,5	-0,060500
0,925167	0,5	-0,064950
0,933500	0,5	-0,065600
0,941833	0,5	-0,070300
0,950167	0,5	-0,077450
0,958500	0,5	-0,073500
0,966833	0,5	-0,078600
0,975167	0,5	-0,071650
0,983500	0,5	-0,090900
0,991833	0,5	-0,070650
1,000167	0,5	-0,057900
1,008500	0,5	-0,074500
1,016833	0,5	-0,085550
1,025167	0,5	-0,079000
1,033500	0,5	-0,061550
1,041833	0,5	-0,035450
1,050167	0,5	-0,046600
1,058500	0,5	-0,040750
1,066833	0,5	-0,053650
1,075167	0,5	-0,043650
1,083500	0,5	-0,048750
1,091833	0,5	-0,050200
1,100167	0,5	-0,053550
1,108500	0,5	-0,056800
1,116833	0,5	-0,045800
1,125167	0,5	-0,049650
1,133500	0,5	-0,055850
1,141833	0,5	-0,034300
1,150167	0,5	-0,044400
1,158500	0,5	-0,059400
1,166833	0,5	-0,058600
1,175167	0,5	-0,057700
1,183500	0,5	-0,024000
1,191833	0,5	-0,031750
1,200167	0,5	-0,029500
1,208500	0,5	-0,041100
1,216833	0,5	-0,030850
1,225167	0,5	-0,037650
1,233500	0,5	-0,030800
1,241833	0,5	-0,032850
1,250167	0,5	-0,038300
1,258500	0,5	-0,039650
1,266833	0,5	-0,043200
1,275167	0,5	-0,023550
1,283500	0,5	-0,040950
1,291833	0,5	-0,009300
1,300167	0,5	-0,035850
1,308500	0,5	-0,043950
1,316833	0,5	-0,047900
1,325167	0,5	-0,036400
1,333500	0,5	-0,007000
1,341833	0,5	-0,010750
1,350167	0,5	-0,029600
1,358500	0,5	-0,013650
1,366833	0,5	-0,017700
1,375167	0,5	-0,012500
1,383500	0,5	-0,022900
1,391833	0,5	-0,018650
1,400167	0,5	-0,026750
1,408500	0,5	-0,021350
1,416833	0,5	-0,013650
1,425167	0,5	-0,010000
1,433500	0,5	-0,026200
1,441833	0,5	0,007450
1,450167	0,5	-0,025700
1,458500	0,5	-0,026400
1,466833	0,5	-0,024400
1,475167	0,5	-0,012900
1,483500	0,5	0,022950
1,491833	0,5	0,007600
1,500167	0,5	0,009250
1,508500	0,5	0,003500
1,516833	0,5	0,012150
1,525167	0,5	0,008150
1,533500	0,5	0,014700
1,541833	0,5	0,002450
1,550167	0,5	0,003050
1,558500	0,5	-0,005650
1,566833	0,5	-0,052100
1,575167	0,5	-0,249250
1,583500	0,5	-0,683300
1,591833	0,5	-1,184200
1,600167	0,5	-1,143450
1,608500	0,5	0,324300
1,616833	0,5	4,448850
1,625167	0,5	12,869250
1,633500	0,5	24,927550
1,641833	0,5	35,541701
1,650167	0,5	39,195251
1,658500	0,5	35,405851
1,666833	0,5	28,150750
1,675167	0,5	21,191900
1,683500	0,5	15,991200
1,691833	0,5	12,542500
1,700167	0,5	10,367200
1,708500	0,5	9,092950
1,716833	0,5	8,495250
1,725167	0,5	8,346700
1,733500	0,5	8,215500
1,741833	0,5	7,788050
1,750167	0,5	7,093750
1,758500	0,5	6,427400
1,766833	0,5	5,890200
1,775167	0,5	5,560000
1,783500	0,5	5,461550
1,791833	0,5	5,713400
1,800167	0,5	6,325800
1,808500	0,5	7,111300
1,816833	0,5	7,756550
1,825167	0,5	8,091650
1,833500	0,5	8,060800
1,841833	0,5	7,723600
1,850167	0,5	7,242700
1,858500	0,5	6,765900
1,866833	0,5	6,394500
1,875167	0,5	6,082350
1,883500	0,5	5,808300
1,891833	0,5	5,466700
1,900167	0,5	5,134850
1,908500	0,5	4,862300
1,916833	0,5	4,654250
1,925167	0,5	4,491550
1,933500	0,5	4,330750
1,941833	0,5	4,165950
1,950167	0,5	4,058200
1,958500	0,5	4,020050
1,966833	0,5	4,078350
1,975167	0,5	4,134100
1,983500	0,5	4,105800
1,991833	0,5	3,985050
2,000167	0,5	3,851050
2,008500	0,5	3,819550
2,016833	0,5	3,938000
2,025167	0,5	4,369250
2,033500	0,5	5,375050
2,041833	0,5	7,447400
2,050167	0,5	10,855400
2,058500	0,5	14,503750
2,066833	0,5	16,298500
2,075167	0,5	15,360750
2,083500	0,5	12,904000
2,091833	0,5	10,711650
2,100167	0,5	9,434000
2,108500	0,5	8,857750
2,116833	0,5	8,412750
2,125167	0,5	7,827800
2,133500	0,5	7,148950
2,141833	0,5	6,598250
2,150167	0,5	6,291750
2,158500	0,5	6,289400
2,166833	0,5	6,680400
2,175167	0,5	7,564850
2,183500	0,5	8,624850
2,191833	0,5	9,335650
2,200167	0,5	9,324300
2,208500	0,5	8,750850
2,216833	0,5	8,054500
2,225167	0,5	7,459250
2,233500	0,5	7,009900
2,241833	0,5	6,662800
2,250167	0,5	6,407450
2,258500	0,5	6,206850
2,266833	0,5	6,073000
2,275167	0,5	5,993250
2,283500	0,5	5,997000
2,291833	0,5	6,030250
2,300167	0,5	6,074150
2,308500	0,5	6,098900
2,316833	0,5	6,095900
2,325167	0,5	6,117550
2,333500	0,5	6,112200
2,341833	0,5	6,118950
2,350167	0,5	6,160000
2,358500	0,5	6,249050
2,366833	0,5	6,384200
2,375167	0,5	6,495150
2,383500	0,5	6,579450
2,391833	0,5	6,661600
2,400167	0,5	6,732600
2,408500	0,5	6,807450
2,416833	0,5	6,865800
2,425167	0,5	6,917800
2,433500	0,5	6,940700
2,441833	0,5	6,961550
2,450167	0,5	6,964150
2,458500	0,5	6,967100
2,466833	0,5	6,957900
2,475167	0,5	6,993850
2,483500	0,5	6,982600
2,491833	0,5	7,011450
2,500167	0,5	7,066150
2,508500	0,5	7,162800
2,516833	0,5	7,269000
2,525167	0,5	7,315350
2,533500	0,5	7,281500
2,541833	0,5	7,165050
2,550167	0,5	7,017200
2,558500	0,5	6,889450
2,566833	0,5	6,803000
2,575167	0,5	6,732800
2,583500	0,5	6,680100
2,591833	0,5	6,627200
2,600167	0,5	6,584650
2,608500	0,5	6,536400
2,616833	0,5	6,516950
2,625167	0,5	6,499450
2,633500	0,5	6,470150
2,641833	0,5	6,468950
2,650167	0,5	6,492500
2,658500	0,5	6,545650
2,666833	0,5	6,634800
2,675167	0,5	6,760150
2,683500	0,5	7,007750
2,691833	0,5	7,469450
2,700167	0,5	8,240950
2,708500	0,5	9,258900
2,716833	0,5	10,291850
2,725167	0,5	11,000000
2,733500	0,5	11,208500
2,741833	0,5	11,009900
2,750167	0,5	10,656250
2,758500	0,5	10,450050
2,766833	0,5	10,615100
2,775167	0,5	11,246450
2,783500	0,5	12,497200
2,791833	0,5	14,764650
2,800167	0,5	18,882100
2,808500	0,5	26,525400
2,816833	0,5	39,701101
2,825167	0,5	59,400501
2,833500	0,5	83,119201
2,841833	0,5	104,349402
2,850167	0,5	115,598202
2,858500	0,5	113,421952
2,866833	0,5	100,080201
2,875167	0,5	81,293751
2,883500	0,5	62,522201
2,891833	0,5	46,928251
2,900167	0,5	35,369401
2,908500	0,5	27,403600
2,916833	0,5	22,173700
2,925167	0,5	18,772850
2,933500	0,5	16,537350
2,941833	0,5	14,994550
2,950167	0,5	13,842550
2,958500	0,5	12,933550
2,966833	0,5	12,147050
2,975167	0,5	11,369950
2,983500	0,5	10,547150
2,991833	0,5	9,631750
3,000167	0,5	8,714700
3,008500	0,5	7,848350
3,016833	0,5	7,111450
3,025167	0,5	6,495800
3,033500	0,5	6,007000
3,041833	0,5	5,610800
3,050167	0,5	5,275650
3,058500	0,5	5,007000
3,066833	0,5	4,793300
3,075167	0,5	4,565100
3,083500	0,5	4,379050
3,091833	0,5	4,221250
3,100167	0,5	4,083250
3,108500	0,5	3,966550
3,116833	0,5	3,820300
3,125167	0,5	3,706850
3,133500	0,5	3,595950
3,141833	0,5	3,522250
3,150167	0,5	3,465900
3,158500	0,5	3,450350
3,166833	0,5	3,447750
3,175167	0,5	3,462250
3,183500	0,5	3,442850
3,191833	0,5	3,382500
3,200167	0,5	3,254850
3,208500	0,5	3,120750
3,216833	0,5	2,950050
3,225167	0,5	2,775200
3,233500	0,5	2,628350
3,241833	0,5	2,521350
3,250167	0,5	2,447100
3,258500	0,5	2,394250
3,266833	0,5	2,347900
3,275167	0,5	2,324600
3,283500	0,5	2,317500
3,291833	0,5	2,317300
3,300167	0,5	2,331650
3,308500	0,5	2,354700
3,316833	0,5	2,411250
3,325167	0,5	2,503650
3,333500	0,5	2,642650
3,341833	0,5	2,790000
3,350167	0,5	2,891500
3,358500	0,5	2,935900
3,366833	0,5	2,856500
3,375167	0,5	2,686400
3,383500	0,5	2,474750
3,391833	0,5	2,259400
3,400167	0,5	2,083000
3,408500	0,5	1,920300
3,416833	0,5	1,801300
3,425167	0,5	1,721750
3,433500	0,5	1,679200
3,441833	0,5	1,641500
3,450167	0,5	1,607850
3,458500	0,5	1,577350
3,466833	0,5	1,537950
3,475167	0,5	1,508700
3,483500	0,5	1,470700
3,491833	0,5	1,443550
3,500167	0,5	1,393350
3,508500	0,5	1,375550
3,516833	0,5	1,318950
3,525167	0,5	1,290400
3,533500	0,5	1,263600
3,541833	0,5	1,261050
3,550167	0,5	1,262200
3,558500	0,5	1,251750
3,566833	0,5	1,232450
3,575167	0,5	1,223200
3,583500	0,5	1,203150
3,591833	0,5	1,190300
3,600167	0,5	1,167450
3,608500	0,5	1,144200
3,616833	0,5	1,124700
3,625167	0,5	1,109700
3,633500	0,5	1,096800
3,641833	0,5	1,079350
3,650167	0,5	1,079200
3,658500	0,5	1,084950
3,666833	0,5	1,072000
3,675167	0,5	1,073150
3,683500	0,5	1,079650
3,691833	0,5	1,093050
3,700167	0,5	1,115000
3,708500	0,5	1,104550
3,716833	0,5	1,110550
3,725167	0,5	1,092500
3,733500	0,5	1,085050
3,741833	0,5	1,062200
3,750167	0,5	1,042800
3,758500	0,5	1,013350
3,766833	0,5	0,989350
3,775167	0,5	0,969300
3,783500	0,5	0,943050
3,791833	0,5	0,920650
3,800167	0,5	0,927200
3,808500	0,5	0,907200
3,816833	0,5	0,885850
3,825167	0,5	0,883400
3,833500	0,5	0,884300
3,841833	0,5	0,909650
3,850167	0,5	0,915500
3,858500	0,5	0,926850
3,866833	0,5	0,926550
3,875167	0,5	0,957350
3,883500	0,5	0,977150
3,891833	0,5	1,031150
3,900167	0,5	1,101100
3,908500	0,5	1,214400
3,916833	0,5	1,357900
3,925167	0,5	1,539250
3,933500	0,5	1,725550
3,941833	0,5	1,911350
3,950167	0,5	2,067150
3,958500	0,5	2,124700
3,966833	0,5	2,104750
3,975167	0,5	2,017500
3,983500	0,5	1,870700
3,991833	0,5	1,708300
4,000167	0,5	1,516200
4,008500	0,5	1,334850
4,016833	0,5	1,196200
4,025167	0,5	1,081400
4,033500	0,5	0,993100
4,041833	0,5	0,930900
4,050167	0,5	0,887250
4,058500	0,5	0,850750
4,066833	0,5	0,832350
4,075167	0,5	0,814350
4,083500	0,5	0,799150
4,091833	0,5	0,783100
4,100167	0,5	0,798450
4,108500	0,5	0,764150
4,116833	0,5	0,756700
4,125167	0,5	0,747800
4,133500	0,5	0,756150
4,141833	0,5	0,772000
4,150167	0,5	0,754750
4,158500	0,5	0,752350
4,166833	0,5	0,751550
4,175167	0,5	0,752300
4,183500	0,5	0,752650
4,191833	0,5	0,755600
4,200167	0,5	0,756950
4,208500	0,5	0,766150
4,216833	0,5	0,769900
4,225167	0,5	0,785250
4,233500	0,5	0,772000
4,241833	0,5	0,790350
4,250167	0,5	0,790700
4,258500	0,5	0,778550
4,266833	0,5	0,773350
4,275167	0,5	0,784750
4,283500	0,5	0,796300
4,291833	0,5	0,816750
4,300167	0,5	0,810650
4,308500	0,5	0,820400
4,316833	0,5	0,819050
4,325167	0,5	0,822800
4,333500	0,5	0,820650
4,341833	0,5	0,820150
4,350167	0,5	0,816300
4,358500	0,5	0,809150
4,366833	0,5	0,805650
4,375167	0,5	0,794800
4,383500	0,5	0,797650
4,391833	0,5	0,825500
4,400167	0,5	0,840250
4,408500	0,5	0,862800
4,416833	0,5	0,907400
4,425167	0,5	0,968350
4,433500	0,5	1,059750
4,441833	0,5	1,146450
4,450167	0,5	1,256600
4,458500	0,5	1,378000
4,466833	0,5	1,544750
4,475167	0,5	1,731650
4,483500	0,5	1,964450
4,491833	0,5	2,237400
4,500167	0,5	2,570550
4,508500	0,5	2,975500
4,516833	0,5	3,455500
4,525167	0,5	4,012350
4,533500	0,5	4,644000
4,541833	0,5	5,350850
4,550167	0,5	6,063850
4,558500	0,5	6,758650
4,566833	0,5	7,374200
4,575167	0,5	7,853600
4,583500	0,5	8,121300
4,591833	0,5	8,134900
4,600167	0,5	7,868700
4,608500	0,5	7,386250
4,616833	0,5	6,710150
4,625167	0,5	5,939350
4,633500	0,5	5,121800
4,641833	0,5	4,341100
4,650167	0,5	3,630000
4,658500	0,5	3,028100
4,666833	0,5	2,533000
4,675167	0,5	2,137550
4,683500	0,5	1,849500
4,691833	0,5	1,643100
4,700167	0,5	1,475850
4,708500	0,5	1,371000
4,716833	0,5	1,301950
4,725167	0,5	1,273900
4,733500	0,5	1,261600
4,741833	0,5	1,247550
4,750167	0,5	1,252150
4,758500	0,5	1,255300
4,766833	0,5	1,268400
4,775167	0,5	1,277050
4,783500	0,5	1,305000
4,791833	0,5	1,327400
4,800167	0,5	1,370400
4,808500	0,5	1,430100
4,816833	0,5	1,501950
4,825167	0,5	1,592450
4,833500	0,5	1,733400
4,841833	0,5	1,853550
4,850167	0,5	1,969150
4,858500	0,5	2,074300
4,866833	0,5	2,155150
4,875167	0,5	2,205050
4,883500	0,5	2,193500
4,891833	0,5	2,132600
4,900167	0,5	2,027700
4,908500	0,5	1,899300
4,916833	0,5	1,752850
4,925167	0,5	1,607450
4,933500	0,5	1,470150
4,941833	0,5	1,353550
4,950167	0,5	1,249900
4,958500	0,5	1,179700
4,966833	0,5	1,104850
4,975167	0,5	1,056500
4,983500	0,5	1,036550
4,991833	0,5	1,004500
5,000167	0,5	0,978350
5,008500	0,5	0,972400
5,016833	0,5	0,963100
5,025167	0,5	0,977500
5,033500	0,5	0,964000
5,041833	0,5	0,958400
5,050167	0,5	0,953850
5,058500	0,5	0,948550
5,066833	0,5	0,945200
5,075167	0,5	0,939500
5,083500	0,5	0,933150
5,091833	0,5	0,923250
5,100167	0,5	0,916450
5,108500	0,5	0,909200
5,116833	0,5	0,902300
5,125167	0,5	0,894950
5,133500	0,5	0,910250
5,141833	0,5	0,890700
5,150167	0,5	0,894000
5,158500	0,5	0,896300
5,166833	0,5	0,911700
5,175167	0,5	0,937050
5,183500	0,5	0,939850
5,191833	0,5	0,949450
5,200167	0,5	0,973250
5,208500	0,5	0,992150
5,216833	0,5	1,015050
5,225167	0,5	1,033900
5,233500	0,5	1,059050
5,241833	0,5	1,090350
5,250167	0,5	1,128050
5,258500	0,5	1,177000
5,266833	0,5	1,223750
5,275167	0,5	1,306950
5,283500	0,5	1,427300
5,291833	0,5	1,563800
5,300167	0,5	1,764050
5,308500	0,5	2,036000
5,316833	0,5	2,371150
5,325167	0,5	2,775150
5,333500	0,5	3,182650
5,341833	0,5	3,608150
5,350167	0,5	3,981200
5,358500	0,5	4,282600
5,366833	0,5	4,451450
5,375167	0,5	4,491550
5,383500	0,5	4,383500
5,391833	0,5	4,163550
5,400167	0,5	3,857550
5,408500	0,5	3,496450
5,416833	0,5	3,118900
5,425167	0,5	2,776300
5,433500	0,5	2,456850
5,441833	0,5	2,173500
5,450167	0,5	1,944050
5,458500	0,5	1,766550
5,466833	0,5	1,627550
5,475167	0,5	1,512650
5,483500	0,5	1,417100
5,491833	0,5	1,337400
5,500167	0,5	1,285500
5,508500	0,5	1,235650
5,516833	0,5	1,202800
5,525167	0,5	1,170300
5,533500	0,5	1,149600
5,541833	0,5	1,128550
5,550167	0,5	1,122050
5,558500	0,5	1,105500
5,566833	0,5	1,098250
5,575167	0,5	1,105000
5,583500	0,5	1,092450
5,591833	0,5	1,081450
5,600167	0,5	1,075300
5,608500	0,5	1,070400
5,616833	0,5	1,070400
5,625167	0,5	1,062950
5,633500	0,5	1,039000
5,641833	0,5	1,020150
5,650167	0,5	1,002700
5,658500	0,5	0,987450
5,666833	0,5	0,975600
5,675167	0,5	0,969550
5,683500	0,5	0,960550
5,691833	0,5	0,958150
5,700167	0,5	0,945400
5,708500	0,5	0,931650
5,716833	0,5	0,922600
5,725167	0,5	0,918450
5,733500	0,5	0,896050
5,741833	0,5	0,880000
5,750167	0,5	0,862300
5,758500	0,5	0,864200
5,766833	0,5	0,861300
5,775167	0,5	0,845150
5,783500	0,5	0,829000
5,791833	0,5	0,812400
5,800167	0,5	0,795250
5,808500	0,5	0,775450
5,816833	0,5	0,757000
5,825167	0,5	0,738750
5,833500	0,5	0,725200
5,841833	0,5	0,712150
5,850167	0,5	0,694300
5,858500	0,5	0,676050
5,866833	0,5	0,680400
5,875167	0,5	0,667700
5,883500	0,5	0,654350
5,891833	0,5	0,646050
5,900167	0,5	0,645150
5,908500	0,5	0,654200
5,916833	0,5	0,659250
5,925167	0,5	0,652400
5,933500	0,5	0,655650
5,941833	0,5	0,651250
5,950167	0,5	0,650550
5,958500	0,5	0,640700
5,966833	0,5	0,631600
5,975167	0,5	0,623800
5,983500	0,5	0,612750
5,991833	0,5	0,600500
6,000167	0,5	0,579700
6,008500	0,5	0,561750
6,016833	0,5	0,566150
6,025167	0,5	0,554400
6,033500	0,5	0,546250
6,041833	0,5	0,548300
6,050167	0,5	0,557150
6,058500	0,5	0,592150
6,066833	0,5	0,606300
6,075167	0,5	0,626550
6,083500	0,5	0,645550
6,091833	0,5	0,669350
6,100167	0,5	0,669750
6,108500	0,5	0,663550
6,116833	0,5	0,646050
6,125167	0,5	0,622250
6,133500	0,5	0,599300
6,141833	0,5	0,571250
6,150167	0,5	0,549050
6,158500	0,5	0,529450
6,166833	0,5	0,535900
6,175167	0,5	0,531600
6,183500	0,5	0,540900
6,191833	0,5	0,554750
6,200167	0,5	0,580150
6,208500	0,5	0,608400
6,216833	0,5	0,616750
6,225167	0,5	0,614800
6,233500	0,5	0,618550
6,241833	0,5	0,610700
6,250167	0,5	0,601500
6,258500	0,5	0,582350
6,266833	0,5	0,566500
6,275167	0,5	0,545200
6,283500	0,5	0,529500
6,291833	0,5	0,510750
6,300167	0,5	0,487950
6,308500	0,5	0,466150
6,316833	0,5	0,460300
6,325167	0,5	0,432900
6,333500	0,5	0,421750
6,341833	0,5	0,418750
6,350167	0,5	0,426100
6,358500	0,5	0,436950
6,366833	0,5	0,433300
6,375167	0,5	0,431000
6,383500	0,5	0,428100
6,391833	0,5	0,426750
6,400167	0,5	0,417250
6,408500	0,5	0,416100
6,416833	0,5	0,406550
6,425167	0,5	0,409650
6,433500	0,5	0,409400
6,441833	0,5	0,410900
6,450167	0,5	0,412600
6,458500	0,5	0,428650
6,466833	0,5	0,434250
6,475167	0,5	0,431050
6,483500	0,5	0,438500
6,491833	0,5	0,439900
6,500167	0,5	0,449250
6,508500	0,5	0,450000
6,516833	0,5	0,441250
6,525167	0,5	0,436550
6,533500	0,5	0,433950
6,541833	0,5	0,427500
6,550167	0,5	0,423900
6,558500	0,5	0,424900
6,566833	0,5	0,435950
6,575167	0,5	0,444950
6,583500	0,5	0,461750
6,591833	0,5	0,473100
6,600167	0,5	0,494250
6,608500	0,5	0,515800
6,616833	0,5	0,522100
6,625167	0,5	0,520550
6,633500	0,5	0,518850
6,641833	0,5	0,514800
6,650167	0,5	0,519250
6,658500	0,5	0,514600
6,666833	0,5	0,508300
6,675167	0,5	0,499600
6,683500	0,5	0,493900
6,691833	0,5	0,486350
6,700167	0,5	0,479650
6,708500	0,5	0,475500
6,716833	0,5	0,474300
6,725167	0,5	0,475150
6,733500	0,5	0,472800
6,741833	0,5	0,474950
6,750167	0,5	0,473500
6,758500	0,5	0,481300
6,766833	0,5	0,479850
6,775167	0,5	0,482150
6,783500	0,5	0,489750
6,791833	0,5	0,512200
6,800167	0,5	0,524900
6,808500	0,5	0,532650
6,816833	0,5	0,534750
6,825167	0,5	0,544350
6,833500	0,5	0,542350
6,841833	0,5	0,539450
6,850167	0,5	0,534750
6,858500	0,5	0,527700
6,866833	0,5	0,521600
6,875167	0,5	0,512200
6,883500	0,5	0,508800
6,891833	0,5	0,499800
6,900167	0,5	0,506000
6,908500	0,5	0,511800
6,916833	0,5	0,511650
6,925167	0,5	0,517250
6,933500	0,5	0,531650
6,941833	0,5	0,549150
6,950167	0,5	0,564250
6,958500	0,5	0,561550
6,966833	0,5	0,568550
6,975167	0,5	0,572200
6,983500	0,5	0,581600
6,991833	0,5	0,590950
7,000167	0,5	0,619050
7,008500	0,5	0,664500
7,016833	0,5	0,740950
7,025167	0,5	0,850500
7,033500	0,5	0,984800
7,041833	0,5	1,143800
7,050167	0,5	1,332250
7,058500	0,5	1,478550
7,066833	0,5	1,576850
7,075167	0,5	1,611000
7,083500	0,5	1,582900
7,091833	0,5	1,509100
7,100167	0,5	1,389050
7,108500	0,5	1,261900
7,116833	0,5	1,133050
7,125167	0,5	1,023350
7,133500	0,5	0,917650
7,141833	0,5	0,824700
7,150167	0,5	0,740100
7,158500	0,5	0,680900
7,166833	0,5	0,640550
7,175167	0,5	0,616550
7,183500	0,5	0,604400
7,191833	0,5	0,597550
7,200167	0,5	0,599550
7,208500	0,5	0,582800
7,216833	0,5	0,562200
7,225167	0,5	0,545150
7,233500	0,5	0,535050
7,241833	0,5	0,534150
7,250167	0,5	0,530800
7,258500	0,5	0,525900
7,266833	0,5	0,529950
7,275167	0,5	0,536400
7,283500	0,5	0,539400
7,291833	0,5	0,546100
7,300167	0,5	0,560700
7,308500	0,5	0,577500
7,316833	0,5	0,604500
7,325167	0,5	0,639700
7,333500	0,5	0,674000
7,341833	0,5	0,692000
7,350167	0,5	0,713700
7,358500	0,5	0,709800
7,366833	0,5	0,706050
7,375167	0,5	0,700300
7,383500	0,5	0,704050
7,391833	0,5	0,715650
7,400167	0,5	0,729700
7,408500	0,5	0,752650
7,416833	0,5	0,783800
7,425167	0,5	0,813150
7,433500	0,5	0,836000
7,441833	0,5	0,838150
7,450167	0,5	0,815150
7,458500	0,5	0,782500
7,466833	0,5	0,735800
7,475167	0,5	0,694200
7,483500	0,5	0,660300
7,491833	0,5	0,649000
7,500167	0,5	0,653650
7,508500	0,5	0,682900
7,516833	0,5	0,755250
7,525167	0,5	0,883750
7,533500	0,5	1,082950
7,541833	0,5	1,347000
7,550167	0,5	1,675700
7,558500	0,5	2,057050
7,566833	0,5	2,481200
7,575167	0,5	2,932400
7,583500	0,5	3,414450
7,591833	0,5	3,977000
7,600167	0,5	4,726150
7,608500	0,5	5,892700
7,616833	0,5	7,875550
7,625167	0,5	11,242500
7,633500	0,5	16,644800
7,641833	0,5	24,378250
7,650167	0,5	33,875451
7,658500	0,5	43,510701
7,666833	0,5	51,053351
7,675167	0,5	54,558801
7,683500	0,5	53,337301
7,691833	0,5	47,989501
7,700167	0,5	40,054701
7,708500	0,5	31,276200
7,716833	0,5	23,099550
7,725167	0,5	16,400900
7,733500	0,5	11,431900
7,741833	0,5	8,011500
7,750167	0,5	5,759950
7,758500	0,5	4,304050
7,766833	0,5	3,358200
7,775167	0,5	2,734050
7,783500	0,5	2,316800
7,791833	0,5	2,029850
7,800167	0,5	1,824400
7,808500	0,5	1,676650
7,816833	0,5	1,566100
7,825167	0,5	1,483300
7,833500	0,5	1,415400
7,841833	0,5	1,366050
7,850167	0,5	1,342850
7,858500	0,5	1,348350
7,866833	0,5	1,360800
7,875167	0,5	1,360000
7,883500	0,5	1,324950
7,891833	0,5	1,264450
7,900167	0,5	1,177500
7,908500	0,5	1,097250
7,916833	0,5	1,019150
7,925167	0,5	0,945650
7,933500	0,5	0,889300
7,941833	0,5	0,845950
7,950167	0,5	0,808400
7,958500	0,5	0,788450
7,966833	0,5	0,790150
7,975167	0,5	0,808900
7,983500	0,5	0,827800
7,991833	0,5	0,829500
8,000167	0,5	0,812500
8,008500	0,5	0,783200
8,016833	0,5	0,744850
8,025167	0,5	0,705400
8,033500	0,5	0,668850
8,041833	0,5	0,639000
8,050167	0,5	0,613150
8,058500	0,5	0,603600
8,066833	0,5	0,601700
8,075167	0,5	0,604550
8,083500	0,5	0,616800
8,091833	0,5	0,609600
8,100167	0,5	0,595850
8,108500	0,5	0,585450
8,116833	0,5	0,593000
8,125167	0,5	0,618550
8,133500	0,5	0,657300
8,141833	0,5	0,707100
8,150167	0,5	0,749000
8,158500	0,5	0,762150
8,166833	0,5	0,735750
8,175167	0,5	0,694850
8,183500	0,5	0,647350
8,191833	0,5	0,602300
8,200167	0,5	0,565250
8,208500	0,5	0,532950
8,216833	0,5	0,503550
8,225167	0,5	0,477700
8,233500	0,5	0,463750
8,241833	0,5	0,458950
8,250167	0,5	0,457100
8,258500	0,5	0,465550
8,266833	0,5	0,478700
8,275167	0,5	0,496150
8,283500	0,5	0,500250
8,291833	0,5	0,497650
8,300167	0,5	0,492500
8,308500	0,5	0,482600
8,316833	0,5	0,470650
8,325167	0,5	0,465250
8,333500	0,5	0,466100
8,341833	0,5	0,473350
8,350167	0,5	0,483500
8,358500	0,5	0,491800
8,366833	0,5	0,501100
8,375167	0,5	0,500900
8,383500	0,5	0,497100
8,391833	0,5	0,480750
8,400167	0,5	0,462900
8,408500	0,5	0,442050
8,416833	0,5	0,430750
8,425167	0,5	0,426750
8,433500	0,5	0,428050
8,441833	0,5	0,442050
8,450167	0,5	0,464550
8,458500	0,5	0,503800
8,466833	0,5	0,562550
8,475167	0,5	0,640450
8,483500	0,5	0,726700
8,491833	0,5	0,800050
8,500167	0,5	0,842650
8,508500	0,5	0,848450
8,516833	0,5	0,816800
8,525167	0,5	0,773000
8,533500	0,5	0,717600
8,541833	0,5	0,666750
8,550167	0,5	0,620400
8,558500	0,5	0,585750
8,566833	0,5	0,561800
8,575167	0,5	0,551700
8,583500	0,5	0,549500
8,591833	0,5	0,567000
8,600167	0,5	0,607150
8,608500	0,5	0,669600
8,616833	0,5	0,754100
8,625167	0,5	0,853700
8,633500	0,5	0,960650
8,641833	0,5	1,070950
8,650167	0,5	1,189850
8,658500	0,5	1,327150
8,666833	0,5	1,510200
8,675167	0,5	1,763800
8,683500	0,5	2,094250
8,691833	0,5	2,487350
8,700167	0,5	2,925100
8,708500	0,5	3,408550
8,716833	0,5	3,971700
8,725167	0,5	4,719900
8,733500	0,5	5,924400
8,741833	0,5	8,127700
8,750167	0,5	12,205450
8,758500	0,5	19,035150
8,766833	0,5	28,802850
8,775167	0,5	40,124051
8,783500	0,5	50,123051
8,791833	0,5	55,659451
8,800167	0,5	55,036051
8,808500	0,5	48,776151
8,816833	0,5	39,167451
8,825167	0,5	28,878400
8,833500	0,5	19,896500
8,841833	0,5	13,122450
8,850167	0,5	8,537500
8,858500	0,5	5,677950
8,866833	0,5	3,974850
8,875167	0,5	2,963100
8,883500	0,5	2,356400
8,891833	0,5	1,976550
8,900167	0,5	1,725750
8,908500	0,5	1,554850
8,916833	0,5	1,432950
8,925167	0,5	1,341600
8,933500	0,5	1,270700
8,941833	0,5	1,216000
8,950167	0,5	1,169650
8,958500	0,5	1,136650
8,966833	0,5	1,110200
8,975167	0,5	1,093000
8,983500	0,5	1,071150
8,991833	0,5	1,054200
9,000167	0,5	1,044550
9,008500	0,5	1,033000
9,016833	0,5	1,027850
9,025167	0,5	1,022600
9,033500	0,5	1,011900
9,041833	0,5	1,000300
9,050167	0,5	0,987500
9,058500	0,5	0,978850
9,066833	0,5	0,976200
9,075167	0,5	0,981800
9,083500	0,5	0,995400
9,091833	0,5	1,015450
9,100167	0,5	1,032750
9,108500	0,5	1,039550
9,116833	0,5	1,036400
9,125167	0,5	1,026700
9,133500	0,5	1,001050
9,141833	0,5	0,970050
9,150167	0,5	0,946650
9,158500	0,5	0,929450
9,166833	0,5	0,917800
9,175167	0,5	0,910700
9,183500	0,5	0,900500
9,191833	0,5	0,883200
9,200167	0,5	0,862000
9,208500	0,5	0,838850
9,216833	0,5	0,817900
9,225167	0,5	0,801350
9,233500	0,5	0,794100
9,241833	0,5	0,788350
9,250167	0,5	0,787500
9,258500	0,5	0,791900
9,266833	0,5	0,799800
9,275167	0,5	0,813900
9,283500	0,5	0,827400
9,291833	0,5	0,843150
9,300167	0,5	0,862600
9,308500	0,5	0,884250
9,316833	0,5	0,908550
9,325167	0,5	0,942850
9,333500	0,5	0,977300
9,341833	0,5	1,022200
9,350167	0,5	1,074900
9,358500	0,5	1,131750
9,366833	0,5	1,188500
9,375167	0,5	1,229400
9,383500	0,5	1,241500
9,391833	0,5	1,215850
9,400167	0,5	1,170950
9,408500	0,5	1,111650
9,416833	0,5	1,058900
9,425167	0,5	1,019900
9,433500	0,5	0,984450
9,441833	0,5	0,963400
9,450167	0,5	0,942450
9,458500	0,5	0,926500
9,466833	0,5	0,914400
9,475167	0,5	0,905350
9,483500	0,5	0,897650
9,491833	0,5	0,897400
9,500167	0,5	0,893050
9,508500	0,5	0,893700
9,516833	0,5	0,890750
9,525167	0,5	0,889450
9,533500	0,5	0,887000
9,541833	0,5	0,884650
9,550167	0,5	0,886050
9,558500	0,5	0,893550
9,566833	0,5	0,903050
9,575167	0,5	0,914250
9,583500	0,5	0,928700
9,591833	0,5	0,946650
9,600167	0,5	0,973600
9,608500	0,5	1,009300
9,616833	0,5	1,037200
9,625167	0,5	1,050300
9,633500	0,5	1,049200
9,641833	0,5	1,030850
9,650167	0,5	1,003200
9,658500	0,5	0,972200
9,666833	0,5	0,945200
9,675167	0,5	0,925450
9,683500	0,5	0,915550
9,691833	0,5	0,912500
9,700167	0,5	0,921000
9,708500	0,5	0,933650
9,716833	0,5	0,960500
9,725167	0,5	0,989900
9,733500	0,5	1,017950
9,741833	0,5	1,047700
9,750167	0,5	1,075950
9,758500	0,5	1,097450
9,766833	0,5	1,110100
9,775167	0,5	1,111750
9,783500	0,5	1,103900
9,791833	0,5	1,097350
9,800167	0,5	1,088000
9,808500	0,5	1,087100
9,816833	0,5	1,093450
9,825167	0,5	1,118700
9,833500	0,5	1,160100
9,841833	0,5	1,217750
9,850167	0,5	1,299000
9,858500	0,5	1,405200
9,866833	0,5	1,523250
9,875167	0,5	1,646250
9,883500	0,5	1,760700
9,891833	0,5	1,851900
9,900167	0,5	1,907800
9,908500	0,5	1,920650
9,916833	0,5	1,882400
9,925167	0,5	1,807550
9,933500	0,5	1,703950
9,941833	0,5	1,585100
9,950167	0,5	1,470400
9,958500	0,5	1,370550
9,966833	0,5	1,293800
9,975167	0,5	1,237500
9,983500	0,5	1,213450
9,991833	0,5	1,209200
10,000167	0,5	1,227100
10,008500	0,5	1,253250
10,016833	0,5	1,276000
10,025167	0,5	1,281800
10,033500	0,5	1,269950
10,041833	0,5	1,241150
10,050167	0,5	1,215050
10,058500	0,5	1,186000
10,066833	0,5	1,162550
10,075167	0,5	1,154300
10,083500	0,5	1,151850
10,091833	0,5	1,152900
10,100167	0,5	1,150750
10,108500	0,5	1,146400
10,116833	0,5	1,141950
10,125167	0,5	1,142400
10,133500	0,5	1,142600
10,141833	0,5	1,151600
10,150167	0,5	1,163150
10,158500	0,5	1,174350
10,166833	0,5	1,183150
10,175167	0,5	1,181100
10,183500	0,5	1,167150
10,191833	0,5	1,148550
10,200167	0,5	1,123750
10,208500	0,5	1,100150
10,216833	0,5	1,075450
10,225167	0,5	1,055000
10,233500	0,5	1,041150
10,241833	0,5	1,029800
10,250167	0,5	1,027100
10,258500	0,5	1,026800
10,266833	0,5	1,027650
10,275167	0,5	1,037550
10,283500	0,5	1,040400
10,291833	0,5	1,045250
10,300167	0,5	1,048900
10,308500	0,5	1,057650
10,316833	0,5	1,064700
10,325167	0,5	1,077050
10,333500	0,5	1,097950
10,341833	0,5	1,123750
10,350167	0,5	1,154250
10,358500	0,5	1,176000
10,366833	0,5	1,190650
10,375167	0,5	1,189500
10,383500	0,5	1,179900
10,391833	0,5	1,163450
10,400167	0,5	1,145000
10,408500	0,5	1,125400
10,416833	0,5	1,105100
10,425167	0,5	1,085850
10,433500	0,5	1,066400
10,441833	0,5	1,042450
10,450167	0,5	1,025550
10,458500	0,5	1,013300
10,466833	0,5	1,001000
10,475167	0,5	0,991400
10,483500	0,5	0,982100
10,491833	0,5	0,976450
10,500167	0,5	0,980800
10,508500	0,5	0,980350
10,516833	0,5	0,984600
10,525167	0,5	0,984850
10,533500	0,5	0,983100
10,541833	0,5	0,980400
10,550167	0,5	0,972650
10,558500	0,5	0,963400
10,566833	0,5	0,957100
10,575167	0,5	0,954150
10,583500	0,5	0,950850
10,591833	0,5	0,951450
10,600167	0,5	0,965650
10,608500	0,5	0,986150
10,616833	0,5	1,003850
10,625167	0,5	1,033750
10,633500	0,5	1,068350
10,641833	0,5	1,110850
10,650167	0,5	1,156300
10,658500	0,5	1,191950
10,666833	0,5	1,206950
10,675167	0,5	1,209100
10,683500	0,5	1,184850
10,691833	0,5	1,146400
10,700167	0,5	1,101350
10,708500	0,5	1,056500
10,716833	0,5	1,015300
10,725167	0,5	0,980600
10,733500	0,5	0,954000
10,741833	0,5	0,926250
10,750167	0,5	0,917050
10,758500	0,5	0,902150
10,766833	0,5	0,889850
10,775167	0,5	0,878350
10,783500	0,5	0,868900
10,791833	0,5	0,867150
10,800167	0,5	0,865300
10,808500	0,5	0,865450
10,816833	0,5	0,862900
10,825167	0,5	0,865500
10,833500	0,5	0,866100
10,841833	0,5	0,874850
10,850167	0,5	0,883650
10,858500	0,5	0,901000
10,866833	0,5	0,921400
10,875167	0,5	0,948950
10,883500	0,5	0,973200
10,891833	0,5	1,004650
10,900167	0,5	1,042500
10,908500	0,5	1,071650
10,916833	0,5	1,086600
10,925167	0,5	1,084650
10,933500	0,5	1,063500
10,941833	0,5	1,029100
10,950167	0,5	0,988100
10,958500	0,5	0,944100
10,966833	0,5	0,908900
10,975167	0,5	0,884000
10,983500	0,5	0,868650
10,991833	0,5	0,860150
11,000167	0,5	0,855300
11,008500	0,5	0,852350
11,016833	0,5	0,853900
11,025167	0,5	0,855800
11,033500	0,5	0,851500
11,041833	0,5	0,854950
11,050167	0,5	0,863250
11,058500	0,5	0,869850
11,066833	0,5	0,884950
11,075167	0,5	0,904900
11,083500	0,5	0,942150
11,091833	0,5	0,989850
11,100167	0,5	1,054650
11,108500	0,5	1,126800
11,116833	0,5	1,197250
11,125167	0,5	1,265050
11,133500	0,5	1,304750
11,141833	0,5	1,321350
11,150167	0,5	1,302400
11,158500	0,5	1,249950
11,166833	0,5	1,181700
11,175167	0,5	1,102950
11,183500	0,5	1,028050
11,191833	0,5	0,965400
11,200167	0,5	0,912700
11,208500	0,5	0,871800
11,216833	0,5	0,835200
11,225167	0,5	0,807600
11,233500	0,5	0,790000
11,241833	0,5	0,778500
11,250167	0,5	0,768850
11,258500	0,5	0,764800
11,266833	0,5	0,761300
11,275167	0,5	0,765050
11,283500	0,5	0,773100
11,291833	0,5	0,787350
11,300167	0,5	0,798600
11,308500	0,5	0,818150
11,316833	0,5	0,835600
11,325167	0,5	0,853550
11,333500	0,5	0,861300
11,341833	0,5	0,877950
11,350167	0,5	0,879800
11,358500	0,5	0,878050
11,366833	0,5	0,872150
11,375167	0,5	0,862100
11,383500	0,5	0,859900
11,391833	0,5	0,853200
11,400167	0,5	0,848100
11,408500	0,5	0,834900
11,416833	0,5	0,821400
11,425167	0,5	0,804400
11,433500	0,5	0,784300
11,441833	0,5	0,767050
11,450167	0,5	0,752500
11,458500	0,5	0,742600
11,466833	0,5	0,736650
11,475167	0,5	0,730550
11,483500	0,5	0,737750
11,491833	0,5	0,751900
11,500167	0,5	0,762050
11,508500	0,5	0,773900
11,516833	0,5	0,777550
11,525167	0,5	0,786350
11,533500	0,5	0,792650
11,541833	0,5	0,799250
11,550167	0,5	0,802950
11,558500	0,5	0,809750
11,566833	0,5	0,813550
11,575167	0,5	0,830450
11,583500	0,5	0,850050
11,591833	0,5	0,881950
11,600167	0,5	0,916600
11,608500	0,5	0,966500
11,616833	0,5	1,010450
11,625167	0,5	1,047650
11,633500	0,5	1,086000
11,641833	0,5	1,101550
11,650167	0,5	1,100050
11,658500	0,5	1,081350
11,666833	0,5	1,052050
11,675167	0,5	1,027200
11,683500	0,5	1,002250
11,691833	0,5	0,976000
11,700167	0,5	0,960550
11,708500	0,5	0,946100
11,716833	0,5	0,936650
11,725167	0,5	0,925050
11,733500	0,5	0,915950
11,741833	0,5	0,895900
11,750167	0,5	0,882750
11,758500	0,5	0,864150
11,766833	0,5	0,852750
11,775167	0,5	0,832450
11,783500	0,5	0,834750
11,791833	0,5	0,825250
11,800167	0,5	0,815850
11,808500	0,5	0,808200
11,816833	0,5	0,801850
11,825167	0,5	0,802200
11,833500	0,5	0,804100
11,841833	0,5	0,797250
11,850167	0,5	0,803700
11,858500	0,5	0,802850
11,866833	0,5	0,804500
11,875167	0,5	0,807950
11,883500	0,5	0,804600
11,891833	0,5	0,800900
11,900167	0,5	0,790800
11,908500	0,5	0,793400
11,916833	0,5	0,785450
11,925167	0,5	0,789100
11,933500	0,5	0,801100
11,941833	0,5	0,818850
11,950167	0,5	0,845450
11,958500	0,5	0,883500
11,966833	0,5	0,931150
11,975167	0,5	0,992700
11,983500	0,5	1,041500
11,991833	0,5	1,081000
12,000167	0,5	1,096600
12,008500	0,5	1,093450
12,016833	0,5	1,060750
12,025167	0,5	1,013550
12,033500	0,5	0,958200
12,041833	0,5	0,900300
12,050167	0,5	0,854800
12,058500	0,5	0,821500
12,066833	0,5	0,783100
12,075167	0,5	0,769650
12,083500	0,5	0,764600
12,091833	0,5	0,762700
12,100167	0,5	0,768500
12,108500	0,5	0,765250
12,116833	0,5	0,772300
12,125167	0,5	0,770900
12,133500	0,5	0,772900
12,141833	0,5	0,760850
12,150167	0,5	0,751700
12,158500	0,5	0,736400
12,166833	0,5	0,726200
12,175167	0,5	0,709700
12,183500	0,5	0,700050
12,191833	0,5	0,688150
12,200167	0,5	0,680450
12,208500	0,5	0,675650
12,216833	0,5	0,665050
12,225167	0,5	0,663800
12,233500	0,5	0,660700
12,241833	0,5	0,657150
12,250167	0,5	0,651100
12,258500	0,5	0,645450
12,266833	0,5	0,649650
12,275167	0,5	0,655150
12,283500	0,5	0,661050
12,291833	0,5	0,666250
12,300167	0,5	0,672700
12,308500	0,5	0,685750
12,316833	0,5	0,699100
12,325167	0,5	0,722600
12,333500	0,5	0,739150
12,341833	0,5	0,759500
12,350167	0,5	0,773950
12,358500	0,5	0,783250
12,366833	0,5	0,782700
12,375167	0,5	0,782500
12,383500	0,5	0,772650
12,391833	0,5	0,754850
12,400167	0,5	0,735050
12,408500	0,5	0,715800
12,416833	0,5	0,706700
12,425167	0,5	0,693200
12,433500	0,5	0,682150
12,441833	0,5	0,670550
12,450167	0,5	0,664750
12,458500	0,5	0,648850
12,466833	0,5	0,643550
12,475167	0,5	0,632150
12,483500	0,5	0,626000
12,491833	0,5	0,621600
12,500167	0,5	0,615750
12,508500	0,5	0,601900
12,516833	0,5	0,605450
12,525167	0,5	0,606200
12,533500	0,5	0,609650
12,541833	0,5	0,611550
12,550167	0,5	0,609550
12,558500	0,5	0,616600
12,566833	0,5	0,629150
12,575167	0,5	0,641300
12,583500	0,5	0,650300
12,591833	0,5	0,659250
12,600167	0,5	0,658950
12,608500	0,5	0,654800
12,616833	0,5	0,640750
12,625167	0,5	0,630600
12,633500	0,5	0,610250
12,641833	0,5	0,596850
12,650167	0,5	0,579650
12,658500	0,5	0,562800
12,666833	0,5	0,555400
12,675167	0,5	0,550350
12,683500	0,5	0,543800
12,691833	0,5	0,536050
12,700167	0,5	0,524000
12,708500	0,5	0,526400
12,716833	0,5	0,528900
12,725167	0,5	0,535550
12,733500	0,5	0,531750
12,741833	0,5	0,536450
12,750167	0,5	0,544000
12,758500	0,5	0,545150
12,766833	0,5	0,546350
12,775167	0,5	0,544650
12,783500	0,5	0,542150
12,791833	0,5	0,544800
12,800167	0,5	0,540950
12,808500	0,5	0,536150
12,816833	0,5	0,542000
12,825167	0,5	0,542750
12,833500	0,5	0,548950
12,841833	0,5	0,553050
12,850167	0,5	0,569550
12,858500	0,5	0,589700
12,866833	0,5	0,605550
12,875167	0,5	0,625550
12,883500	0,5	0,640850
12,891833	0,5	0,656200
12,900167	0,5	0,659750
12,908500	0,5	0,659650
12,916833	0,5	0,653550
12,925167	0,5	0,639750
12,933500	0,5	0,623700
12,941833	0,5	0,614600
12,950167	0,5	0,593250
12,958500	0,5	0,577800
12,966833	0,5	0,566100
12,975167	0,5	0,547850
12,983500	0,5	0,532600
12,991833	0,5	0,521050
13,000167	0,5	0,512550
13,008500	0,5	0,517800
13,016833	0,5	0,515800
13,025167	0,5	0,527450
13,033500	0,5	0,532300
13,041833	0,5	0,542900
13,050167	0,5	0,544150
13,058500	0,5	0,548700
13,066833	0,5	0,546850
13,075167	0,5	0,548300
13,083500	0,5	0,547050
13,091833	0,5	0,544000
13,100167	0,5	0,529550
13,108500	0,5	0,524900
13,116833	0,5	0,518750
13,125167	0,5	0,504600
13,133500	0,5	0,487350
13,141833	0,5	0,472400
13,150167	0,5	0,479400
13,158500	0,5	0,486750
13,166833	0,5	0,502150
13,175167	0,5	0,509100
13,183500	0,5	0,525650
13,191833	0,5	0,528850
13,200167	0,5	0,529450
13,208500	0,5	0,519450
13,216833	0,5	0,509350
13,225167	0,5	0,498200
13,233500	0,5	0,490000
13,241833	0,5	0,483800
13,250167	0,5	0,479450
13,258500	0,5	0,496150
13,266833	0,5	0,508250
13,275167	0,5	0,519950
13,283500	0,5	0,524600
13,291833	0,5	0,527350
13,300167	0,5	0,525050
13,308500	0,5	0,527000
13,316833	0,5	0,525650
13,325167	0,5	0,525050
13,333500	0,5	0,520600
13,341833	0,5	0,521450
13,350167	0,5	0,518600
13,358500	0,5	0,515000
13,366833	0,5	0,503050
13,375167	0,5	0,499550
13,383500	0,5	0,489250
13,391833	0,5	0,479100
13,400167	0,5	0,471150
13,408500	0,5	0,471750
13,416833	0,5	0,463650
13,425167	0,5	0,459300
13,433500	0,5	0,452450
13,441833	0,5	0,443250
13,450167	0,5	0,449550
13,458500	0,5	0,452200
13,466833	0,5	0,451000
13,475167	0,5	0,455150
13,483500	0,5	0,451450
13,491833	0,5	0,448300
13,500167	0,5	0,445400
13,508500	0,5	0,433750
13,516833	0,5	0,431800
13,525167	0,5	0,431350
13,533500	0,5	0,430100
13,541833	0,5	0,411500
13,550167	0,5	0,400100
13,558500	0,5	0,387250
13,566833	0,5	0,372100
13,575167	0,5	0,351100
13,583500	0,5	0,328600
13,591833	0,5	0,313200
13,600167	0,5	0,298750
13,608500	0,5	0,279900
13,616833	0,5	0,259900
13,625167	0,5	0,228300
13,633500	0,5	0,155800
13,641833	0,5	-0,000600
13,650167	0,5	-0,204000
13,658500	0,5	-0,394900
13,666833	0,5	-0,534300
13,675167	0,5	-0,622950
13,683500	0,5	-0,682100
13,691833	0,5	-0,721450
13,700167	0,5	-0,741750
13,708500	0,5	-0,755850
13,716833	0,5	-0,773300
13,725167	0,5	-0,780400
13,733500	0,5	-0,794400
13,741833	0,5	-0,791900
13,750167	0,5	-0,795750
13,758500	0,5	-0,796350
13,766833	0,5	-0,800400
13,775167	0,5	-0,798250
13,783500	0,5	-0,804100
13,791833	0,5	-0,805250
13,800167	0,5	-0,807400
13,808500	0,5	-0,808850
13,816833	0,5	-0,808250
13,825167	0,5	-0,805800
13,833500	0,5	-0,803650
13,841833	0,5	-0,800750
13,850167	0,5	-0,791550
13,858500	0,5	-0,783600
13,866833	0,5	-0,774850
13,875167	0,5	-0,770950
13,883500	0,5	-0,765300
13,891833	0,5	-0,749500
13,900167	0,5	-0,735550
13,908500	0,5	-0,734200
13,916833	0,5	-0,721400
13,925167	0,5	-0,715300
13,933500	0,5	-0,707750
13,941833	0,5	-0,706050
13,950167	0,5	-0,703900
13,958500	0,5	-0,703150
13,966833	0,5	-0,707300
13,975167	0,5	-0,697300
13,983500	0,5	-0,699850
13,991833	0,5	-0,686650
14,000167	0,5	-0,679550
14,008500	0,5	-0,670100
14,016833	0,5	-0,669700
14,025167	0,5	-0,674750
14,033500	0,5	-0,671750
14,041833	0,5	-0,663750
14,050167	0,5	-0,661050
14,058500	0,5	-0,655850
14,066833	0,5	-0,651050
14,075167	0,5	-0,642600
14,083500	0,5	-0,639000
14,091833	0,5	-0,627500
14,100167	0,5	-0,622450
14,108500	0,5	-0,613200
14,116833	0,5	-0,600900
14,125167	0,5	-0,586150
14,133500	0,5	-0,585200
14,141833	0,5	-0,567250
14,150167	0,5	-0,557600
14,158500	0,5	-0,546300
14,166833	0,5	-0,539000
14,175167	0,5	-0,535350
14,183500	0,5	-0,518250
14,191833	0,5	-0,507400
14,200167	0,5	-0,488500
14,208500	0,5	-0,474900
14,216833	0,5	-0,457950
14,225167	0,5	-0,444400
14,233500	0,5	-0,423300
14,241833	0,5	-0,407400
14,250167	0,5	-0,389650
14,258500	0,5	-0,367050
14,266833	0,5	-0,343850
14,275167	0,5	-0,332550
14,283500	0,5	-0,317900
14,291833	0,5	-0,290700
14,300167	0,5	-0,273900
14,308500	0,5	-0,257500
14,316833	0,5	-0,245000
14,325167	0,5	-0,230950
14,333500	0,5	-0,211750
14,341833	0,5	-0,187000
14,350167	0,5	-0,166300
14,358500	0,5	-0,146500
14,366833	0,5	-0,126200
14,375167	0,5	-0,107650
14,383500	0,5	-0,092150
14,391833	0,5	-0,075000
14,400167	0,5	-0,057600
14,408500	0,5	-0,041200
14,416833	0,5	-0,029100
14,425167	0,5	-0,022800
14,433500	0,5	-0,015450
14,441833	0,5	0,003300
14,450167	0,5	0,001650
14,458500	0,5	0,011550
14,466833	0,5	0,004050
14,475167	0,5	0,008000
14,483500	0,5	0,014900
14,491833	0,5	0,023200
14,500167	0,5	0,020650
14,508500	0,5	0,023850
14,516833	0,5	0,026150
14,525167	0,5	0,023650
14,533500	0,5	0,026800
14,541833	0,5	0,024900
14,550167	0,5	0,023750
14,558500	0,5	0,024350
14,566833	0,5	0,021850
14,575167	0,5	0,004400
14,583500	0,5	0,012300
14,591833	0,5	0,013400
14,600167	0,5	0,007400
14,608500	0,5	-0,003150
14,616833	0,5	-0,015300
14,625167	0,5	-0,017150
14,633500	0,5	-0,016550
14,641833	0,5	-0,024900
14,650167	0,5	-0,026450
14,658500	0,5	-0,029350
14,666833	0,5	-0,030800
14,675167	0,5	-0,032050
14,683500	0,5	-0,036300
14,691833	0,5	-0,036900
14,700167	0,5	-0,040950
14,708500	0,5	-0,037350
14,716833	0,5	-0,044950
14,725167	0,5	-0,053850
14,733500	0,5	-0,047900
14,741833	0,5	-0,043100
14,750167	0,5	-0,053100
14,758500	0,5	-0,059250
14,766833	0,5	-0,067300
14,775167	0,5	-0,055600
14,783500	0,5	-0,061150
14,791833	0,5	-0,058700
14,800167	0,5	-0,064700
14,808500	0,5	-0,066300
14,816833	0,5	-0,074100
14,825167	0,5	-0,075650
14,833500	0,5	-0,086900
14,841833	0,5	-0,091300
14,850167	0,5	-0,092750
14,858500	0,5	-0,090100
14,866833	0,5	-0,104650
14,875167	0,5	-0,102050
14,883500	0,5	-0,097700
14,891833	0,5	-0,100800
14,900167	0,5	-0,108650
14,908500	0,5	-0,118500
14,916833	0,5	-0,122250
14,925167	0,5	-0,122350
14,933500	0,5	-0,119300
14,941833	0,5	-0,127500
14,950167	0,5	-0,126300
14,958500	0,5	-0,130750
14,966833	0,5	-0,124200
14,975167	0,5	-0,117800
14,983500	0,5	-0,110850
14,991833	0,5	-0,102250
15,000167	0,5	-0,100900
15,008500	0,5	-0,098000
15,016833	0,5	-0,111850
15,025167	0,5	-0,114000
15,033500	0,5	-0,121200
15,041833	0,5	-0,132300
15,050167	0,5	-0,144200
15,058500	0,5	-0,160300
15,066833	0,5	-0,161700
15,075167	0,5	-0,153300
15,083500	0,5	-0,157850
15,091833	0,5	-0,158450
15,100167	0,5	-0,162500
15,108500	0,5	-0,166000
15,116833	0,5	-0,174550
15,125167	0,5	-0,180600
15,133500	0,5	-0,194600
15,141833	0,5	-0,198600
15,150167	0,5	-0,203200
15,158500	0,5	-0,204150
15,166833	0,5	-0,222100
15,175167	0,5	-0,215650
15,183500	0,5	-0,221600
15,191833	0,5	-0,223550
15,200167	0,5	-0,235550
15,208500	0,5	-0,246450
15,216833	0,5	-0,242650
15,225167	0,5	-0,238750
15,233500	0,5	-0,237400
15,241833	0,5	-0,237050
15,250167	0,5	-0,234100
15,258500	0,5	-0,238500
15,266833	0,5	-0,238250
15,275167	0,5	-0,244200
15,283500	0,5	-0,251450
15,291833	0,5	-0,254050
15,300167	0,5	-0,254000
15,308500	0,5	-0,271850
15,316833	0,5	-0,277800
15,325167	0,5	-0,275450
15,333500	0,5	-0,285000
15,341833	0,5	-0,291850
15,350167	0,5	-0,307350
15,358500	0,5	-0,316250
15,366833	0,5	-0,319750
15,375167	0,5	-0,321000
15,383500	0,5	-0,322500
15,391833	0,5	-0,319950
15,400167	0,5	-0,320400
15,408500	0,5	-0,313350
15,416833	0,5	-0,315500
15,425167	0,5	-0,313750
15,433500	0,5	-0,316800
15,441833	0,5	-0,313400
15,450167	0,5	-0,321050
15,458500	0,5	-0,333650
15,466833	0,5	-0,335750
15,475167	0,5	-0,335250
15,483500	0,5	-0,350650
15,491833	0,5	-0,357050
15,500167	0,5	-0,376750
15,508500	0,5	-0,374000
15,516833	0,5	-0,377050
15,525167	0,5	-0,374300
15,533500	0,5	-0,376400
15,541833	0,5	-0,380000
15,550167	0,5	-0,381100
15,558500	0,5	-0,383600
15,566833	0,5	-0,383650
15,575167	0,5	-0,388550
15,583500	0,5	-0,382900
15,591833	0,5	-0,382200
15,600167	0,5	-0,384450
15,608500	0,5	-0,400950
15,616833	0,5	-0,385400
15,625167	0,5	-0,391300
15,633500	0,5	-0,394650
15,641833	0,5	-0,409750
15,650167	0,5	-0,418100
15,658500	0,5	-0,417100
15,666833	0,5	-0,417100
15,675167	0,5	-0,424550
15,683500	0,5	-0,428700
15,691833	0,5	-0,434200
15,700167	0,5	-0,434600
15,708500	0,5	-0,433500
15,716833	0,5	-0,438600
15,725167	0,5	-0,440400
15,733500	0,5	-0,439500
15,741833	0,5	-0,431050
15,750167	0,5	-0,444600
15,758500	0,5	-0,449750
15,766833	0,5	-0,443600
15,775167	0,5	-0,447000
15,783500	0,5	-0,457500
15,791833	0,5	-0,471300
15,800167	0,5	-0,482750
15,808500	0,5	-0,475350
15,816833	0,5	-0,480150
15,825167	0,5	-0,477900
15,833500	0,5	-0,483900
15,841833	0,5	-0,483200
15,850167	0,5	-0,488600
15,858500	0,5	-0,489050
15,866833	0,5	-0,489650
15,875167	0,5	-0,498100
15,883500	0,5	-0,496900
15,891833	0,5	-0,491650
15,900167	0,5	-0,510100
15,908500	0,5	-0,503500
15,916833	0,5	-0,505000
15,925167	0,5	-0,513400
15,933500	0,5	-0,519600
15,941833	0,5	-0,543750
15,950167	0,5	-0,539400
15,958500	0,5	-0,544950
15,966833	0,5	-0,546200
15,975167	0,5	-0,554000
15,983500	0,5	-0,554050
15,991833	0,5	-0,561300
16,000167	0,5	-0,561500
16,008500	0,5	-0,561450
16,016833	0,5	-0,564600
16,025167	0,5	-0,567650
16,033500	0,5	-0,571950
16,041833	0,5	-0,567650
16,050167	0,5	-0,579200
16,058500	0,5	-0,564050
16,066833	0,5	-0,565400
16,075167	0,5	-0,564200
16,083500	0,5	-0,574150
16,091833	0,5	-0,590650
16,100167	0,5	-0,590100
16,108500	0,5	-0,585800
16,116833	0,5	-0,594100
16,125167	0,5	-0,587350
16,133500	0,5	-0,598650
16,141833	0,5	-0,594000
16,150167	0,5	-0,600300
16,158500	0,5	-0,601300
16,166833	0,5	-0,609000
16,175167	0,5	-0,609700
16,183500	0,5	-0,612050
16,191833	0,5	-0,611450
16,200167	0,5	-0,619150
16,208500	0,5	-0,606700
16,216833	0,5	-0,614900
16,225167	0,5	-0,617900
16,233500	0,5	-0,632150
16,241833	0,5	-0,649200
16,250167	0,5	-0,643550
16,258500	0,5	-0,647300
16,266833	0,5	-0,645400
16,275167	0,5	-0,653100
16,283500	0,5	-0,650550
16,291833	0,5	-0,655250
16,300167	0,5	-0,649550
16,308500	0,5	-0,650000
16,316833	0,5	-0,652350
16,325167	0,5	-0,654050
16,333500	0,5	-0,654400
16,341833	0,5	-0,668900
16,350167	0,5	-0,658900
16,358500	0,5	-0,658400
16,366833	0,5	-0,662950
16,375167	0,5	-0,671950
16,383500	0,5	-0,684800
16,391833	0,5	-0,688700
16,400167	0,5	-0,699100
16,408500	0,5	-0,698250
16,416833	0,5	-0,700400
16,425167	0,5	-0,701500
16,433500	0,5	-0,707000
16,441833	0,5	-0,705350
16,450167	0,5	-0,712750
16,458500	0,5	-0,710650
16,466833	0,5	-0,718050
16,475167	0,5	-0,713550
16,483500	0,5	-0,726550
16,491833	0,5	-0,733950
16,500167	0,5	-0,729600
16,508500	0,5	-0,725550
16,516833	0,5	-0,734900
16,525167	0,5	-0,744700
16,533500	0,5	-0,756900
16,541833	0,5	-0,751900
16,550167	0,5	-0,756300
16,558500	0,5	-0,757300
16,566833	0,5	-0,758050
16,575167	0,5	-0,761300
16,583500	0,5	-0,760200
16,591833	0,5	-0,761850
16,600167	0,5	-0,757550
16,608500	0,5	-0,769000
16,616833	0,5	-0,765650
16,625167	0,5	-0,770800
16,633500	0,5	-0,783850
16,641833	0,5	-0,783450
16,650167	0,5	-0,777500
16,658500	0,5	-0,778500
16,666833	0,5	-0,785650
16,675167	0,5	-0,799700
16,683500	0,5	-0,803800
16,691833	0,5	-0,801850
16,700167	0,5	-0,804300
16,708500	0,5	-0,806150
16,716833	0,5	-0,806500
16,725167	0,5	-0,812600
16,733500	0,5	-0,811850
16,741833	0,5	-0,811400
16,750167	0,5	-0,812750
16,758500	0,5	-0,816850
16,766833	0,5	-0,819700
16,775167	0,5	-0,813200
16,783500	0,5	-0,830200
16,791833	0,5	-0,818800
16,800167	0,5	-0,817700
16,808500	0,5	-0,820200
16,816833	0,5	-0,827850
16,825167	0,5	-0,845700
16,833500	0,5	-0,839500
16,841833	0,5	-0,834900
16,850167	0,5	-0,841950
16,858500	0,5	-0,839350
16,866833	0,5	-0,844800
16,875167	0,5	-0,839400
16,883500	0,5	-0,845150
16,891833	0,5	-0,846200
16,900167	0,5	-0,850100
16,908500	0,5	-0,855100
16,916833	0,5	-0,847600
16,925167	0,5	-0,852250
16,933500	0,5	-0,868550
16,941833	0,5	-0,856800
16,950167	0,5	-0,860050
16,958500	0,5	-0,864050
16,966833	0,5	-0,870350
16,975167	0,5	-0,888050
16,983500	0,5	-0,878000
16,991833	0,5	-0,878800
17,000167	0,5	-0,880200
17,008500	0,5	-0,887700
17,016833	0,5	-0,886550
17,025167	0,5	-0,889400
17,033500	0,5	-0,885050
17,041833	0,5	-0,889350
17,050167	0,5	-0,892200
17,058500	0,5	-0,892100
17,066833	0,5	-0,885300
17,075167	0,5	-0,892750
17,083500	0,5	-0,890350
17,091833	0,5	-0,874100
17,100167	0,5	-0,875650
17,108500	0,5	-0,876400
17,116833	0,5	-0,887750
17,125167	0,5	-0,893800
17,133500	0,5	-0,897950
17,141833	0,5	-0,890400
17,150167	0,5	-0,895150
17,158500	0,5	-0,888050
17,166833	0,5	-0,891050
17,175167	0,5	-0,884650
17,183500	0,5	-0,883700
17,191833	0,5	-0,881850
17,200167	0,5	-0,884350
17,208500	0,5	-0,888250
17,216833	0,5	-0,897350
17,225167	0,5	-0,907350
17,233500	0,5	-0,915250
17,241833	0,5	-0,916800
17,250167	0,5	-0,925100
17,258500	0,5	-0,937850
17,266833	0,5	-0,952100
17,275167	0,5	-0,958150
17,283500	0,5	-0,957000
17,291833	0,5	-0,963450
17,300167	0,5	-0,958300
17,308500	0,5	-0,960300
17,316833	0,5	-0,960350
17,325167	0,5	-0,964100
17,333500	0,5	-0,956100
17,341833	0,5	-0,959350
17,350167	0,5	-0,955250
17,358500	0,5	-0,948850
17,366833	0,5	-0,947500
17,375167	0,5	-0,960800
17,383500	0,5	-0,949800
17,391833	0,5	-0,945350
17,400167	0,5	-0,952550
17,408500	0,5	-0,962350
17,416833	0,5	-0,973150
17,425167	0,5	-0,967950
17,433500	0,5	-0,970200
17,441833	0,5	-0,968100
17,450167	0,5	-0,968850
17,458500	0,5	-0,965300
17,466833	0,5	-0,967700
17,475167	0,5	-0,960450
17,483500	0,5	-0,961550
17,491833	0,5	-0,958000
17,500167	0,5	-0,962350
17,508500	0,5	-0,952550
17,516833	0,5	-0,967450
17,525167	0,5	-0,959850
17,533500	0,5	-0,950800
17,541833	0,5	-0,946200
17,550167	0,5	-0,953850
17,558500	0,5	-0,963400
17,566833	0,5	-0,967050
17,575167	0,5	-0,962150
17,583500	0,5	-0,956900
17,591833	0,5	-0,956400
17,600167	0,5	-0,950800
17,608500	0,5	-0,947450
17,616833	0,5	-0,941100
17,625167	0,5	-0,938800
17,633500	0,5	-0,931750
17,641833	0,5	-0,933550
17,650167	0,5	-0,930650
17,658500	0,5	-0,921600
17,666833	0,5	-0,932650
17,675167	0,5	-0,918800
17,683500	0,5	-0,909450
17,691833	0,5	-0,909750
17,700167	0,5	-0,905050
17,708500	0,5	-0,919700
17,716833	0,5	-0,905450
17,725167	0,5	-0,897700
17,733500	0,5	-0,896750
17,741833	0,5	-0,892400
17,750167	0,5	-0,885950
17,758500	0,5	-0,881750
17,766833	0,5	-0,878950
17,775167	0,5	-0,871550
17,783500	0,5	-0,870550
17,791833	0,5	-0,869350
17,800167	0,5	-0,869600
17,808500	0,5	-0,865100
17,816833	0,5	-0,881050
17,825167	0,5	-0,858500
17,833500	0,5	-0,860800
17,841833	0,5	-0,860900
17,850167	0,5	-0,870250
17,858500	0,5	-0,886250
17,866833	0,5	-0,878350
17,875167	0,5	-0,877000
17,883500	0,5	-0,878900
17,891833	0,5	-0,874250
17,900167	0,5	-0,873050
17,908500	0,5	-0,872800
17,916833	0,5	-0,870750
17,925167	0,5	-0,870800
17,933500	0,5	-0,870800
17,941833	0,5	-0,869250
17,950167	0,5	-0,862300
17,958500	0,5	-0,866100
17,966833	0,5	-0,870650
17,975167	0,5	-0,862050
17,983500	0,5	-0,862600
17,991833	0,5	-0,873600
18,000167	0,5	-0,881650
18,008500	0,5	-0,897750
18,016833	0,5	-0,890400
18,025167	0,5	-0,892650
18,033500	0,5	-0,895450
18,041833	0,5	-0,897450
18,050167	0,5	-0,898600
18,058500	0,5	-0,904300
18,066833	0,5	-0,902400
18,075167	0,5	-0,904250
18,083500	0,5	-0,907450
18,091833	0,5	-0,904500
18,100167	0,5	-0,907100
18,108500	0,5	-0,919150
18,116833	0,5	-0,917150
18,125167	0,5	-0,910300
18,133500	0,5	-0,917050
18,141833	0,5	-0,927650
18,150167	0,5	-0,948400
18,158500	0,5	-0,950850
18,166833	0,5	-0,955350
18,175167	0,5	-0,953250
18,183500	0,5	-0,960050
18,191833	0,5	-0,958600
18,200167	0,5	-0,963650
18,208500	0,5	-0,965350
18,216833	0,5	-0,969850
18,225167	0,5	-0,968900
18,233500	0,5	-0,974150
18,241833	0,5	-0,971850
18,250167	0,5	-0,981900
18,258500	0,5	-0,989450
18,266833	0,5	-0,984700
18,275167	0,5	-0,986300
18,283500	0,5	-0,992200
18,291833	0,5	-1,012450
18,300167	0,5	-1,023750
18,308500	0,5	-1,029250
18,316833	0,5	-1,024200
18,325167	0,5	-1,029800
18,333500	0,5	-1,027800
18,341833	0,5	-1,034150
18,350167	0,5	-1,034550
18,358500	0,5	-1,040700
18,366833	0,5	-1,039300
18,375167	0,5	-1,045750
18,383500	0,5	-1,051200
18,391833	0,5	-1,050400
18,400167	0,5	-1,067550
18,408500	0,5	-1,068300
18,416833	0,5	-1,062350
18,425167	0,5	-1,068850
18,433500	0,5	-1,078150
18,441833	0,5	-1,097700
18,450167	0,5	-1,106100
18,458500	0,5	-1,105500
18,466833	0,5	-1,112400
18,475167	0,5	-1,113550
18,483500	0,5	-1,122550
18,491833	0,5	-1,121250
18,500167	0,5	-1,128150
18,508500	0,5	-1,128100
18,516833	0,5	-1,135800
18,525167	0,5	-1,139950
18,533500	0,5	-1,139900
18,541833	0,5	-1,139450
18,550167	0,5	-1,165500
18,558500	0,5	-1,155700
18,566833	0,5	-1,157350
18,575167	0,5	-1,162700
18,583500	0,5	-1,175150
18,591833	0,5	-1,196400
18,600167	0,5	-1,190800
18,608500	0,5	-1,195150
18,616833	0,5	-1,196150
18,625167	0,5	-1,205300
18,633500	0,5	-1,206850
18,641833	0,5	-1,209650
18,650167	0,5	-1,208800
18,658500	0,5	-1,215300
18,666833	0,5	-1,220550
18,675167	0,5	-1,225550
18,683500	0,5	-1,216500
18,691833	0,5	-1,220550
18,700167	0,5	-1,230550
18,708500	0,5	-1,219600
18,716833	0,5	-1,219800
18,725167	0,5	-1,231650
18,733500	0,5	-1,239600
18,741833	0,5	-1,257900
18,750167	0,5	-1,257050
18,758500	0,5	-1,262250
18,766833	0,5	-1,269150
18,775167	0,5	-1,275050
18,783500	0,5	-1,277450
18,791833	0,5	-1,283650
18,800167	0,5	-1,282750
18,808500	0,5	-1,281900
18,816833	0,5	-1,293300
18,825167	0,5	-1,299250
18,833500	0,5	-1,302300
18,841833	0,5	-1,307900
18,850167	0,5	-1,317800
18,858500	0,5	-1,305400
18,866833	0,5	-1,314550
18,875167	0,5	-1,325500
18,883500	0,5	-1,345000
18,891833	0,5	-1,357100
18,900167	0,5	-1,358250
18,908500	0,5	-1,363250
18,916833	0,5	-1,365300
18,925167	0,5	-1,374050
18,933500	0,5	-1,377250
18,941833	0,5	-1,383400
18,950167	0,5	-1,386300
18,958500	0,5	-1,394700
18,966833	0,5	-1,393600
18,975167	0,5	-1,400800
18,983500	0,5	-1,397350
18,991833	0,5	-1,416800
19,000167	0,5	-1,407600
19,008500	0,5	-1,413400
19,016833	0,5	-1,415400
19,025167	0,5	-1,432300
19,033500	0,5	-1,444600
19,041833	0,5	-1,445400
19,050167	0,5	-1,444200
19,058500	0,5	-1,450100
19,066833	0,5	-1,453750
19,075167	0,5	-1,456400
19,083500	0,5	-1,462500
19,091833	0,5	-1,466800
19,100167	0,5	-1,476050
19,108500	0,5	-1,479950
19,116833	0,5	-1,485150
19,125167	0,5	-1,478950
19,133500	0,5	-1,486550
19,141833	0,5	-1,494500
19,150167	0,5	-1,483500
19,158500	0,5	-1,490600
19,166833	0,5	-1,494200
19,175167	0,5	-1,512050
19,183500	0,5	-1,529700
19,191833	0,5	-1,536850
19,200167	0,5	-1,547250
19,208500	0,5	-1,547000
19,216833	0,5	-1,555100
19,225167	0,5	-1,554500
19,233500	0,5	-1,557100
19,241833	0,5	-1,560400
19,250167	0,5	-1,563400
19,258500	0,5	-1,572650
19,266833	0,5	-1,566550
19,275167	0,5	-1,566750
19,283500	0,5	-1,582900
19,291833	0,5	-1,585950
19,300167	0,5	-1,582150
19,308500	0,5	-1,591700
19,316833	0,5	-1,595300
19,325167	0,5	-1,619700
19,333500	0,5	-1,622550
19,341833	0,5	-1,623900
19,350167	0,5	-1,615200
19,358500	0,5	-1,616050
19,366833	0,5	-1,608700
19,375167	0,5	-1,613450
19,383500	0,5	-1,602700
19,391833	0,5	-1,592800
19,400167	0,5	-1,587900
19,408500	0,5	-1,581750
19,416833	0,5	-1,586200
19,425167	0,5	-1,595800
19,433500	0,5	-1,623350
19,441833	0,5	-1,629050
19,450167	0,5	-1,637300
19,458500	0,5	-1,652800
19,466833	0,5	-1,672450
19,475167	0,5	-1,691100
19,483500	0,5	-1,693200
19,491833	0,5	-1,690500
19,500167	0,5	-1,704300
19,508500	0,5	-1,701100
19,516833	0,5	-1,715600
19,525167	0,5	-1,710450
19,533500	0,5	-1,711050
19,541833	0,5	-1,715500
19,550167	0,5	-1,717600
19,558500	0,5	-1,721550
19,566833	0,5	-1,707750
19,575167	0,5	-1,720150
19,583500	0,5	-1,733800
19,591833	0,5	-1,726300
19,600167	0,5	-1,724950
19,608500	0,5	-1,738300
19,616833	0,5	-1,753800
19,625167	0,5	-1,765250
19,633500	0,5	-1,758450
19,641833	0,5	-1,771250
19,650167	0,5	-1,771500
19,658500	0,5	-1,784450
19,666833	0,5	-1,783550
19,675167	0,5	-1,793050
19,683500	0,5	-1,791250
19,691833	0,5	-1,796400
19,700167	0,5	-1,798500
19,708500	0,5	-1,790150
19,716833	0,5	-1,775050
19,725167	0,5	-1,784450
19,733500	0,5	-1,771750
19,741833	0,5	-1,761600
19,750167	0,5	-1,759950
19,758500	0,5	-1,768400
19,766833	0,5	-1,792900
19,775167	0,5	-1,796650
19,783500	0,5	-1,810300
19,791833	0,5	-1,815900
19,800167	0,5	-1,831550
19,808500	0,5	-1,830000
19,816833	0,5	-1,844100
19,825167	0,5	-1,844300
19,833500	0,5	-1,850700
19,841833	0,5	-1,850150
19,850167	0,5	-1,855600
19,858500	0,5	-1,853900
19,866833	0,5	-1,856250
19,875167	0,5	-1,868850
19,883500	0,5	-1,860650
19,891833	0,5	-1,863800
19,900167	0,5	-1,866950
19,908500	0,5	-1,883100
19,916833	0,5	-1,901150
19,925167	0,5	-1,901050
19,933500	0,5	-1,895850
19,941833	0,5	-1,907100
19,950167	0,5	-1,903800
19,958500	0,5	-1,909600
19,966833	0,5	-1,904900
19,975167	0,5	-1,911800
19,983500	0,5	-1,916000
19,991833	0,5	-1,923950
20,000167	0,5	-1,918500
20,008500	0,5	-1,918950
20,016833	0,5	-1,924200
20,025167	0,5	-1,936900
20,033500	0,5	-1,926200
20,041833	0,5	-1,937000
20,050167	0,5	-1,943950
20,058500	0,5	-1,960000
20,066833	0,5	-1,976050
20,075167	0,5	-1,968700
20,083500	0,5	-1,969650
20,091833	0,5	-1,972000
20,100167	0,5	-1,980400
20,108500	0,5	-1,977050
20,116833	0,5	-1,986200
20,125167	0,5	-1,980050
20,133500	0,5	-1,980550
20,141833	0,5	-1,979100
20,150167	0,5	-1,965500
20,158500	0,5	-1,963000
20,166833	0,5	-1,974400
20,175167	0,5	-1,968850
20,183500	0,5	-1,964900
20,191833	0,5	-1,971200
20,200167	0,5	-1,977650
20,208500	0,5	-1,988800
20,216833	0,5	-1,989550
20,225167	0,5	-1,991550
20,233500	0,5	-1,986800
20,241833	0,5	-1,992000
20,250167	0,5	-1,982200
20,258500	0,5	-1,986150
20,266833	0,5	-1,983200
20,275167	0,5	-1,987250
20,283500	0,5	-1,985500
20,291833	0,5	-1,984950
20,300167	0,5	-1,968750
20,308500	0,5	-1,978450
20,316833	0,5	-1,983200
20,325167	0,5	-1,977250
20,333500	0,5	-1,976300
20,341833	0,5	-1,982350
20,350167	0,5	-2,000950
20,358500	0,5	-2,001900
20,366833	0,5	-1,999800
20,375167	0,5	-1,994400
20,383500	0,5	-1,994500
20,391833	0,5	-1,992800
20,400167	0,5	-1,992550
20,408500	0,5	-1,988000
20,416833	0,5	-1,987300
20,425167	0,5	-1,984600
20,433500	0,5	-1,985600
20,441833	0,5	-1,961950
20,450167	0,5	-1,952100
20,458500	0,5	-1,949700
20,466833	0,5	-1,957750
20,475167	0,5	-1,948800
20,483500	0,5	-1,956300
20,491833	0,5	-1,959100
20,500167	0,5	-1,979350
20,508500	0,5	-1,975900
20,516833	0,5	-1,967200
20,525167	0,5	-1,969700
20,533500	0,5	-1,965000
20,541833	0,5	-1,969950
20,550167	0,5	-1,966100
20,558500	0,5	-1,967200
20,566833	0,5	-1,962150
20,575167	0,5	-1,964050
20,583500	0,5	-1,966000
20,591833	0,5	-1,948250
20,600167	0,5	-1,940500
20,608500	0,5	-1,961200
20,616833	0,5	-1,956150
20,625167	0,5	-1,965300
20,633500	0,5	-1,972000
20,641833	0,5	-1,989250
20,650167	0,5	-2,005900
20,658500	0,5	-1,997650
20,666833	0,5	-1,997600
20,675167	0,5	-2,000650
20,683500	0,5	-2,005550
20,691833	0,5	-2,005000
20,700167	0,5	-2,009600
20,708500	0,5	-2,009350
20,716833	0,5	-2,011800
20,725167	0,5	-2,007400
20,733500	0,5	-2,003900
20,741833	0,5	-1,985200
20,750167	0,5	-1,980200
20,758500	0,5	-1,991000
20,766833	0,5	-1,992200
20,775167	0,5	-1,995150
20,783500	0,5	-2,014750
20,791833	0,5	-2,025550
20,800167	0,5	-2,033500
20,808500	0,5	-2,024550
20,816833	0,5	-2,025200
20,825167	0,5	-2,026900
20,833500	0,5	-2,028400
20,841833	0,5	-2,027200
20,850167	0,5	-2,023200
20,858500	0,5	-2,022250
20,866833	0,5	-2,018550
20,875167	0,5	-2,018350
20,883500	0,5	-1,995250
20,891833	0,5	-1,978850
20,900167	0,5	-1,980700
20,908500	0,5	-1,985100
20,916833	0,5	-1,987650
20,925167	0,5	-1,991900
20,933500	0,5	-1,998650
20,941833	0,5	-2,016650
20,950167	0,5	-2,011750
20,958500	0,5	-2,001000
20,966833	0,5	-2,009400
20,975167	0,5	-1,998300
20,983500	0,5	-1,991750
20,991833	0,5	-1,984350
21,000167	0,5	-1,979600
21,008500	0,5	-1,971900
21,016833	0,5	-1,974200
21,025167	0,5	-1,963950
21,033500	0,5	-1,937250
21,041833	0,5	-1,923050
21,050167	0,5	-1,928450
21,058500	0,5	-1,925850
21,066833	0,5	-1,934200
21,075167	0,5	-1,932200
21,083500	0,5	-1,950050
21,091833	0,5	-1,959200
21,100167	0,5	-1,953650
21,108500	0,5	-1,946350
21,116833	0,5	-1,947050
21,125167	0,5	-1,937000
21,133500	0,5	-1,931000
21,141833	0,5	-1,929050
21,150167	0,5	-1,921350
21,158500	0,5	-1,907050
21,166833	0,5	-1,904600
21,175167	0,5	-1,886650
21,183500	0,5	-1,861650
21,191833	0,5	-1,852000
21,200167	0,5	-1,854300
21,208500	0,5	-1,850400
21,216833	0,5	-1,851850
21,225167	0,5	-1,866300
21,233500	0,5	-1,866350
21,241833	0,5	-1,863900
21,250167	0,5	-1,862900
21,258500	0,5	-1,856400
21,266833	0,5	-1,845650
21,275167	0,5	-1,841150
21,283500	0,5	-1,830750
21,291833	0,5	-1,821300
21,300167	0,5	-1,816300
21,308500	0,5	-1,808350
21,316833	0,5	-1,805500
21,325167	0,5	-1,773750
21,333500	0,5	-1,752950
21,341833	0,5	-1,758150
21,350167	0,5	-1,760500
21,358500	0,5	-1,754900
21,366833	0,5	-1,766900
21,375167	0,5	-1,775350
21,383500	0,5	-1,776200
21,391833	0,5	-1,770800
21,400167	0,5	-1,768700
21,408500	0,5	-1,757850
21,416833	0,5	-1,753250
21,425167	0,5	-1,748700
21,433500	0,5	-1,741550
21,441833	0,5	-1,731900
21,450167	0,5	-1,726400
21,458500	0,5	-1,722250
21,466833	0,5	-1,694950
21,475167	0,5	-1,670250
21,483500	0,5	-1,661800
21,491833	0,5	-1,660150
21,500167	0,5	-1,655300
21,508500	0,5	-1,654200
21,516833	0,5	-1,645650
21,525167	0,5	-1,652950
21,533500	0,5	-1,631400
21,541833	0,5	-1,613100
21,550167	0,5	-1,594000
21,558500	0,5	-1,569300
21,566833	0,5	-1,532600
21,575167	0,5	-1,498150
21,583500	0,5	-1,460650
21,591833	0,5	-1,440500
21,600167	0,5	-1,434850
21,608500	0,5	-1,440450
21,616833	0,5	-1,429550
21,625167	0,5	-1,423300
21,633500	0,5	-1,440100
21,641833	0,5	-1,436000
21,650167	0,5	-1,431600
21,658500	0,5	-1,430850
21,666833	0,5	-1,437550
21,675167	0,5	-1,440750
21,683500	0,5	-1,420700
21,691833	0,5	-1,404200
21,700167	0,5	-1,400350
21,708500	0,5	-1,384300
21,716833	0,5	-1,369350
21,725167	0,5	-1,352150
21,733500	0,5	-1,335150
21,741833	0,5	-1,322650
21,750167	0,5	-1,302500
21,758500	0,5	-1,274200
21,766833	0,5	-1,231350
21,775167	0,5	-1,214550
21,783500	0,5	-1,204000
21,791833	0,5	-1,186600
21,800167	0,5	-1,169300
21,808500	0,5	-1,164500
21,816833	0,5	-1,154100
21,825167	0,5	-1,140100
21,833500	0,5	-1,117150
21,841833	0,5	-1,096000
21,850167	0,5	-1,078650
21,858500	0,5	-1,069750
21,866833	0,5	-1,051950
21,875167	0,5	-1,035250
21,883500	0,5	-1,018850
21,891833	0,5	-0,999200
21,900167	0,5	-0,981300
21,908500	0,5	-0,944600
21,916833	0,5	-0,922100
21,925167	0,5	-0,910900
21,933500	0,5	-0,887200
21,941833	0,5	-0,865450
21,950167	0,5	-0,856000
21,958500	0,5	-0,842100
21,966833	0,5	-0,828600
21,975167	0,5	-0,806700
21,983500	0,5	-0,776250
21,991833	0,5	-0,748250
22,000167	0,5	-0,717900
22,008500	0,5	-0,688100
22,016833	0,5	-0,665900
22,025167	0,5	-0,636600
22,033500	0,5	-0,609050
22,041833	0,5	-0,589350
22,050167	0,5	-0,553050
22,058500	0,5	-0,521150
22,066833	0,5	-0,499050
22,075167	0,5	-0,471850
22,083500	0,5	-0,425050
22,091833	0,5	-0,407450
22,100167	0,5	-0,370200
22,108500	0,5	-0,349500
22,116833	0,5	-0,311700
22,125167	0,5	-0,270050
22,133500	0,5	-0,221600
22,141833	0,5	-0,180650
22,150167	0,5	-0,132000
22,158500	0,5	-0,092600
22,166833	0,5	-0,049750
22,175167	0,5	-0,008850
22,183500	0,5	0,022800
22,191833	0,5	0,069500
22,200167	0,5	0,104400
22,208500	0,5	0,146150
22,216833	0,5	0,176550
22,225167	0,5	0,234650
22,233500	0,5	0,280150
22,241833	0,5	0,322000
22,250167	0,5	0,354600
22,258500	0,5	0,393650
22,266833	0,5	0,442500
22,275167	0,5	0,494100
22,283500	0,5	0,537600
22,291833	0,5	0,595150
22,300167	0,5	0,636350
22,308500	0,5	0,683600
22,316833	0,5	0,732400
22,325167	0,5	0,778150
22,333500	0,5	0,823900
22,341833	0,5	0,866750
22,350167	0,5	0,908750
22,358500	0,5	0,944800
22,366833	0,5	1,020100
22,375167	0,5	1,077800
22,383500	0,5	1,130450
22,391833	0,5	1,173850
22,400167	0,5	1,218600
22,408500	0,5	1,273850
22,416833	0,5	1,341250
22,425167	0,5	1,398400
22,433500	0,5	1,462900
22,441833	0,5	1,521300
22,450167	0,5	1,585950
22,458500	0,5	1,644500
22,466833	0,5	1,704900
22,475167	0,5	1,766750
22,483500	0,5	1,822700
22,491833	0,5	1,870600
22,500167	0,5	1,921100
22,508500	0,5	1,977100
22,516833	0,5	2,059900
22,525167	0,5	2,122950
22,533500	0,5	2,171850
22,541833	0,5	2,219850
22,550167	0,5	2,248150
22,558500	0,5	2,308250
22,566833	0,5	2,344550
22,575167	0,5	2,382700
22,583500	0,5	2,405850
22,591833	0,5	2,434600
22,600167	0,5	2,455600
22,608500	0,5	2,475450
22,616833	0,5	2,487350
22,625167	0,5	2,487800
22,633500	0,5	2,480250
22,641833	0,5	2,419500
22,650167	0,5	2,418000
22,658500	0,5	2,386750
22,666833	0,5	2,366500
22,675167	0,5	2,309950
22,683500	0,5	2,249150
22,691833	0,5	2,164400
22,700167	0,5	2,081900
22,708500	0,5	2,005450
22,716833	0,5	1,925950
22,725167	0,5	1,829600
22,733500	0,5	1,745600
22,741833	0,5	1,649250
22,750167	0,5	1,549600
22,758500	0,5	1,445600
22,766833	0,5	1,337300
22,775167	0,5	1,215850
22,783500	0,5	1,075200
22,791833	0,5	0,927050
22,800167	0,5	0,808450
22,808500	0,5	0,693650
22,816833	0,5	0,557300
22,825167	0,5	0,405400
22,833500	0,5	0,267450
22,841833	0,5	0,116500
22,850167	0,5	-0,027450
22,858500	0,5	-0,173300
22,866833	0,5	-0,314000
22,875167	0,5	-0,449800
22,883500	0,5	-0,581500
22,891833	0,5	-0,716300
22,900167	0,5	-0,841950
22,908500	0,5	-0,970850
22,916833	0,5	-1,098450
22,925167	0,5	-1,218550
22,933500	0,5	-1,325100
22,941833	0,5	-1,447050
22,950167	0,5	-1,565350
22,958500	0,5	-1,703900
22,966833	0,5	-1,815350
22,975167	0,5	-1,911100
22,983500	0,5	-1,996400
22,991833	0,5	-2,075250
23,000167	0,5	-2,160450
23,008500	0,5	-2,226850
23,016833	0,5	-2,301300
23,025167	0,5	-2,349250
23,033500	0,5	-2,409700
23,041833	0,5	-2,455850
23,050167	0,5	-2,514400
23,058500	0,5	-2,560100
23,066833	0,5	-2,602350
23,075167	0,5	-2,638800
23,083500	0,5	-2,679950
23,091833	0,5	-2,709800
23,100167	0,5	-2,767150
23,108500	0,5	-2,828600
23,116833	0,5	-2,851050
23,125167	0,5	-2,880650
23,133500	0,5	-2,882550
23,141833	0,5	-2,896100
23,150167	0,5	-2,903100
23,158500	0,5	-2,911750
23,166833	0,5	-2,902550
23,175167	0,5	-2,899650
23,183500	0,5	-2,880500
23,191833	0,5	-2,877650
23,200167	0,5	-2,868700
23,208500	0,5	-2,857600
23,216833	0,5	-2,852350
23,225167	0,5	-2,824800
23,233500	0,5	-2,833950
23,241833	0,5	-2,804350
23,250167	0,5	-2,812400
23,258500	0,5	-2,828950
23,266833	0,5	-2,819750
23,275167	0,5	-2,807650
23,283500	0,5	-2,784750
23,291833	0,5	-2,768400
23,300167	0,5	-2,748800
23,308500	0,5	-2,719150
23,316833	0,5	-2,692800
23,325167	0,5	-2,660850
23,333500	0,5	-2,635300
23,341833	0,5	-2,599450
23,350167	0,5	-2,571400
23,358500	0,5	-2,538650
23,366833	0,5	-2,509400
23,375167	0,5	-2,527350
23,383500	0,5	-2,478250
23,391833	0,5	-2,439550
23,400167	0,5	-2,403650
23,408500	0,5	-2,400600
23,416833	0,5	-2,389100
23,425167	0,5	-2,369000
23,433500	0,5	-2,345550
23,441833	0,5	-2,330750
23,450167	0,5	-2,311050
23,458500	0,5	-2,290000
23,466833	0,5	-2,270650
23,475167	0,5	-2,248950
23,483500	0,5	-2,222850
23,491833	0,5	-2,200850
23,500167	0,5	-2,177800
23,508500	0,5	-2,155700
23,516833	0,5	-2,148300
23,525167	0,5	-2,195350
23,533500	0,5	-2,152450
23,541833	0,5	-2,086650
23,550167	0,5	-2,056950
23,558500	0,5	-2,046900
23,566833	0,5	-2,034500
23,575167	0,5	-2,023150
23,583500	0,5	-2,009600
23,591833	0,5	-1,995400
23,600167	0,5	-1,977750
23,608500	0,5	-1,961550
23,616833	0,5	-1,944300
23,625167	0,5	-1,933050
23,633500	0,5	-1,920300
23,641833	0,5	-1,909550
23,650167	0,5	-1,895850
23,658500	0,5	-1,887700
23,666833	0,5	-1,970100
23,675167	0,5	-1,976200
23,683500	0,5	-1,936000
23,691833	0,5	-1,882200
23,700167	0,5	-1,854150
23,708500	0,5	-1,846850
23,716833	0,5	-1,838000
23,725167	0,5	-1,838750
23,733500	0,5	-1,823900
23,741833	0,5	-1,809900
23,750167	0,5	-1,791750
23,758500	0,5	-1,777900
23,766833	0,5	-1,758950
23,775167	0,5	-1,744400
23,783500	0,5	-1,728500
23,791833	0,5	-1,708850
23,800167	0,5	-1,698250
23,808500	0,5	-1,688600
23,816833	0,5	-1,815650
23,825167	0,5	-1,764600
23,833500	0,5	-1,739950
23,841833	0,5	-1,676750
23,850167	0,5	-1,655100
23,858500	0,5	-1,642700
23,866833	0,5	-1,642700
23,875167	0,5	-1,644450
23,883500	0,5	-1,634500
23,891833	0,5	-1,616300
23,900167	0,5	-1,607750
23,908500	0,5	-1,592150
23,916833	0,5	-1,578250
23,925167	0,5	-1,566850
23,933500	0,5	-1,548400
23,941833	0,5	-1,531900
23,950167	0,5	-1,517150
23,958500	0,5	-1,538550
23,966833	0,5	-1,612150
23,975167	0,5	-1,580900
23,983500	0,5	-1,529950
23,991833	0,5	-1,473700
24,000167	0,5	-1,452300
24,008500	0,5	-1,435550
24,016833	0,5	-1,428350
24,025167	0,5	-1,426050
24,033500	0,5	-1,406700
24,041833	0,5	-1,395150
24,050167	0,5	-1,370050
24,058500	0,5	-1,354800
24,066833	0,5	-1,333600
24,075167	0,5	-1,318100
24,083500	0,5	-1,300700
24,091833	0,5	-1,285750
24,100167	0,5	-1,274250
24,108500	0,5	-1,341150
24,116833	0,5	-1,351100
24,125167	0,5	-1,328200
24,133500	0,5	-1,276400
24,141833	0,5	-1,233000
24,150167	0,5	-1,218000
24,158500	0,5	-1,204350
24,166833	0,5	-1,211900
24,175167	0,5	-1,197850
24,183500	0,5	-1,183600
24,191833	0,5	-1,156500
24,200167	0,5	-1,139850
24,208500	0,5	-1,116600
24,216833	0,5	-1,100550
24,225167	0,5	-1,079500
24,233500	0,5	-1,061200
24,241833	0,5	-1,037450
24,250167	0,5	-1,028750
24,258500	0,5	-1,089150
24,266833	0,5	-1,067200
24,275167	0,5	-1,044250
24,283500	0,5	-0,998300
24,291833	0,5	-0,971350
24,300167	0,5	-0,962100
24,308500	0,5	-0,955000
24,316833	0,5	-0,960350
24,325167	0,5	-0,942100
24,333500	0,5	-0,922050
24,341833	0,5	-0,913350
24,350167	0,5	-0,900200
24,358500	0,5	-0,892100
24,366833	0,5	-0,875300
24,375167	0,5	-0,861000
24,383500	0,5	-0,843550
24,391833	0,5	-0,829850
24,400167	0,5	-0,840150
24,408500	0,5	-0,873300
24,416833	0,5	-0,847100
24,425167	0,5	-0,826700
24,433500	0,5	-0,786100
24,441833	0,5	-0,767050
24,450167	0,5	-0,750900
24,458500	0,5	-0,749000
24,466833	0,5	-0,749250
24,475167	0,5	-0,724050
24,483500	0,5	-0,713800
24,491833	0,5	-0,700300
24,500167	0,5	-0,687850
24,508500	0,5	-0,675450
24,516833	0,5	-0,664550
24,525167	0,5	-0,653450
24,533500	0,5	-0,644350
24,541833	0,5	-0,635000
24,550167	0,5	-0,670500
24,558500	0,5	-0,657700
24,566833	0,5	-0,649850
24,575167	0,5	-0,625750
24,583500	0,5	-0,607900
24,591833	0,5	-0,592450
24,600167	0,5	-0,593350
24,608500	0,5	-0,590000
24,616833	0,5	-0,581850
24,625167	0,5	-0,565700
24,633500	0,5	-0,558600
24,641833	0,5	-0,548050
24,650167	0,5	-0,537300
24,658500	0,5	-0,526150
24,666833	0,5	-0,511200
24,675167	0,5	-0,503250
24,683500	0,5	-0,487850
24,691833	0,5	-0,483800
24,700167	0,5	-0,508300
24,708500	0,5	-0,490100
24,716833	0,5	-0,481950
24,725167	0,5	-0,463300
24,733500	0,5	-0,451150
24,741833	0,5	-0,444000
24,750167	0,5	-0,440550
24,758500	0,5	-0,446150
24,766833	0,5	-0,438100
24,775167	0,5	-0,432150
24,783500	0,5	-0,422300
24,791833	0,5	-0,418150
24,800167	0,5	-0,410450
24,808500	0,5	-0,402650
24,816833	0,5	-0,393450
24,825167	0,5	-0,382000
24,833500	0,5	-0,381000
24,841833	0,5	-0,377600
24,850167	0,5	-0,387550
24,858500	0,5	-0,372200
24,866833	0,5	-0,366100
24,875167	0,5	-0,348250
24,883500	0,5	-0,338900
24,891833	0,5	-0,331350
24,900167	0,5	-0,332750
24,908500	0,5	-0,331350
24,916833	0,5	-0,326900
24,925167	0,5	-0,313450
24,933500	0,5	-0,313500
24,941833	0,5	-0,307550
24,950167	0,5	-0,303000
24,958500	0,5	-0,298100
24,966833	0,5	-0,292700
24,975167	0,5	-0,285950
24,983500	0,5	-0,283600
24,991833	0,5	-0,285150
25,000167	0,5	-0,287650
25,008500	0,5	-0,282350
25,016833	0,5	-0,272050
25,025167	0,5	-0,267000
25,033500	0,5	-0,264600
25,041833	0,5	-0,260050
25,050167	0,5	-0,260800
25,058500	0,5	-0,257150
25,066833	0,5	-0,253200
25,075167	0,5	-0,247800
25,083500	0,5	-0,241450
25,091833	0,5	-0,238450
25,100167	0,5	-0,231700
25,108500	0,5	-0,228100
25,116833	0,5	-0,219600
25,125167	0,5	-0,216600
25,133500	0,5	-0,213350
25,141833	0,5	-0,214100
25,150167	0,5	-0,211050
25,158500	0,5	-0,208200
25,166833	0,5	-0,207500
25,175167	0,5	-0,204400
25,183500	0,5	-0,199700
25,191833	0,5	-0,201650
25,200167	0,5	-0,202500
25,208500	0,5	-0,200550
25,216833	0,5	-0,197700
25,225167	0,5	-0,199250
25,233500	0,5	-0,195000
25,241833	0,5	-0,191750
25,250167	0,5	-0,188600
25,258500	0,5	-0,185400
25,266833	0,5	-0,184950
25,275167	0,5	-0,178450
25,283500	0,5	-0,176900
25,291833	0,5	-0,171700
25,300167	0,5	-0,169500
25,308500	0,5	-0,166500
25,316833	0,5	-0,164250
25,325167	0,5	-0,162500
25,333500	0,5	-0,160450
25,341833	0,5	-0,160100
25,350167	0,5	-0,157650
25,358500	0,5	-0,159850
25,366833	0,5	-0,160850
25,375167	0,5	-0,157750
25,383500	0,5	-0,156400
25,391833	0,5	-0,158500
25,400167	0,5	-0,155650
25,408500	0,5	-0,153750
25,416833	0,5	-0,155250
25,425167	0,5	-0,154000
25,433500	0,5	-0,148250
25,441833	0,5	-0,147450
25,450167	0,5	-0,145350
25,458500	0,5	-0,142150
25,466833	0,5	-0,144900
25,475167	0,5	-0,144450
25,483500	0,5	-0,141450
25,491833	0,5	-0,137550
25,500167	0,5	-0,135700
25,508500	0,5	-0,135400
25,516833	0,5	-0,133650
25,525167	0,5	-0,132500
25,533500	0,5	-0,130800
25,541833	0,5	-0,131150
25,550167	0,5	-0,130550
25,558500	0,5	-0,131950
25,566833	0,5	-0,129550
25,575167	0,5	-0,131100
25,583500	0,5	-0,123800
25,591833	0,5	-0,128500
25,600167	0,5	-0,125100
25,608500	0,5	-0,128900
25,616833	0,5	-0,130350
25,625167	0,5	-0,129100
25,633500	0,5	-0,127950
25,641833	0,5	-0,120900
25,650167	0,5	-0,118000
25,658500	0,5	-0,122350
25,666833	0,5	-0,119850
25,675167	0,5	-0,118100
25,683500	0,5	-0,117000
25,691833	0,5	-0,118100
25,700167	0,5	-0,116550
25,708500	0,5	-0,115800
25,716833	0,5	-0,112100
25,725167	0,5	-0,110500
25,733500	0,5	-0,107250
25,741833	0,5	-0,104950
25,750167	0,5	-0,099900
25,758500	0,5	-0,105800
25,766833	0,5	-0,104500
25,775167	0,5	-0,103450
25,783500	0,5	-0,100800
25,791833	0,5	-0,090850
25,800167	0,5	-0,089350
25,808500	0,5	-0,086700
25,816833	0,5	-0,091500
25,825167	0,5	-0,089400
25,833500	0,5	-0,092000
25,841833	0,5	-0,086850
25,850167	0,5	-0,090650
25,858500	0,5	-0,089900
25,866833	0,5	-0,087750
25,875167	0,5	-0,087050
25,883500	0,5	-0,081650
25,891833	0,5	-0,082350
25,900167	0,5	-0,080450
25,908500	0,5	-0,087100
25,916833	0,5	-0,086350
25,925167	0,5	-0,083750
25,933500	0,5	-0,076800
25,941833	0,5	-0,068450
25,950167	0,5	-0,065700
25,958500	0,5	-0,073650
25,966833	0,5	-0,070850
25,975167	0,5	-0,070950
25,983500	0,5	-0,070850
25,991833	0,5	-0,074900
26,000167	0,5	-0,072600
