File Path	chrom://chromeleon01/ikbm_chromeleon/2022/ICS-5000/ED1/Esteban/20220612_Cell_7_4_eg.seq/444.smp/ED_1.channel/ED_1.chm
Channel	ED_1

Injection Information:
Data Vault	ikbm_chromeleon
Injection	CelS2_00h-EGS_3
Injection Number	133
Position	BD8
Comment	
Processing Method	Stop sequence after Cell Death
Instrument Method	ICS5000_PA200_FullNative_Ox_26min_ED1
Type	Unknown
Status	Finished
Injection Date	15.06.2022
Injection Time	07:03:16
Injection Volume (µl)	5,0
Dilution Factor	1,0000
Weight	1,0000

Chromatogram Data Information:
Time Min. (min)	0,000333
Time Max. (min)	26,000333
Data Points	3121
Detector	EDet1
Generating Data System	Chromeleon 7.2.9.11323
Exporting Data System	Chromeleon 7.2.9.0
Operator	Instrument Controller
Signal Quantity	
Signal Unit	nC
Signal Min.	-2,539250
Signal Max.	32,316900
Channel	ED_1
Driver Name	DC-5000
Channel Type	Evaluation
Min. Step (s)	0,5
Max. Step (s)	0,5
Average Step (s)	0,5

Signal Parameter Information:
Signal Info	

Chromatogram Data:
Time (min)	Step (s)	Value (nC)
0,000333	n.a.	-0,038100
0,008667	0,5	-0,079150
0,017000	0,5	-0,067650
0,025333	0,5	-0,061350
0,033667	0,5	-0,028300
0,042000	0,5	-0,040400
0,050333	0,5	-0,057450
0,058667	0,5	-0,048550
0,067000	0,5	-0,034950
0,075333	0,5	-0,002550
0,083667	0,5	0,008750
0,092000	0,5	0,003800
0,100333	0,5	0,004450
0,108667	0,5	-0,007100
0,117000	0,5	-0,003750
0,125333	0,5	-0,011200
0,133667	0,5	-0,007150
0,142000	0,5	-0,012300
0,150333	0,5	-0,019000
0,158667	0,5	-0,016100
0,167000	0,5	-0,044800
0,175333	0,5	-0,048100
0,183667	0,5	-0,009250
0,192000	0,5	-0,030550
0,200333	0,5	-0,049150
0,208667	0,5	-0,042050
0,217000	0,5	-0,038700
0,225333	0,5	0,004850
0,233667	0,5	-0,005300
0,242000	0,5	-0,001500
0,250333	0,5	-0,014150
0,258667	0,5	-0,006750
0,267000	0,5	-0,018850
0,275333	0,5	-0,019500
0,283667	0,5	-0,028900
0,292000	0,5	-0,026500
0,300333	0,5	-0,004350
0,308667	0,5	-0,004350
0,317000	0,5	-0,030250
0,325333	0,5	-0,044500
0,333667	0,5	-0,033300
0,342000	0,5	-0,053800
0,350333	0,5	-0,061150
0,358667	0,5	-0,057300
0,367000	0,5	-0,044750
0,375333	0,5	-0,017050
0,383667	0,5	-0,019050
0,392000	0,5	-0,036050
0,400333	0,5	-0,025150
0,408667	0,5	-0,036550
0,417000	0,5	-0,024000
0,425333	0,5	-0,028400
0,433667	0,5	-0,025050
0,442000	0,5	-0,034600
0,450333	0,5	-0,035950
0,458667	0,5	-0,033900
0,467000	0,5	-0,048500
0,475333	0,5	-0,042150
0,483667	0,5	-0,024850
0,492000	0,5	-0,048100
0,500333	0,5	-0,045650
0,508667	0,5	-0,037700
0,517000	0,5	-0,011300
0,525333	0,5	0,012250
0,533667	0,5	-0,013250
0,542000	0,5	0,001800
0,550333	0,5	-0,005300
0,558667	0,5	0,007500
0,567000	0,5	-0,001200
0,575333	0,5	0,006200
0,583667	0,5	-0,005200
0,592000	0,5	0,001100
0,600333	0,5	-0,000150
0,608667	0,5	0,000300
0,617000	0,5	-0,016150
0,625333	0,5	0,011250
0,633667	0,5	0,008000
0,642000	0,5	-0,003750
0,650333	0,5	-0,001200
0,658667	0,5	0,013650
0,667000	0,5	0,047600
0,675333	0,5	0,061600
0,683667	0,5	0,061400
0,692000	0,5	0,055250
0,700333	0,5	0,057800
0,708667	0,5	0,058900
0,717000	0,5	0,062950
0,725333	0,5	0,057150
0,733667	0,5	0,060950
0,742000	0,5	0,059200
0,750333	0,5	0,067700
0,758667	0,5	0,050800
0,767000	0,5	0,059300
0,775333	0,5	0,071000
0,783667	0,5	0,062700
0,792000	0,5	0,055100
0,800333	0,5	0,066050
0,808667	0,5	0,086450
0,817000	0,5	0,119650
0,825333	0,5	0,129400
0,833667	0,5	0,123000
0,842000	0,5	0,117600
0,850333	0,5	0,120200
0,858667	0,5	0,121000
0,867000	0,5	0,121950
0,875333	0,5	0,117500
0,883667	0,5	0,114050
0,892000	0,5	0,119250
0,900333	0,5	0,120000
0,908667	0,5	0,119950
0,917000	0,5	0,130750
0,925333	0,5	0,144550
0,933667	0,5	0,117550
0,942000	0,5	0,121100
0,950333	0,5	0,122700
0,958667	0,5	0,150700
0,967000	0,5	0,166300
0,975333	0,5	0,181900
0,983667	0,5	0,166150
0,992000	0,5	0,177850
1,000333	0,5	0,168550
1,008667	0,5	0,171100
1,017000	0,5	0,161050
1,025333	0,5	0,164900
1,033667	0,5	0,162850
1,042000	0,5	0,166500
1,050333	0,5	0,173800
1,058667	0,5	0,162750
1,067000	0,5	0,187850
1,075333	0,5	0,173100
1,083667	0,5	0,160350
1,092000	0,5	0,161700
1,100333	0,5	0,173200
1,108667	0,5	0,201550
1,117000	0,5	0,215200
1,125333	0,5	0,202550
1,133667	0,5	0,207800
1,142000	0,5	0,201050
1,150333	0,5	0,212350
1,158667	0,5	0,202050
1,167000	0,5	0,209850
1,175333	0,5	0,200850
1,183667	0,5	0,210300
1,192000	0,5	0,211300
1,200333	0,5	0,205850
1,208667	0,5	0,197350
1,217000	0,5	0,235500
1,225333	0,5	0,209250
1,233667	0,5	0,200150
1,242000	0,5	0,204550
1,250333	0,5	0,210150
1,258667	0,5	0,247400
1,267000	0,5	0,237150
1,275333	0,5	0,246500
1,283667	0,5	0,242600
1,292000	0,5	0,250100
1,300333	0,5	0,245300
1,308667	0,5	0,247950
1,317000	0,5	0,236750
1,325333	0,5	0,241500
1,333667	0,5	0,241850
1,342000	0,5	0,245900
1,350333	0,5	0,233600
1,358667	0,5	0,235350
1,367000	0,5	0,259300
1,375333	0,5	0,242200
1,383667	0,5	0,233650
1,392000	0,5	0,243150
1,400333	0,5	0,252250
1,408667	0,5	0,283950
1,417000	0,5	0,273350
1,425333	0,5	0,273500
1,433667	0,5	0,275200
1,442000	0,5	0,267600
1,450333	0,5	0,270300
1,458667	0,5	0,270750
1,467000	0,5	0,274150
1,475333	0,5	0,269150
1,483667	0,5	0,277550
1,492000	0,5	0,275350
1,500333	0,5	0,272400
1,508667	0,5	0,266050
1,517000	0,5	0,287050
1,525333	0,5	0,255200
1,533667	0,5	0,259350
1,542000	0,5	0,257700
1,550333	0,5	0,283650
1,558667	0,5	0,286150
1,567000	0,5	0,192850
1,575333	0,5	-0,107150
1,583667	0,5	-0,619400
1,592000	0,5	-0,926250
1,600333	0,5	-0,256550
1,608667	0,5	2,337500
1,617000	0,5	8,117000
1,625333	0,5	17,403550
1,633667	0,5	27,096350
1,642000	0,5	32,316900
1,650333	0,5	31,132800
1,658667	0,5	25,964900
1,667000	0,5	20,141100
1,675333	0,5	15,459200
1,683667	0,5	12,273150
1,692000	0,5	10,267950
1,700333	0,5	9,062150
1,708667	0,5	8,441500
1,717000	0,5	8,142150
1,725333	0,5	7,899850
1,733667	0,5	7,459250
1,742000	0,5	6,880450
1,750333	0,5	6,291900
1,758667	0,5	5,798250
1,767000	0,5	5,392500
1,775333	0,5	5,130800
1,783667	0,5	5,131800
1,792000	0,5	5,507200
1,800333	0,5	6,314450
1,808667	0,5	7,326350
1,817000	0,5	8,165200
1,825333	0,5	8,628750
1,833667	0,5	8,649100
1,842000	0,5	8,258700
1,850333	0,5	7,666400
1,858667	0,5	7,024600
1,867000	0,5	6,473250
1,875333	0,5	6,042050
1,883667	0,5	5,743250
1,892000	0,5	5,500550
1,900333	0,5	5,275400
1,908667	0,5	5,015350
1,917000	0,5	4,759250
1,925333	0,5	4,526050
1,933667	0,5	4,324350
1,942000	0,5	4,125450
1,950333	0,5	3,962550
1,958667	0,5	3,820350
1,967000	0,5	3,690200
1,975333	0,5	3,613150
1,983667	0,5	3,580850
1,992000	0,5	3,584850
2,000333	0,5	3,575950
2,008667	0,5	3,539000
2,017000	0,5	3,473000
2,025333	0,5	3,441200
2,033667	0,5	3,416250
2,042000	0,5	3,435850
2,050333	0,5	3,492750
2,058667	0,5	3,629350
2,067000	0,5	3,852550
2,075333	0,5	4,134750
2,083667	0,5	4,336250
2,092000	0,5	4,393250
2,100333	0,5	4,379000
2,108667	0,5	4,394300
2,117000	0,5	4,486650
2,125333	0,5	4,661600
2,133667	0,5	4,897650
2,142000	0,5	5,266650
2,150333	0,5	5,708800
2,158667	0,5	6,033450
2,167000	0,5	6,063000
2,175333	0,5	5,808700
2,183667	0,5	5,483400
2,192000	0,5	5,232450
2,200333	0,5	5,116000
2,208667	0,5	5,123700
2,217000	0,5	5,292100
2,225333	0,5	5,562400
2,233667	0,5	5,847050
2,242000	0,5	5,987900
2,250333	0,5	6,005500
2,258667	0,5	5,856250
2,267000	0,5	5,701050
2,275333	0,5	5,584000
2,283667	0,5	5,532200
2,292000	0,5	5,538350
2,300333	0,5	5,548200
2,308667	0,5	5,578450
2,317000	0,5	5,642850
2,325333	0,5	5,703600
2,333667	0,5	5,793950
2,342000	0,5	5,897900
2,350333	0,5	6,012100
2,358667	0,5	6,131250
2,367000	0,5	6,238100
2,375333	0,5	6,362150
2,383667	0,5	6,479900
2,392000	0,5	6,604550
2,400333	0,5	6,714500
2,408667	0,5	6,718750
2,417000	0,5	6,683600
2,425333	0,5	6,642900
2,433667	0,5	6,615750
2,442000	0,5	6,626050
2,450333	0,5	6,605750
2,458667	0,5	6,607800
2,467000	0,5	6,607350
2,475333	0,5	6,626700
2,483667	0,5	6,632400
2,492000	0,5	6,645100
2,500333	0,5	6,647500
2,508667	0,5	6,649750
2,517000	0,5	6,655800
2,525333	0,5	6,656900
2,533667	0,5	6,656000
2,542000	0,5	6,670100
2,550333	0,5	6,710650
2,558667	0,5	6,736200
2,567000	0,5	6,806550
2,575333	0,5	6,868700
2,583667	0,5	6,905750
2,592000	0,5	6,878150
2,600333	0,5	6,784400
2,608667	0,5	6,651000
2,617000	0,5	6,545450
2,625333	0,5	6,443350
2,633667	0,5	6,376850
2,642000	0,5	6,316700
2,650333	0,5	6,268000
2,658667	0,5	6,215200
2,667000	0,5	6,167650
2,675333	0,5	6,126150
2,683667	0,5	6,074050
2,692000	0,5	6,027650
2,700333	0,5	5,981400
2,708667	0,5	5,908600
2,717000	0,5	5,855500
2,725333	0,5	5,805200
2,733667	0,5	5,765900
2,742000	0,5	5,738950
2,750333	0,5	5,686950
2,758667	0,5	5,669450
2,767000	0,5	5,659500
2,775333	0,5	5,693900
2,783667	0,5	5,774200
2,792000	0,5	5,977200
2,800333	0,5	6,358000
2,808667	0,5	7,009500
2,817000	0,5	7,881850
2,825333	0,5	8,794750
2,833667	0,5	9,489300
2,842000	0,5	9,786650
2,850333	0,5	9,597400
2,858667	0,5	9,087800
2,867000	0,5	8,450550
2,875333	0,5	7,831900
2,883667	0,5	7,330100
2,892000	0,5	6,958550
2,900333	0,5	6,769100
2,908667	0,5	6,771050
2,917000	0,5	6,946250
2,925333	0,5	7,233150
2,933667	0,5	7,582800
2,942000	0,5	7,982100
2,950333	0,5	8,562700
2,958667	0,5	9,517600
2,967000	0,5	11,019850
2,975333	0,5	12,930200
2,983667	0,5	14,831700
2,992000	0,5	16,069150
3,000333	0,5	16,214300
3,008667	0,5	15,292950
3,017000	0,5	13,678350
3,025333	0,5	11,812450
3,033667	0,5	10,051000
3,042000	0,5	8,560300
3,050333	0,5	7,391500
3,058667	0,5	6,529550
3,067000	0,5	5,946150
3,075333	0,5	5,584050
3,083667	0,5	5,413800
3,092000	0,5	5,370200
3,100333	0,5	5,363800
3,108667	0,5	5,308750
3,117000	0,5	5,126350
3,125333	0,5	4,823450
3,133667	0,5	4,449250
3,142000	0,5	4,060000
3,150333	0,5	3,686350
3,158667	0,5	3,393400
3,167000	0,5	3,164050
3,175333	0,5	3,006700
3,183667	0,5	2,868000
3,192000	0,5	2,748700
3,200333	0,5	2,639900
3,208667	0,5	2,559600
3,217000	0,5	2,475750
3,225333	0,5	2,408050
3,233667	0,5	2,340150
3,242000	0,5	2,282050
3,250333	0,5	2,240100
3,258667	0,5	2,203750
3,267000	0,5	2,201450
3,275333	0,5	2,189550
3,283667	0,5	2,239100
3,292000	0,5	2,272850
3,300333	0,5	2,294250
3,308667	0,5	2,302050
3,317000	0,5	2,282300
3,325333	0,5	2,242000
3,333667	0,5	2,148350
3,342000	0,5	2,028950
3,350333	0,5	1,926300
3,358667	0,5	1,823600
3,367000	0,5	1,753450
3,375333	0,5	1,681400
3,383667	0,5	1,635550
3,392000	0,5	1,588450
3,400333	0,5	1,562500
3,408667	0,5	1,546400
3,417000	0,5	1,528800
3,425333	0,5	1,517800
3,433667	0,5	1,542250
3,442000	0,5	1,525000
3,450333	0,5	1,519000
3,458667	0,5	1,513700
3,467000	0,5	1,515700
3,475333	0,5	1,537900
3,483667	0,5	1,537700
3,492000	0,5	1,561000
3,500333	0,5	1,601600
3,508667	0,5	1,674450
3,517000	0,5	1,738800
3,525333	0,5	1,805800
3,533667	0,5	1,827250
3,542000	0,5	1,808800
3,550333	0,5	1,740250
3,558667	0,5	1,639450
3,567000	0,5	1,516650
3,575333	0,5	1,414100
3,583667	0,5	1,330500
3,592000	0,5	1,239450
3,600333	0,5	1,180700
3,608667	0,5	1,137200
3,617000	0,5	1,115550
3,625333	0,5	1,103050
3,633667	0,5	1,076950
3,642000	0,5	1,042500
3,650333	0,5	1,027300
3,658667	0,5	1,012850
3,667000	0,5	1,002400
3,675333	0,5	0,994700
3,683667	0,5	0,991400
3,692000	0,5	0,979700
3,700333	0,5	0,981950
3,708667	0,5	0,964800
3,717000	0,5	0,959600
3,725333	0,5	0,960400
3,733667	0,5	0,962100
3,742000	0,5	0,938150
3,750333	0,5	0,939350
3,758667	0,5	0,939050
3,767000	0,5	0,964150
3,775333	0,5	0,983400
3,783667	0,5	0,982350
3,792000	0,5	0,975800
3,800333	0,5	0,973900
3,808667	0,5	0,965500
3,817000	0,5	0,961300
3,825333	0,5	0,957200
3,833667	0,5	0,946750
3,842000	0,5	0,953500
3,850333	0,5	0,949200
3,858667	0,5	0,948950
3,867000	0,5	0,944750
3,875333	0,5	0,963250
3,883667	0,5	0,936450
3,892000	0,5	0,918000
3,900333	0,5	0,905300
3,908667	0,5	0,904100
3,917000	0,5	0,911400
3,925333	0,5	0,900650
3,933667	0,5	0,879100
3,942000	0,5	0,869450
3,950333	0,5	0,850200
3,958667	0,5	0,843650
3,967000	0,5	0,828800
3,975333	0,5	0,820800
3,983667	0,5	0,815150
3,992000	0,5	0,802900
4,000333	0,5	0,799450
4,008667	0,5	0,776250
4,017000	0,5	0,780050
4,025333	0,5	0,788500
4,033667	0,5	0,771300
4,042000	0,5	0,753700
4,050333	0,5	0,761250
4,058667	0,5	0,764250
4,067000	0,5	0,783250
4,075333	0,5	0,768300
4,083667	0,5	0,766900
4,092000	0,5	0,758350
4,100333	0,5	0,764100
4,108667	0,5	0,754600
4,117000	0,5	0,757400
4,125333	0,5	0,747150
4,133667	0,5	0,750950
4,142000	0,5	0,754700
4,150333	0,5	0,766000
4,158667	0,5	0,755550
4,167000	0,5	0,767550
4,175333	0,5	0,766900
4,183667	0,5	0,752100
4,192000	0,5	0,746000
4,200333	0,5	0,748850
4,208667	0,5	0,761500
4,217000	0,5	0,764850
4,225333	0,5	0,754200
4,233667	0,5	0,736300
4,242000	0,5	0,734100
4,250333	0,5	0,723500
4,258667	0,5	0,720900
4,267000	0,5	0,712500
4,275333	0,5	0,709850
4,283667	0,5	0,701800
4,292000	0,5	0,701050
4,300333	0,5	0,708100
4,308667	0,5	0,694850
4,317000	0,5	0,701550
4,325333	0,5	0,693650
4,333667	0,5	0,678050
4,342000	0,5	0,679100
4,350333	0,5	0,684900
4,358667	0,5	0,701300
4,367000	0,5	0,703900
4,375333	0,5	0,692550
4,383667	0,5	0,691150
4,392000	0,5	0,688150
4,400333	0,5	0,692750
4,408667	0,5	0,686450
4,417000	0,5	0,684050
4,425333	0,5	0,674150
4,433667	0,5	0,678550
4,442000	0,5	0,675850
4,450333	0,5	0,682450
4,458667	0,5	0,663900
4,467000	0,5	0,685400
4,475333	0,5	0,664750
4,483667	0,5	0,660700
4,492000	0,5	0,655450
4,500333	0,5	0,668800
4,508667	0,5	0,687300
4,517000	0,5	0,695800
4,525333	0,5	0,693900
4,533667	0,5	0,698700
4,542000	0,5	0,701800
4,550333	0,5	0,702650
4,558667	0,5	0,707250
4,567000	0,5	0,711300
4,575333	0,5	0,722800
4,583667	0,5	0,727350
4,592000	0,5	0,737100
4,600333	0,5	0,726300
4,608667	0,5	0,734150
4,617000	0,5	0,740450
4,625333	0,5	0,723700
4,633667	0,5	0,715700
4,642000	0,5	0,713200
4,650333	0,5	0,722950
4,658667	0,5	0,741700
4,667000	0,5	0,740550
4,675333	0,5	0,741750
4,683667	0,5	0,744500
4,692000	0,5	0,758450
4,700333	0,5	0,771750
4,708667	0,5	0,794550
4,717000	0,5	0,816100
4,725333	0,5	0,842400
4,733667	0,5	0,874550
4,742000	0,5	0,893750
4,750333	0,5	0,917200
4,758667	0,5	0,946200
4,767000	0,5	0,954600
4,775333	0,5	0,943100
4,783667	0,5	0,947550
4,792000	0,5	0,942000
4,800333	0,5	0,955100
4,808667	0,5	0,955700
4,817000	0,5	0,961400
4,825333	0,5	0,948400
4,833667	0,5	0,950900
4,842000	0,5	0,941050
4,850333	0,5	0,937150
4,858667	0,5	0,928150
4,867000	0,5	0,914200
4,875333	0,5	0,904500
4,883667	0,5	0,889500
4,892000	0,5	0,872700
4,900333	0,5	0,854200
4,908667	0,5	0,853250
4,917000	0,5	0,820350
4,925333	0,5	0,788850
4,933667	0,5	0,778400
4,942000	0,5	0,770050
4,950333	0,5	0,782250
4,958667	0,5	0,779400
4,967000	0,5	0,759200
4,975333	0,5	0,764000
4,983667	0,5	0,757050
4,992000	0,5	0,762550
5,000333	0,5	0,760850
5,008667	0,5	0,766900
5,017000	0,5	0,764400
5,025333	0,5	0,774150
5,033667	0,5	0,779100
5,042000	0,5	0,777800
5,050333	0,5	0,776900
5,058667	0,5	0,807900
5,067000	0,5	0,791950
5,075333	0,5	0,789950
5,083667	0,5	0,794300
5,092000	0,5	0,809900
5,100333	0,5	0,831800
5,108667	0,5	0,827650
5,117000	0,5	0,831600
5,125333	0,5	0,830950
5,133667	0,5	0,837600
5,142000	0,5	0,834900
5,150333	0,5	0,839850
5,158667	0,5	0,837250
5,167000	0,5	0,841150
5,175333	0,5	0,842350
5,183667	0,5	0,855100
5,192000	0,5	0,849200
5,200333	0,5	0,865500
5,208667	0,5	0,876600
5,217000	0,5	0,869050
5,225333	0,5	0,870500
5,233667	0,5	0,881200
5,242000	0,5	0,894750
5,250333	0,5	0,909950
5,258667	0,5	0,901350
5,267000	0,5	0,898050
5,275333	0,5	0,892300
5,283667	0,5	0,893750
5,292000	0,5	0,888000
5,300333	0,5	0,885700
5,308667	0,5	0,882500
5,317000	0,5	0,877750
5,325333	0,5	0,876000
5,333667	0,5	0,868700
5,342000	0,5	0,859500
5,350333	0,5	0,867700
5,358667	0,5	0,867300
5,367000	0,5	0,849550
5,375333	0,5	0,847800
5,383667	0,5	0,847950
5,392000	0,5	0,870250
5,400333	0,5	0,878350
5,408667	0,5	0,872350
5,417000	0,5	0,869000
5,425333	0,5	0,874950
5,433667	0,5	0,876250
5,442000	0,5	0,879400
5,450333	0,5	0,876400
5,458667	0,5	0,873650
5,467000	0,5	0,879900
5,475333	0,5	0,878450
5,483667	0,5	0,882100
5,492000	0,5	0,877750
5,500333	0,5	0,894450
5,508667	0,5	0,890250
5,517000	0,5	0,888450
5,525333	0,5	0,891850
5,533667	0,5	0,907300
5,542000	0,5	0,929300
5,550333	0,5	0,947550
5,558667	0,5	0,941950
5,567000	0,5	0,956400
5,575333	0,5	0,961400
5,583667	0,5	0,976400
5,592000	0,5	0,982200
5,600333	0,5	0,996900
5,608667	0,5	1,008700
5,617000	0,5	1,019800
5,625333	0,5	1,036100
5,633667	0,5	1,043650
5,642000	0,5	1,063650
5,650333	0,5	1,093050
5,658667	0,5	1,105300
5,667000	0,5	1,135200
5,675333	0,5	1,176950
5,683667	0,5	1,242450
5,692000	0,5	1,317300
5,700333	0,5	1,393650
5,708667	0,5	1,496600
5,717000	0,5	1,624500
5,725333	0,5	1,794550
5,733667	0,5	1,990050
5,742000	0,5	2,230200
5,750333	0,5	2,483750
5,758667	0,5	2,754500
5,767000	0,5	3,014450
5,775333	0,5	3,240150
5,783667	0,5	3,412200
5,792000	0,5	3,540550
5,800333	0,5	3,565700
5,808667	0,5	3,508150
5,817000	0,5	3,385550
5,825333	0,5	3,206900
5,833667	0,5	3,011350
5,842000	0,5	2,779900
5,850333	0,5	2,548200
5,858667	0,5	2,312950
5,867000	0,5	2,111100
5,875333	0,5	1,928200
5,883667	0,5	1,778850
5,892000	0,5	1,646900
5,900333	0,5	1,541800
5,908667	0,5	1,461000
5,917000	0,5	1,399100
5,925333	0,5	1,343350
5,933667	0,5	1,301500
5,942000	0,5	1,286150
5,950333	0,5	1,253650
5,958667	0,5	1,220100
5,967000	0,5	1,212700
5,975333	0,5	1,203150
5,983667	0,5	1,219400
5,992000	0,5	1,216150
6,000333	0,5	1,210350
6,008667	0,5	1,213150
6,017000	0,5	1,218000
6,025333	0,5	1,224650
6,033667	0,5	1,234400
6,042000	0,5	1,241100
6,050333	0,5	1,244700
6,058667	0,5	1,250350
6,067000	0,5	1,251900
6,075333	0,5	1,255250
6,083667	0,5	1,243850
6,092000	0,5	1,261800
6,100333	0,5	1,230400
6,108667	0,5	1,213950
6,117000	0,5	1,203250
6,125333	0,5	1,203350
6,133667	0,5	1,205650
6,142000	0,5	1,190750
6,150333	0,5	1,180550
6,158667	0,5	1,179950
6,167000	0,5	1,172550
6,175333	0,5	1,170100
6,183667	0,5	1,166450
6,192000	0,5	1,160800
6,200333	0,5	1,156650
6,208667	0,5	1,155850
6,217000	0,5	1,165150
6,225333	0,5	1,156200
6,233667	0,5	1,157900
6,242000	0,5	1,169650
6,250333	0,5	1,156050
6,258667	0,5	1,154450
6,267000	0,5	1,162500
6,275333	0,5	1,172750
6,283667	0,5	1,194350
6,292000	0,5	1,191450
6,300333	0,5	1,200700
6,308667	0,5	1,199850
6,317000	0,5	1,205000
6,325333	0,5	1,203550
6,333667	0,5	1,206150
6,342000	0,5	1,204400
6,350333	0,5	1,208100
6,358667	0,5	1,210500
6,367000	0,5	1,205550
6,375333	0,5	1,203800
6,383667	0,5	1,209650
6,392000	0,5	1,211450
6,400333	0,5	1,204200
6,408667	0,5	1,203800
6,417000	0,5	1,209350
6,425333	0,5	1,226750
6,433667	0,5	1,231650
6,442000	0,5	1,238250
6,450333	0,5	1,236200
6,458667	0,5	1,239000
6,467000	0,5	1,237100
6,475333	0,5	1,240850
6,483667	0,5	1,239650
6,492000	0,5	1,242650
6,500333	0,5	1,240100
6,508667	0,5	1,243250
6,517000	0,5	1,244800
6,525333	0,5	1,249150
6,533667	0,5	1,255450
6,542000	0,5	1,255100
6,550333	0,5	1,249550
6,558667	0,5	1,252000
6,567000	0,5	1,258250
6,575333	0,5	1,273750
6,583667	0,5	1,288000
6,592000	0,5	1,286850
6,600333	0,5	1,292500
6,608667	0,5	1,294150
6,617000	0,5	1,304350
6,625333	0,5	1,305350
6,633667	0,5	1,317800
6,642000	0,5	1,326600
6,650333	0,5	1,345250
6,658667	0,5	1,359550
6,667000	0,5	1,372450
6,675333	0,5	1,382700
6,683667	0,5	1,398500
6,692000	0,5	1,389700
6,700333	0,5	1,382250
6,708667	0,5	1,369200
6,717000	0,5	1,371900
6,725333	0,5	1,368900
6,733667	0,5	1,363250
6,742000	0,5	1,358350
6,750333	0,5	1,354600
6,758667	0,5	1,356350
6,767000	0,5	1,358150
6,775333	0,5	1,360150
6,783667	0,5	1,359350
6,792000	0,5	1,362750
6,800333	0,5	1,357700
6,808667	0,5	1,356400
6,817000	0,5	1,341500
6,825333	0,5	1,342350
6,833667	0,5	1,339000
6,842000	0,5	1,327900
6,850333	0,5	1,318150
6,858667	0,5	1,316250
6,867000	0,5	1,321150
6,875333	0,5	1,322900
6,883667	0,5	1,317500
6,892000	0,5	1,315800
6,900333	0,5	1,307400
6,908667	0,5	1,303400
6,917000	0,5	1,300900
6,925333	0,5	1,299600
6,933667	0,5	1,290500
6,942000	0,5	1,283900
6,950333	0,5	1,284050
6,958667	0,5	1,273100
6,967000	0,5	1,262250
6,975333	0,5	1,269850
6,983667	0,5	1,257900
6,992000	0,5	1,250700
7,000333	0,5	1,243950
7,008667	0,5	1,241400
7,017000	0,5	1,255500
7,025333	0,5	1,252800
7,033667	0,5	1,250650
7,042000	0,5	1,244200
7,050333	0,5	1,242500
7,058667	0,5	1,233850
7,067000	0,5	1,232300
7,075333	0,5	1,225650
7,083667	0,5	1,220900
7,092000	0,5	1,217300
7,100333	0,5	1,214300
7,108667	0,5	1,212600
7,117000	0,5	1,206900
7,125333	0,5	1,212550
7,133667	0,5	1,204250
7,142000	0,5	1,197900
7,150333	0,5	1,193450
7,158667	0,5	1,193400
7,167000	0,5	1,201950
7,175333	0,5	1,198250
7,183667	0,5	1,185700
7,192000	0,5	1,186200
7,200333	0,5	1,178900
7,208667	0,5	1,177100
7,217000	0,5	1,169400
7,225333	0,5	1,165200
7,233667	0,5	1,157850
7,242000	0,5	1,157700
7,250333	0,5	1,157850
7,258667	0,5	1,152950
7,267000	0,5	1,151700
7,275333	0,5	1,164650
7,283667	0,5	1,156450
7,292000	0,5	1,159750
7,300333	0,5	1,160500
7,308667	0,5	1,167250
7,317000	0,5	1,177300
7,325333	0,5	1,170900
7,333667	0,5	1,165850
7,342000	0,5	1,152800
7,350333	0,5	1,143150
7,358667	0,5	1,133250
7,367000	0,5	1,128050
7,375333	0,5	1,111900
7,383667	0,5	1,107950
7,392000	0,5	1,102950
7,400333	0,5	1,102150
7,408667	0,5	1,101600
7,417000	0,5	1,119200
7,425333	0,5	1,140400
7,433667	0,5	1,147600
7,442000	0,5	1,145300
7,450333	0,5	1,138000
7,458667	0,5	1,124350
7,467000	0,5	1,112750
7,475333	0,5	1,097000
7,483667	0,5	1,085450
7,492000	0,5	1,072950
7,500333	0,5	1,067800
7,508667	0,5	1,062350
7,517000	0,5	1,056050
7,525333	0,5	1,049100
7,533667	0,5	1,043100
7,542000	0,5	1,040550
7,550333	0,5	1,028700
7,558667	0,5	1,026200
7,567000	0,5	1,028850
7,575333	0,5	1,024000
7,583667	0,5	1,014950
7,592000	0,5	1,015950
7,600333	0,5	1,011050
7,608667	0,5	1,012950
7,617000	0,5	1,013250
7,625333	0,5	1,009650
7,633667	0,5	0,999550
7,642000	0,5	0,996000
7,650333	0,5	0,990700
7,658667	0,5	0,983650
7,667000	0,5	0,979750
7,675333	0,5	0,972100
7,683667	0,5	0,971750
7,692000	0,5	0,965100
7,700333	0,5	0,963250
7,708667	0,5	0,962600
7,717000	0,5	0,966900
7,725333	0,5	0,960450
7,733667	0,5	0,951500
7,742000	0,5	0,945750
7,750333	0,5	0,944500
7,758667	0,5	0,949350
7,767000	0,5	0,946400
7,775333	0,5	0,938750
7,783667	0,5	0,939800
7,792000	0,5	0,942800
7,800333	0,5	0,952150
7,808667	0,5	0,968300
7,817000	0,5	0,987050
7,825333	0,5	1,000300
7,833667	0,5	0,994550
7,842000	0,5	0,983050
7,850333	0,5	0,957300
7,858667	0,5	0,942150
7,867000	0,5	0,937350
7,875333	0,5	0,929650
7,883667	0,5	0,929350
7,892000	0,5	0,941800
7,900333	0,5	0,963000
7,908667	0,5	0,995100
7,917000	0,5	1,025650
7,925333	0,5	1,064300
7,933667	0,5	1,091800
7,942000	0,5	1,103500
7,950333	0,5	1,084750
7,958667	0,5	1,054300
7,967000	0,5	1,009800
7,975333	0,5	0,972000
7,983667	0,5	0,939800
7,992000	0,5	0,917600
8,000333	0,5	0,900750
8,008667	0,5	0,901050
8,017000	0,5	0,900150
8,025333	0,5	0,894450
8,033667	0,5	0,888850
8,042000	0,5	0,882250
8,050333	0,5	0,880300
8,058667	0,5	0,872100
8,067000	0,5	0,864800
8,075333	0,5	0,863250
8,083667	0,5	0,863450
8,092000	0,5	0,872000
8,100333	0,5	0,883500
8,108667	0,5	0,902200
8,117000	0,5	0,920750
8,125333	0,5	0,923850
8,133667	0,5	0,914900
8,142000	0,5	0,897050
8,150333	0,5	0,878600
8,158667	0,5	0,867900
8,167000	0,5	0,862150
8,175333	0,5	0,859550
8,183667	0,5	0,858650
8,192000	0,5	0,861350
8,200333	0,5	0,860950
8,208667	0,5	0,858000
8,217000	0,5	0,850100
8,225333	0,5	0,842650
8,233667	0,5	0,843000
8,242000	0,5	0,843800
8,250333	0,5	0,844000
8,258667	0,5	0,847900
8,267000	0,5	0,847150
8,275333	0,5	0,848900
8,283667	0,5	0,847450
8,292000	0,5	0,846100
8,300333	0,5	0,841250
8,308667	0,5	0,842550
8,317000	0,5	0,834250
8,325333	0,5	0,827850
8,333667	0,5	0,826600
8,342000	0,5	0,838450
8,350333	0,5	0,855600
8,358667	0,5	0,871300
8,367000	0,5	0,879000
8,375333	0,5	0,877000
8,383667	0,5	0,862300
8,392000	0,5	0,847250
8,400333	0,5	0,836350
8,408667	0,5	0,828400
8,417000	0,5	0,823950
8,425333	0,5	0,821450
8,433667	0,5	0,819200
8,442000	0,5	0,809800
8,450333	0,5	0,801350
8,458667	0,5	0,799950
8,467000	0,5	0,790900
8,475333	0,5	0,784500
8,483667	0,5	0,783750
8,492000	0,5	0,786350
8,500333	0,5	0,792750
8,508667	0,5	0,795900
8,517000	0,5	0,799650
8,525333	0,5	0,800150
8,533667	0,5	0,801000
8,542000	0,5	0,804850
8,550333	0,5	0,811550
8,558667	0,5	0,817100
8,567000	0,5	0,835950
8,575333	0,5	0,848650
8,583667	0,5	0,850050
8,592000	0,5	0,842400
8,600333	0,5	0,834500
8,608667	0,5	0,831500
8,617000	0,5	0,824000
8,625333	0,5	0,825600
8,633667	0,5	0,823900
8,642000	0,5	0,823350
8,650333	0,5	0,825050
8,658667	0,5	0,823750
8,667000	0,5	0,820600
8,675333	0,5	0,824650
8,683667	0,5	0,832550
8,692000	0,5	0,844850
8,700333	0,5	0,855600
8,708667	0,5	0,880000
8,717000	0,5	0,909550
8,725333	0,5	0,947800
8,733667	0,5	0,983100
8,742000	0,5	1,013300
8,750333	0,5	1,019450
8,758667	0,5	0,998650
8,767000	0,5	0,960400
8,775333	0,5	0,920800
8,783667	0,5	0,886200
8,792000	0,5	0,868400
8,800333	0,5	0,854700
8,808667	0,5	0,849200
8,817000	0,5	0,849150
8,825333	0,5	0,856100
8,833667	0,5	0,861350
8,842000	0,5	0,870350
8,850333	0,5	0,874950
8,858667	0,5	0,872700
8,867000	0,5	0,870050
8,875333	0,5	0,869400
8,883667	0,5	0,868250
8,892000	0,5	0,872350
8,900333	0,5	0,885150
8,908667	0,5	0,901250
8,917000	0,5	0,923950
8,925333	0,5	0,945350
8,933667	0,5	0,965950
8,942000	0,5	0,979300
8,950333	0,5	0,980650
8,958667	0,5	0,980950
8,967000	0,5	0,982650
8,975333	0,5	0,988750
8,983667	0,5	0,994300
8,992000	0,5	1,001300
9,000333	0,5	1,005200
9,008667	0,5	1,013500
9,017000	0,5	1,023400
9,025333	0,5	1,025100
9,033667	0,5	1,016850
9,042000	0,5	0,993950
9,050333	0,5	0,971200
9,058667	0,5	0,954000
9,067000	0,5	0,940550
9,075333	0,5	0,937950
9,083667	0,5	0,950950
9,092000	0,5	0,966450
9,100333	0,5	0,984400
9,108667	0,5	1,005300
9,117000	0,5	1,017550
9,125333	0,5	1,019900
9,133667	0,5	1,019800
9,142000	0,5	1,014050
9,150333	0,5	1,004600
9,158667	0,5	0,999600
9,167000	0,5	0,997950
9,175333	0,5	0,993850
9,183667	0,5	0,994150
9,192000	0,5	0,998600
9,200333	0,5	1,001900
9,208667	0,5	1,002400
9,217000	0,5	1,007600
9,225333	0,5	1,014650
9,233667	0,5	1,026050
9,242000	0,5	1,041650
9,250333	0,5	1,055250
9,258667	0,5	1,070350
9,267000	0,5	1,090650
9,275333	0,5	1,102100
9,283667	0,5	1,116150
9,292000	0,5	1,131750
9,300333	0,5	1,143700
9,308667	0,5	1,155650
9,317000	0,5	1,167050
9,325333	0,5	1,169050
9,333667	0,5	1,172500
9,342000	0,5	1,176850
9,350333	0,5	1,176850
9,358667	0,5	1,183100
9,367000	0,5	1,191700
9,375333	0,5	1,212150
9,383667	0,5	1,236100
9,392000	0,5	1,269650
9,400333	0,5	1,310750
9,408667	0,5	1,354150
9,417000	0,5	1,405250
9,425333	0,5	1,453900
9,433667	0,5	1,495050
9,442000	0,5	1,524550
9,450333	0,5	1,540200
9,458667	0,5	1,539700
9,467000	0,5	1,532700
9,475333	0,5	1,514500
9,483667	0,5	1,491600
9,492000	0,5	1,469900
9,500333	0,5	1,448750
9,508667	0,5	1,432600
9,517000	0,5	1,416700
9,525333	0,5	1,412350
9,533667	0,5	1,411450
9,542000	0,5	1,417600
9,550333	0,5	1,423200
9,558667	0,5	1,432250
9,567000	0,5	1,439900
9,575333	0,5	1,448450
9,583667	0,5	1,454050
9,592000	0,5	1,459950
9,600333	0,5	1,465250
9,608667	0,5	1,472750
9,617000	0,5	1,480050
9,625333	0,5	1,484900
9,633667	0,5	1,499900
9,642000	0,5	1,508950
9,650333	0,5	1,517750
9,658667	0,5	1,520150
9,667000	0,5	1,521900
9,675333	0,5	1,521350
9,683667	0,5	1,523950
9,692000	0,5	1,527300
9,700333	0,5	1,533450
9,708667	0,5	1,539900
9,717000	0,5	1,550600
9,725333	0,5	1,566650
9,733667	0,5	1,587250
9,742000	0,5	1,605500
9,750333	0,5	1,631450
9,758667	0,5	1,653100
9,767000	0,5	1,674450
9,775333	0,5	1,686200
9,783667	0,5	1,697950
9,792000	0,5	1,710400
9,800333	0,5	1,717250
9,808667	0,5	1,723750
9,817000	0,5	1,737050
9,825333	0,5	1,760100
9,833667	0,5	1,793700
9,842000	0,5	1,840600
9,850333	0,5	1,900500
9,858667	0,5	1,980600
9,867000	0,5	2,083650
9,875333	0,5	2,207100
9,883667	0,5	2,348200
9,892000	0,5	2,502800
9,900333	0,5	2,651500
9,908667	0,5	2,781600
9,917000	0,5	2,881250
9,925333	0,5	2,931700
9,933667	0,5	2,925500
9,942000	0,5	2,862550
9,950333	0,5	2,745200
9,958667	0,5	2,599800
9,967000	0,5	2,439450
9,975333	0,5	2,285000
9,983667	0,5	2,151600
9,992000	0,5	2,044450
10,000333	0,5	1,956850
10,008667	0,5	1,895150
10,017000	0,5	1,848650
10,025333	0,5	1,814250
10,033667	0,5	1,789400
10,042000	0,5	1,771150
10,050333	0,5	1,756650
10,058667	0,5	1,750450
10,067000	0,5	1,754100
10,075333	0,5	1,754200
10,083667	0,5	1,763750
10,092000	0,5	1,769600
10,100333	0,5	1,773850
10,108667	0,5	1,767300
10,117000	0,5	1,760900
10,125333	0,5	1,753050
10,133667	0,5	1,744800
10,142000	0,5	1,733600
10,150333	0,5	1,729900
10,158667	0,5	1,719850
10,167000	0,5	1,716900
10,175333	0,5	1,709750
10,183667	0,5	1,705150
10,192000	0,5	1,701000
10,200333	0,5	1,698550
10,208667	0,5	1,698650
10,217000	0,5	1,696150
10,225333	0,5	1,695700
10,233667	0,5	1,697800
10,242000	0,5	1,699250
10,250333	0,5	1,700750
10,258667	0,5	1,697100
10,267000	0,5	1,696000
10,275333	0,5	1,700350
10,283667	0,5	1,703900
10,292000	0,5	1,707500
10,300333	0,5	1,713450
10,308667	0,5	1,721250
10,317000	0,5	1,724950
10,325333	0,5	1,733700
10,333667	0,5	1,740450
10,342000	0,5	1,746300
10,350333	0,5	1,755850
10,358667	0,5	1,758600
10,367000	0,5	1,764400
10,375333	0,5	1,775200
10,383667	0,5	1,780650
10,392000	0,5	1,775250
10,400333	0,5	1,771150
10,408667	0,5	1,756450
10,417000	0,5	1,744650
10,425333	0,5	1,733850
10,433667	0,5	1,725500
10,442000	0,5	1,710900
10,450333	0,5	1,704050
10,458667	0,5	1,694700
10,467000	0,5	1,686400
10,475333	0,5	1,679550
10,483667	0,5	1,671050
10,492000	0,5	1,666900
10,500333	0,5	1,661350
10,508667	0,5	1,655000
10,517000	0,5	1,649800
10,525333	0,5	1,647400
10,533667	0,5	1,644400
10,542000	0,5	1,637450
10,550333	0,5	1,628700
10,558667	0,5	1,621700
10,567000	0,5	1,619350
10,575333	0,5	1,624150
10,583667	0,5	1,625700
10,592000	0,5	1,632350
10,600333	0,5	1,637350
10,608667	0,5	1,642250
10,617000	0,5	1,644350
10,625333	0,5	1,646950
10,633667	0,5	1,634200
10,642000	0,5	1,626150
10,650333	0,5	1,607800
10,658667	0,5	1,590600
10,667000	0,5	1,571500
10,675333	0,5	1,555000
10,683667	0,5	1,537950
10,692000	0,5	1,521750
10,700333	0,5	1,503800
10,708667	0,5	1,491700
10,717000	0,5	1,481950
10,725333	0,5	1,473600
10,733667	0,5	1,468350
10,742000	0,5	1,464200
10,750333	0,5	1,462500
10,758667	0,5	1,459700
10,767000	0,5	1,456200
10,775333	0,5	1,451450
10,783667	0,5	1,450100
10,792000	0,5	1,450050
10,800333	0,5	1,459300
10,808667	0,5	1,459150
10,817000	0,5	1,471600
10,825333	0,5	1,487200
10,833667	0,5	1,489850
10,842000	0,5	1,485450
10,850333	0,5	1,474700
10,858667	0,5	1,457000
10,867000	0,5	1,443600
10,875333	0,5	1,425200
10,883667	0,5	1,411700
10,892000	0,5	1,397800
10,900333	0,5	1,384850
10,908667	0,5	1,377100
10,917000	0,5	1,368400
10,925333	0,5	1,362000
10,933667	0,5	1,354150
10,942000	0,5	1,351950
10,950333	0,5	1,353200
10,958667	0,5	1,349550
10,967000	0,5	1,351000
10,975333	0,5	1,356650
10,983667	0,5	1,362800
10,992000	0,5	1,371750
11,000333	0,5	1,381850
11,008667	0,5	1,396950
11,017000	0,5	1,413550
11,025333	0,5	1,421100
11,033667	0,5	1,420300
11,042000	0,5	1,409400
11,050333	0,5	1,394450
11,058667	0,5	1,380600
11,067000	0,5	1,364600
11,075333	0,5	1,350300
11,083667	0,5	1,337450
11,092000	0,5	1,325700
11,100333	0,5	1,322950
11,108667	0,5	1,311350
11,117000	0,5	1,311100
11,125333	0,5	1,312250
11,133667	0,5	1,314300
11,142000	0,5	1,313600
11,150333	0,5	1,315350
11,158667	0,5	1,322350
11,167000	0,5	1,338500
11,175333	0,5	1,347850
11,183667	0,5	1,357600
11,192000	0,5	1,359800
11,200333	0,5	1,356900
11,208667	0,5	1,341050
11,217000	0,5	1,317050
11,225333	0,5	1,291350
11,233667	0,5	1,265450
11,242000	0,5	1,244950
11,250333	0,5	1,231250
11,258667	0,5	1,219500
11,267000	0,5	1,220550
11,275333	0,5	1,224150
11,283667	0,5	1,224900
11,292000	0,5	1,233050
11,300333	0,5	1,242100
11,308667	0,5	1,257900
11,317000	0,5	1,272400
11,325333	0,5	1,293650
11,333667	0,5	1,309700
11,342000	0,5	1,322050
11,350333	0,5	1,333000
11,358667	0,5	1,335500
11,367000	0,5	1,331600
11,375333	0,5	1,321950
11,383667	0,5	1,308350
11,392000	0,5	1,296500
11,400333	0,5	1,276900
11,408667	0,5	1,268050
11,417000	0,5	1,258800
11,425333	0,5	1,247750
11,433667	0,5	1,240750
11,442000	0,5	1,228350
11,450333	0,5	1,224000
11,458667	0,5	1,226000
11,467000	0,5	1,229650
11,475333	0,5	1,231200
11,483667	0,5	1,233600
11,492000	0,5	1,234750
11,500333	0,5	1,236250
11,508667	0,5	1,228250
11,517000	0,5	1,225500
11,525333	0,5	1,215000
11,533667	0,5	1,212800
11,542000	0,5	1,203100
11,550333	0,5	1,193200
11,558667	0,5	1,191000
11,567000	0,5	1,191350
11,575333	0,5	1,186800
11,583667	0,5	1,183050
11,592000	0,5	1,182400
11,600333	0,5	1,184050
11,608667	0,5	1,190700
11,617000	0,5	1,197750
11,625333	0,5	1,203400
11,633667	0,5	1,208600
11,642000	0,5	1,213550
11,650333	0,5	1,217900
11,658667	0,5	1,223050
11,667000	0,5	1,223800
11,675333	0,5	1,225350
11,683667	0,5	1,230000
11,692000	0,5	1,229050
11,700333	0,5	1,225150
11,708667	0,5	1,232900
11,717000	0,5	1,238000
11,725333	0,5	1,241050
11,733667	0,5	1,239600
11,742000	0,5	1,243600
11,750333	0,5	1,252050
11,758667	0,5	1,259850
11,767000	0,5	1,262600
11,775333	0,5	1,271500
11,783667	0,5	1,271800
11,792000	0,5	1,281250
11,800333	0,5	1,287900
11,808667	0,5	1,296850
11,817000	0,5	1,309800
11,825333	0,5	1,321350
11,833667	0,5	1,339850
11,842000	0,5	1,355750
11,850333	0,5	1,377250
11,858667	0,5	1,416000
11,867000	0,5	1,445250
11,875333	0,5	1,470300
11,883667	0,5	1,495900
11,892000	0,5	1,512200
11,900333	0,5	1,531250
11,908667	0,5	1,530900
11,917000	0,5	1,524400
11,925333	0,5	1,502800
11,933667	0,5	1,483400
11,942000	0,5	1,455100
11,950333	0,5	1,433350
11,958667	0,5	1,409450
11,967000	0,5	1,394300
11,975333	0,5	1,382500
11,983667	0,5	1,376550
11,992000	0,5	1,366400
12,000333	0,5	1,364300
12,008667	0,5	1,369250
12,017000	0,5	1,368350
12,025333	0,5	1,368850
12,033667	0,5	1,368150
12,042000	0,5	1,373400
12,050333	0,5	1,380000
12,058667	0,5	1,392450
12,067000	0,5	1,393550
12,075333	0,5	1,397950
12,083667	0,5	1,394500
12,092000	0,5	1,392500
12,100333	0,5	1,387600
12,108667	0,5	1,386050
12,117000	0,5	1,378250
12,125333	0,5	1,374200
12,133667	0,5	1,371900
12,142000	0,5	1,363950
12,150333	0,5	1,366050
12,158667	0,5	1,368700
12,167000	0,5	1,365750
12,175333	0,5	1,363750
12,183667	0,5	1,359350
12,192000	0,5	1,359700
12,200333	0,5	1,365800
12,208667	0,5	1,361150
12,217000	0,5	1,364900
12,225333	0,5	1,360600
12,233667	0,5	1,361150
12,242000	0,5	1,357050
12,250333	0,5	1,354350
12,258667	0,5	1,349900
12,267000	0,5	1,346550
12,275333	0,5	1,342750
12,283667	0,5	1,342700
12,292000	0,5	1,337700
12,300333	0,5	1,343500
12,308667	0,5	1,342350
12,317000	0,5	1,340450
12,325333	0,5	1,332550
12,333667	0,5	1,327450
12,342000	0,5	1,329000
12,350333	0,5	1,327200
12,358667	0,5	1,330000
12,367000	0,5	1,330150
12,375333	0,5	1,329600
12,383667	0,5	1,327100
12,392000	0,5	1,332050
12,400333	0,5	1,332200
12,408667	0,5	1,334000
12,417000	0,5	1,331350
12,425333	0,5	1,335450
12,433667	0,5	1,325400
12,442000	0,5	1,325700
12,450333	0,5	1,328450
12,458667	0,5	1,325300
12,467000	0,5	1,324200
12,475333	0,5	1,317700
12,483667	0,5	1,316600
12,492000	0,5	1,321650
12,500333	0,5	1,319750
12,508667	0,5	1,326400
12,517000	0,5	1,328050
12,525333	0,5	1,330850
12,533667	0,5	1,336100
12,542000	0,5	1,334600
12,550333	0,5	1,337850
12,558667	0,5	1,340500
12,567000	0,5	1,343100
12,575333	0,5	1,346000
12,583667	0,5	1,342100
12,592000	0,5	1,349050
12,600333	0,5	1,355250
12,608667	0,5	1,349600
12,617000	0,5	1,347900
12,625333	0,5	1,341100
12,633667	0,5	1,344150
12,642000	0,5	1,339400
12,650333	0,5	1,341100
12,658667	0,5	1,334800
12,667000	0,5	1,331950
12,675333	0,5	1,323200
12,683667	0,5	1,317750
12,692000	0,5	1,310850
12,700333	0,5	1,301200
12,708667	0,5	1,294100
12,717000	0,5	1,291650
12,725333	0,5	1,283450
12,733667	0,5	1,272400
12,742000	0,5	1,276950
12,750333	0,5	1,271850
12,758667	0,5	1,271750
12,767000	0,5	1,264500
12,775333	0,5	1,257800
12,783667	0,5	1,257650
12,792000	0,5	1,258550
12,800333	0,5	1,251100
12,808667	0,5	1,248850
12,817000	0,5	1,243800
12,825333	0,5	1,247200
12,833667	0,5	1,246850
12,842000	0,5	1,248150
12,850333	0,5	1,245500
12,858667	0,5	1,245250
12,867000	0,5	1,250650
12,875333	0,5	1,246900
12,883667	0,5	1,242900
12,892000	0,5	1,252850
12,900333	0,5	1,259900
12,908667	0,5	1,259950
12,917000	0,5	1,256200
12,925333	0,5	1,253200
12,933667	0,5	1,262400
12,942000	0,5	1,256650
12,950333	0,5	1,255900
12,958667	0,5	1,253250
12,967000	0,5	1,259450
12,975333	0,5	1,261900
12,983667	0,5	1,269850
12,992000	0,5	1,272750
13,000333	0,5	1,275500
13,008667	0,5	1,277050
13,017000	0,5	1,278150
13,025333	0,5	1,270100
13,033667	0,5	1,278000
13,042000	0,5	1,283700
13,050333	0,5	1,289650
13,058667	0,5	1,287850
13,067000	0,5	1,282250
13,075333	0,5	1,280050
13,083667	0,5	1,273050
13,092000	0,5	1,274550
13,100333	0,5	1,271900
13,108667	0,5	1,282000
13,117000	0,5	1,287750
13,125333	0,5	1,291700
13,133667	0,5	1,287400
13,142000	0,5	1,275350
13,150333	0,5	1,271800
13,158667	0,5	1,267300
13,167000	0,5	1,268000
13,175333	0,5	1,269450
13,183667	0,5	1,279450
13,192000	0,5	1,275250
13,200333	0,5	1,265400
13,208667	0,5	1,248950
13,217000	0,5	1,235250
13,225333	0,5	1,230900
13,233667	0,5	1,235600
13,242000	0,5	1,239950
13,250333	0,5	1,239350
13,258667	0,5	1,237050
13,267000	0,5	1,235650
13,275333	0,5	1,234100
13,283667	0,5	1,237600
13,292000	0,5	1,239150
13,300333	0,5	1,247200
13,308667	0,5	1,244950
13,317000	0,5	1,240400
13,325333	0,5	1,233100
13,333667	0,5	1,238650
13,342000	0,5	1,230350
13,350333	0,5	1,226600
13,358667	0,5	1,206450
13,367000	0,5	1,196350
13,375333	0,5	1,189150
13,383667	0,5	1,188200
13,392000	0,5	1,182650
13,400333	0,5	1,179650
13,408667	0,5	1,172350
13,417000	0,5	1,167750
13,425333	0,5	1,162300
13,433667	0,5	1,158100
13,442000	0,5	1,156350
13,450333	0,5	1,152300
13,458667	0,5	1,152200
13,467000	0,5	1,137500
13,475333	0,5	1,139200
13,483667	0,5	1,139600
13,492000	0,5	1,135350
13,500333	0,5	1,128400
13,508667	0,5	1,117800
13,517000	0,5	1,115550
13,525333	0,5	1,120200
13,533667	0,5	1,119300
13,542000	0,5	1,122000
13,550333	0,5	1,124850
13,558667	0,5	1,132300
13,567000	0,5	1,133300
13,575333	0,5	1,138150
13,583667	0,5	1,140100
13,592000	0,5	1,141650
13,600333	0,5	1,149650
13,608667	0,5	1,150050
13,617000	0,5	1,137300
13,625333	0,5	1,143850
13,633667	0,5	1,143550
13,642000	0,5	1,139050
13,650333	0,5	1,131100
13,658667	0,5	1,116200
13,667000	0,5	1,118400
13,675333	0,5	1,115200
13,683667	0,5	1,117400
13,692000	0,5	1,106050
13,700333	0,5	1,106250
13,708667	0,5	1,101500
13,717000	0,5	1,102500
13,725333	0,5	1,098600
13,733667	0,5	1,096250
13,742000	0,5	1,098900
13,750333	0,5	1,104550
13,758667	0,5	1,101350
13,767000	0,5	1,096000
13,775333	0,5	1,105450
13,783667	0,5	1,107300
13,792000	0,5	1,108600
13,800333	0,5	1,100800
13,808667	0,5	1,087250
13,817000	0,5	1,075100
13,825333	0,5	1,062300
13,833667	0,5	1,044800
13,842000	0,5	1,028100
13,850333	0,5	1,005750
13,858667	0,5	0,988200
13,867000	0,5	0,963850
13,875333	0,5	0,930000
13,883667	0,5	0,871750
13,892000	0,5	0,775550
13,900333	0,5	0,582350
13,908667	0,5	0,316850
13,917000	0,5	0,092050
13,925333	0,5	-0,058400
13,933667	0,5	-0,161300
13,942000	0,5	-0,221350
13,950333	0,5	-0,267000
13,958667	0,5	-0,295400
13,967000	0,5	-0,306200
13,975333	0,5	-0,327750
13,983667	0,5	-0,343100
13,992000	0,5	-0,367750
14,000333	0,5	-0,377550
14,008667	0,5	-0,392100
14,017000	0,5	-0,401350
14,025333	0,5	-0,412400
14,033667	0,5	-0,412200
14,042000	0,5	-0,412150
14,050333	0,5	-0,409750
14,058667	0,5	-0,418050
14,067000	0,5	-0,406400
14,075333	0,5	-0,403100
14,083667	0,5	-0,400100
14,092000	0,5	-0,408050
14,100333	0,5	-0,408900
14,108667	0,5	-0,402650
14,117000	0,5	-0,395850
14,125333	0,5	-0,384600
14,133667	0,5	-0,375750
14,142000	0,5	-0,363100
14,150333	0,5	-0,353100
14,158667	0,5	-0,337350
14,167000	0,5	-0,326550
14,175333	0,5	-0,316450
14,183667	0,5	-0,307350
14,192000	0,5	-0,297200
14,200333	0,5	-0,298400
14,208667	0,5	-0,300050
14,217000	0,5	-0,290600
14,225333	0,5	-0,286250
14,233667	0,5	-0,287050
14,242000	0,5	-0,288300
14,250333	0,5	-0,289550
14,258667	0,5	-0,282950
14,267000	0,5	-0,272750
14,275333	0,5	-0,264850
14,283667	0,5	-0,258850
14,292000	0,5	-0,252550
14,300333	0,5	-0,249250
14,308667	0,5	-0,239900
14,317000	0,5	-0,232750
14,325333	0,5	-0,227150
14,333667	0,5	-0,214250
14,342000	0,5	-0,204300
14,350333	0,5	-0,198950
14,358667	0,5	-0,188050
14,367000	0,5	-0,168000
14,375333	0,5	-0,160550
14,383667	0,5	-0,147800
14,392000	0,5	-0,152100
14,400333	0,5	-0,137000
14,408667	0,5	-0,123400
14,417000	0,5	-0,104900
14,425333	0,5	-0,092150
14,433667	0,5	-0,071750
14,442000	0,5	-0,058850
14,450333	0,5	-0,036950
14,458667	0,5	-0,024250
14,467000	0,5	-0,000150
14,475333	0,5	0,019900
14,483667	0,5	0,042950
14,492000	0,5	0,073150
14,500333	0,5	0,084050
14,508667	0,5	0,118900
14,517000	0,5	0,142700
14,525333	0,5	0,160000
14,533667	0,5	0,174850
14,542000	0,5	0,183850
14,550333	0,5	0,202450
14,558667	0,5	0,222900
14,567000	0,5	0,236550
14,575333	0,5	0,263700
14,583667	0,5	0,280100
14,592000	0,5	0,308550
14,600333	0,5	0,332750
14,608667	0,5	0,364600
14,617000	0,5	0,389100
14,625333	0,5	0,414200
14,633667	0,5	0,449550
14,642000	0,5	0,478800
14,650333	0,5	0,495850
14,658667	0,5	0,538050
14,667000	0,5	0,565500
14,675333	0,5	0,586700
14,683667	0,5	0,600050
14,692000	0,5	0,607100
14,700333	0,5	0,631850
14,708667	0,5	0,639700
14,717000	0,5	0,656650
14,725333	0,5	0,669800
14,733667	0,5	0,690700
14,742000	0,5	0,700450
14,750333	0,5	0,719450
14,758667	0,5	0,720250
14,767000	0,5	0,719350
14,775333	0,5	0,717350
14,783667	0,5	0,714350
14,792000	0,5	0,689950
14,800333	0,5	0,672500
14,808667	0,5	0,665250
14,817000	0,5	0,653750
14,825333	0,5	0,638500
14,833667	0,5	0,623550
14,842000	0,5	0,613850
14,850333	0,5	0,619050
14,858667	0,5	0,619200
14,867000	0,5	0,615650
14,875333	0,5	0,610600
14,883667	0,5	0,601200
14,892000	0,5	0,595650
14,900333	0,5	0,585800
14,908667	0,5	0,581100
14,917000	0,5	0,572000
14,925333	0,5	0,574000
14,933667	0,5	0,571800
14,942000	0,5	0,561300
14,950333	0,5	0,559000
14,958667	0,5	0,558400
14,967000	0,5	0,554450
14,975333	0,5	0,547650
14,983667	0,5	0,531250
14,992000	0,5	0,525950
15,000333	0,5	0,527650
15,008667	0,5	0,525150
15,017000	0,5	0,524450
15,025333	0,5	0,518250
15,033667	0,5	0,519400
15,042000	0,5	0,515750
15,050333	0,5	0,513650
15,058667	0,5	0,506600
15,067000	0,5	0,505650
15,075333	0,5	0,503350
15,083667	0,5	0,502400
15,092000	0,5	0,487950
15,100333	0,5	0,494750
15,108667	0,5	0,488750
15,117000	0,5	0,484150
15,125333	0,5	0,469400
15,133667	0,5	0,457300
15,142000	0,5	0,450450
15,150333	0,5	0,455000
15,158667	0,5	0,453800
15,167000	0,5	0,448600
15,175333	0,5	0,446700
15,183667	0,5	0,447700
15,192000	0,5	0,444000
15,200333	0,5	0,437450
15,208667	0,5	0,438650
15,217000	0,5	0,435400
15,225333	0,5	0,440550
15,233667	0,5	0,424600
15,242000	0,5	0,418600
15,250333	0,5	0,423600
15,258667	0,5	0,418550
15,267000	0,5	0,411650
15,275333	0,5	0,397650
15,283667	0,5	0,386450
15,292000	0,5	0,387450
15,300333	0,5	0,384850
15,308667	0,5	0,383450
15,317000	0,5	0,378950
15,325333	0,5	0,379800
15,333667	0,5	0,378800
15,342000	0,5	0,377250
15,350333	0,5	0,375900
15,358667	0,5	0,367550
15,367000	0,5	0,376950
15,375333	0,5	0,370800
15,383667	0,5	0,352900
15,392000	0,5	0,356850
15,400333	0,5	0,363100
15,408667	0,5	0,352550
15,417000	0,5	0,350150
15,425333	0,5	0,328600
15,433667	0,5	0,326750
15,442000	0,5	0,319950
15,450333	0,5	0,323500
15,458667	0,5	0,318200
15,467000	0,5	0,314700
15,475333	0,5	0,309250
15,483667	0,5	0,306350
15,492000	0,5	0,304450
15,500333	0,5	0,304200
15,508667	0,5	0,298650
15,517000	0,5	0,302150
15,525333	0,5	0,300250
15,533667	0,5	0,285850
15,542000	0,5	0,298000
15,550333	0,5	0,301100
15,558667	0,5	0,294250
15,567000	0,5	0,282500
15,575333	0,5	0,266650
15,583667	0,5	0,264800
15,592000	0,5	0,265450
15,600333	0,5	0,255750
15,608667	0,5	0,256600
15,617000	0,5	0,247000
15,625333	0,5	0,244200
15,633667	0,5	0,242450
15,642000	0,5	0,238450
15,650333	0,5	0,235850
15,658667	0,5	0,223050
15,667000	0,5	0,222200
15,675333	0,5	0,210950
15,683667	0,5	0,202400
15,692000	0,5	0,211350
15,700333	0,5	0,204850
15,708667	0,5	0,195850
15,717000	0,5	0,178150
15,725333	0,5	0,166100
15,733667	0,5	0,171650
15,742000	0,5	0,160450
15,750333	0,5	0,161500
15,758667	0,5	0,153000
15,767000	0,5	0,149700
15,775333	0,5	0,143400
15,783667	0,5	0,142150
15,792000	0,5	0,134100
15,800333	0,5	0,130450
15,808667	0,5	0,123950
15,817000	0,5	0,130750
15,825333	0,5	0,113300
15,833667	0,5	0,120950
15,842000	0,5	0,120200
15,850333	0,5	0,116850
15,858667	0,5	0,106750
15,867000	0,5	0,091800
15,875333	0,5	0,085050
15,883667	0,5	0,088250
15,892000	0,5	0,084000
15,900333	0,5	0,080150
15,908667	0,5	0,078650
15,917000	0,5	0,074400
15,925333	0,5	0,075600
15,933667	0,5	0,075300
15,942000	0,5	0,077250
15,950333	0,5	0,067600
15,958667	0,5	0,075500
15,967000	0,5	0,074050
15,975333	0,5	0,064850
15,983667	0,5	0,066000
15,992000	0,5	0,065250
16,000333	0,5	0,061000
16,008667	0,5	0,047500
16,017000	0,5	0,034350
16,025333	0,5	0,029100
16,033667	0,5	0,029550
16,042000	0,5	0,033350
16,050333	0,5	0,031800
16,058667	0,5	0,035400
16,067000	0,5	0,038750
16,075333	0,5	0,034750
16,083667	0,5	0,032050
16,092000	0,5	0,028650
16,100333	0,5	0,030550
16,108667	0,5	0,031500
16,117000	0,5	0,022850
16,125333	0,5	0,015700
16,133667	0,5	0,028250
16,142000	0,5	0,021800
16,150333	0,5	0,017400
16,158667	0,5	-0,003250
16,167000	0,5	-0,010400
16,175333	0,5	-0,012200
16,183667	0,5	-0,006000
16,192000	0,5	-0,014250
16,200333	0,5	-0,012650
16,208667	0,5	-0,017300
16,217000	0,5	-0,017200
16,225333	0,5	-0,017300
16,233667	0,5	-0,022900
16,242000	0,5	-0,024500
16,250333	0,5	-0,026200
16,258667	0,5	-0,025650
16,267000	0,5	-0,039950
16,275333	0,5	-0,038500
16,283667	0,5	-0,036500
16,292000	0,5	-0,043000
16,300333	0,5	-0,051050
16,308667	0,5	-0,069500
16,317000	0,5	-0,077000
16,325333	0,5	-0,074000
16,333667	0,5	-0,081200
16,342000	0,5	-0,078500
16,350333	0,5	-0,083000
16,358667	0,5	-0,080350
16,367000	0,5	-0,083900
16,375333	0,5	-0,085600
16,383667	0,5	-0,093850
16,392000	0,5	-0,098650
16,400333	0,5	-0,100500
16,408667	0,5	-0,107600
16,417000	0,5	-0,123500
16,425333	0,5	-0,109250
16,433667	0,5	-0,110150
16,442000	0,5	-0,120700
16,450333	0,5	-0,124650
16,458667	0,5	-0,148700
16,467000	0,5	-0,145450
16,475333	0,5	-0,153900
16,483667	0,5	-0,150050
16,492000	0,5	-0,156000
16,500333	0,5	-0,154250
16,508667	0,5	-0,159600
16,517000	0,5	-0,159500
16,525333	0,5	-0,165750
16,533667	0,5	-0,169450
16,542000	0,5	-0,173400
16,550333	0,5	-0,178950
16,558667	0,5	-0,186000
16,567000	0,5	-0,192050
16,575333	0,5	-0,185300
16,583667	0,5	-0,183450
16,592000	0,5	-0,193900
16,600333	0,5	-0,209700
16,608667	0,5	-0,220250
16,617000	0,5	-0,216000
16,625333	0,5	-0,214450
16,633667	0,5	-0,226900
16,642000	0,5	-0,223700
16,650333	0,5	-0,230400
16,658667	0,5	-0,227050
16,667000	0,5	-0,233500
16,675333	0,5	-0,234000
16,683667	0,5	-0,240900
16,692000	0,5	-0,247150
16,700333	0,5	-0,245500
16,708667	0,5	-0,256450
16,717000	0,5	-0,262500
16,725333	0,5	-0,256000
16,733667	0,5	-0,259900
16,742000	0,5	-0,267400
16,750333	0,5	-0,284550
16,758667	0,5	-0,295550
16,767000	0,5	-0,290050
16,775333	0,5	-0,293300
16,783667	0,5	-0,295600
16,792000	0,5	-0,298950
16,800333	0,5	-0,298600
16,808667	0,5	-0,303300
16,817000	0,5	-0,301350
16,825333	0,5	-0,306800
16,833667	0,5	-0,310400
16,842000	0,5	-0,313950
16,850333	0,5	-0,307200
16,858667	0,5	-0,331650
16,867000	0,5	-0,316700
16,875333	0,5	-0,318700
16,883667	0,5	-0,323400
16,892000	0,5	-0,333450
16,900333	0,5	-0,349250
16,908667	0,5	-0,350200
16,917000	0,5	-0,355700
16,925333	0,5	-0,350500
16,933667	0,5	-0,354250
16,942000	0,5	-0,357200
16,950333	0,5	-0,358600
16,958667	0,5	-0,362450
16,967000	0,5	-0,364050
16,975333	0,5	-0,363000
16,983667	0,5	-0,363600
16,992000	0,5	-0,358200
17,000333	0,5	-0,366800
17,008667	0,5	-0,374550
17,017000	0,5	-0,370950
17,025333	0,5	-0,369900
17,033667	0,5	-0,378050
17,042000	0,5	-0,390800
17,050333	0,5	-0,408000
17,058667	0,5	-0,410350
17,067000	0,5	-0,410950
17,075333	0,5	-0,411650
17,083667	0,5	-0,413700
17,092000	0,5	-0,412550
17,100333	0,5	-0,412650
17,108667	0,5	-0,416550
17,117000	0,5	-0,417950
17,125333	0,5	-0,422500
17,133667	0,5	-0,418350
17,142000	0,5	-0,421000
17,150333	0,5	-0,430900
17,158667	0,5	-0,431800
17,167000	0,5	-0,422200
17,175333	0,5	-0,428400
17,183667	0,5	-0,435950
17,192000	0,5	-0,453050
17,200333	0,5	-0,458100
17,208667	0,5	-0,457250
17,217000	0,5	-0,448950
17,225333	0,5	-0,452350
17,233667	0,5	-0,449150
17,242000	0,5	-0,453750
17,250333	0,5	-0,450500
17,258667	0,5	-0,452450
17,267000	0,5	-0,454450
17,275333	0,5	-0,454200
17,283667	0,5	-0,453200
17,292000	0,5	-0,452700
17,300333	0,5	-0,469800
17,308667	0,5	-0,457900
17,317000	0,5	-0,456050
17,325333	0,5	-0,464950
17,333667	0,5	-0,474950
17,342000	0,5	-0,486400
17,350333	0,5	-0,489250
17,358667	0,5	-0,487000
17,367000	0,5	-0,493800
17,375333	0,5	-0,489650
17,383667	0,5	-0,496500
17,392000	0,5	-0,489900
17,400333	0,5	-0,493250
17,408667	0,5	-0,494000
17,417000	0,5	-0,496550
17,425333	0,5	-0,499500
17,433667	0,5	-0,489950
17,442000	0,5	-0,498800
17,450333	0,5	-0,511600
17,458667	0,5	-0,499750
17,467000	0,5	-0,492450
17,475333	0,5	-0,501000
17,483667	0,5	-0,511700
17,492000	0,5	-0,521450
17,500333	0,5	-0,509750
17,508667	0,5	-0,512250
17,517000	0,5	-0,505750
17,525333	0,5	-0,511950
17,533667	0,5	-0,505800
17,542000	0,5	-0,505350
17,550333	0,5	-0,498250
17,558667	0,5	-0,503100
17,567000	0,5	-0,499550
17,575333	0,5	-0,495400
17,583667	0,5	-0,484650
17,592000	0,5	-0,494950
17,600333	0,5	-0,487800
17,608667	0,5	-0,487250
17,617000	0,5	-0,481650
17,625333	0,5	-0,491150
17,633667	0,5	-0,506750
17,642000	0,5	-0,500500
17,650333	0,5	-0,480750
17,658667	0,5	-0,489200
17,667000	0,5	-0,493500
17,675333	0,5	-0,486100
17,683667	0,5	-0,491900
17,692000	0,5	-0,481200
17,700333	0,5	-0,485500
17,708667	0,5	-0,480350
17,717000	0,5	-0,483900
17,725333	0,5	-0,486700
17,733667	0,5	-0,483900
17,742000	0,5	-0,499150
17,750333	0,5	-0,484100
17,758667	0,5	-0,480150
17,767000	0,5	-0,478350
17,775333	0,5	-0,486500
17,783667	0,5	-0,503200
17,792000	0,5	-0,498400
17,800333	0,5	-0,491300
17,808667	0,5	-0,493450
17,817000	0,5	-0,489850
17,825333	0,5	-0,488300
17,833667	0,5	-0,480600
17,842000	0,5	-0,475400
17,850333	0,5	-0,463650
17,858667	0,5	-0,459450
17,867000	0,5	-0,453150
17,875333	0,5	-0,450200
17,883667	0,5	-0,439050
17,892000	0,5	-0,447700
17,900333	0,5	-0,427700
17,908667	0,5	-0,434750
17,917000	0,5	-0,436600
17,925333	0,5	-0,451950
17,933667	0,5	-0,465750
17,942000	0,5	-0,460850
17,950333	0,5	-0,457550
17,958667	0,5	-0,455900
17,967000	0,5	-0,456700
17,975333	0,5	-0,450750
17,983667	0,5	-0,452900
17,992000	0,5	-0,445800
18,000333	0,5	-0,448000
18,008667	0,5	-0,445600
18,017000	0,5	-0,443250
18,025333	0,5	-0,439150
18,033667	0,5	-0,447450
18,042000	0,5	-0,444200
18,050333	0,5	-0,435500
18,058667	0,5	-0,440750
18,067000	0,5	-0,443100
18,075333	0,5	-0,452250
18,083667	0,5	-0,461050
18,092000	0,5	-0,457500
18,100333	0,5	-0,457100
18,108667	0,5	-0,451750
18,117000	0,5	-0,455850
18,125333	0,5	-0,450150
18,133667	0,5	-0,446550
18,142000	0,5	-0,449600
18,150333	0,5	-0,446300
18,158667	0,5	-0,451250
18,167000	0,5	-0,445650
18,175333	0,5	-0,455600
18,183667	0,5	-0,463650
18,192000	0,5	-0,456850
18,200333	0,5	-0,453850
18,208667	0,5	-0,463900
18,217000	0,5	-0,468500
18,225333	0,5	-0,489350
18,233667	0,5	-0,493650
18,242000	0,5	-0,494900
18,250333	0,5	-0,494800
18,258667	0,5	-0,497300
18,267000	0,5	-0,498400
18,275333	0,5	-0,500000
18,283667	0,5	-0,502700
18,292000	0,5	-0,507850
18,300333	0,5	-0,513600
18,308667	0,5	-0,514600
18,317000	0,5	-0,515650
18,325333	0,5	-0,531650
18,333667	0,5	-0,538450
18,342000	0,5	-0,532750
18,350333	0,5	-0,536400
18,358667	0,5	-0,546500
18,367000	0,5	-0,571350
18,375333	0,5	-0,575550
18,383667	0,5	-0,580400
18,392000	0,5	-0,582550
18,400333	0,5	-0,590050
18,408667	0,5	-0,592700
18,417000	0,5	-0,596850
18,425333	0,5	-0,598200
18,433667	0,5	-0,602050
18,442000	0,5	-0,606800
18,450333	0,5	-0,611900
18,458667	0,5	-0,618500
18,467000	0,5	-0,613600
18,475333	0,5	-0,639000
18,483667	0,5	-0,639050
18,492000	0,5	-0,635150
18,500333	0,5	-0,641750
18,508667	0,5	-0,654000
18,517000	0,5	-0,674200
18,525333	0,5	-0,681600
18,533667	0,5	-0,678850
18,542000	0,5	-0,690300
18,550333	0,5	-0,686900
18,558667	0,5	-0,696700
18,567000	0,5	-0,700750
18,575333	0,5	-0,707900
18,583667	0,5	-0,714450
18,592000	0,5	-0,717450
18,600333	0,5	-0,726650
18,608667	0,5	-0,721100
18,617000	0,5	-0,720750
18,625333	0,5	-0,739850
18,633667	0,5	-0,733800
18,642000	0,5	-0,742400
18,650333	0,5	-0,750200
18,658667	0,5	-0,764200
18,667000	0,5	-0,792250
18,675333	0,5	-0,783750
18,683667	0,5	-0,796800
18,692000	0,5	-0,795750
18,700333	0,5	-0,807350
18,708667	0,5	-0,805400
18,717000	0,5	-0,815000
18,725333	0,5	-0,817550
18,733667	0,5	-0,824950
18,742000	0,5	-0,828600
18,750333	0,5	-0,832500
18,758667	0,5	-0,833750
18,767000	0,5	-0,847200
18,775333	0,5	-0,861950
18,783667	0,5	-0,853750
18,792000	0,5	-0,856150
18,800333	0,5	-0,864750
18,808667	0,5	-0,883000
18,817000	0,5	-0,900150
18,825333	0,5	-0,902200
18,833667	0,5	-0,896850
18,842000	0,5	-0,904100
18,850333	0,5	-0,899800
18,858667	0,5	-0,907650
18,867000	0,5	-0,908000
18,875333	0,5	-0,910100
18,883667	0,5	-0,913700
18,892000	0,5	-0,916550
18,900333	0,5	-0,916800
18,908667	0,5	-0,914000
18,917000	0,5	-0,921350
18,925333	0,5	-0,922200
18,933667	0,5	-0,913050
18,942000	0,5	-0,920850
18,950333	0,5	-0,929850
18,958667	0,5	-0,948300
18,967000	0,5	-0,962650
18,975333	0,5	-0,955750
18,983667	0,5	-0,960700
18,992000	0,5	-0,959350
19,000333	0,5	-0,966000
19,008667	0,5	-0,968550
19,017000	0,5	-0,977900
19,025333	0,5	-0,976750
19,033667	0,5	-0,985950
19,042000	0,5	-0,987900
19,050333	0,5	-0,987200
19,058667	0,5	-0,994050
19,067000	0,5	-1,016050
19,075333	0,5	-1,010600
19,083667	0,5	-1,017250
19,092000	0,5	-1,028600
19,100333	0,5	-1,050500
19,108667	0,5	-1,069150
19,117000	0,5	-1,077250
19,125333	0,5	-1,082700
19,133667	0,5	-1,088250
19,142000	0,5	-1,092850
19,150333	0,5	-1,096700
19,158667	0,5	-1,107650
19,167000	0,5	-1,108550
19,175333	0,5	-1,117050
19,183667	0,5	-1,122950
19,192000	0,5	-1,126150
19,200333	0,5	-1,123150
19,208667	0,5	-1,147500
19,217000	0,5	-1,150950
19,225333	0,5	-1,150550
19,233667	0,5	-1,152300
19,242000	0,5	-1,166450
19,250333	0,5	-1,187250
19,258667	0,5	-1,196750
19,267000	0,5	-1,198250
19,275333	0,5	-1,199600
19,283667	0,5	-1,204600
19,292000	0,5	-1,207750
19,300333	0,5	-1,213300
19,308667	0,5	-1,212650
19,317000	0,5	-1,212100
19,325333	0,5	-1,214050
19,333667	0,5	-1,221750
19,342000	0,5	-1,211000
19,350333	0,5	-1,210200
19,358667	0,5	-1,228200
19,367000	0,5	-1,220850
19,375333	0,5	-1,219750
19,383667	0,5	-1,227100
19,392000	0,5	-1,241750
19,400333	0,5	-1,264850
19,408667	0,5	-1,266600
19,417000	0,5	-1,271250
19,425333	0,5	-1,279350
19,433667	0,5	-1,290500
19,442000	0,5	-1,294700
19,450333	0,5	-1,302300
19,458667	0,5	-1,306050
19,467000	0,5	-1,303400
19,475333	0,5	-1,310400
19,483667	0,5	-1,316350
19,492000	0,5	-1,317800
19,500333	0,5	-1,311700
19,508667	0,5	-1,340600
19,517000	0,5	-1,322600
19,525333	0,5	-1,327500
19,533667	0,5	-1,332400
19,542000	0,5	-1,346450
19,550333	0,5	-1,367950
19,558667	0,5	-1,362900
19,567000	0,5	-1,362000
19,575333	0,5	-1,372350
19,583667	0,5	-1,375050
19,592000	0,5	-1,380100
19,600333	0,5	-1,383350
19,608667	0,5	-1,387000
19,617000	0,5	-1,392600
19,625333	0,5	-1,395650
19,633667	0,5	-1,396550
19,642000	0,5	-1,386350
19,650333	0,5	-1,402750
19,658667	0,5	-1,405000
19,667000	0,5	-1,400450
19,675333	0,5	-1,403200
19,683667	0,5	-1,418850
19,692000	0,5	-1,436250
19,700333	0,5	-1,452650
19,708667	0,5	-1,447300
19,717000	0,5	-1,455650
19,725333	0,5	-1,454700
19,733667	0,5	-1,463050
19,742000	0,5	-1,460200
19,750333	0,5	-1,462200
19,758667	0,5	-1,459650
19,767000	0,5	-1,468700
19,775333	0,5	-1,469850
19,783667	0,5	-1,459600
19,792000	0,5	-1,457600
19,800333	0,5	-1,474850
19,808667	0,5	-1,471100
19,817000	0,5	-1,475250
19,825333	0,5	-1,483000
19,833667	0,5	-1,498800
19,842000	0,5	-1,517650
19,850333	0,5	-1,516500
19,858667	0,5	-1,522600
19,867000	0,5	-1,519050
19,875333	0,5	-1,527750
19,883667	0,5	-1,522600
19,892000	0,5	-1,529400
19,900333	0,5	-1,527350
19,908667	0,5	-1,535300
19,917000	0,5	-1,541450
19,925333	0,5	-1,542350
19,933667	0,5	-1,531900
19,942000	0,5	-1,533750
19,950333	0,5	-1,544450
19,958667	0,5	-1,541800
19,967000	0,5	-1,547100
19,975333	0,5	-1,552300
19,983667	0,5	-1,575550
19,992000	0,5	-1,582800
20,000333	0,5	-1,592300
20,008667	0,5	-1,587750
20,017000	0,5	-1,592400
20,025333	0,5	-1,588800
20,033667	0,5	-1,597550
20,042000	0,5	-1,597300
20,050333	0,5	-1,602450
20,058667	0,5	-1,601900
20,067000	0,5	-1,607350
20,075333	0,5	-1,602850
20,083667	0,5	-1,600900
20,092000	0,5	-1,613600
20,100333	0,5	-1,618250
20,108667	0,5	-1,615150
20,117000	0,5	-1,624000
20,125333	0,5	-1,636700
20,133667	0,5	-1,658200
20,142000	0,5	-1,667100
20,150333	0,5	-1,668850
20,158667	0,5	-1,672950
20,167000	0,5	-1,673150
20,175333	0,5	-1,681850
20,183667	0,5	-1,678200
20,192000	0,5	-1,686400
20,200333	0,5	-1,678950
20,208667	0,5	-1,686700
20,217000	0,5	-1,683550
20,225333	0,5	-1,670000
20,233667	0,5	-1,667350
20,242000	0,5	-1,686400
20,250333	0,5	-1,673500
20,258667	0,5	-1,666800
20,267000	0,5	-1,674950
20,275333	0,5	-1,681350
20,283667	0,5	-1,698600
20,292000	0,5	-1,690650
20,300333	0,5	-1,693650
20,308667	0,5	-1,684100
20,317000	0,5	-1,688650
20,325333	0,5	-1,679250
20,333667	0,5	-1,683100
20,342000	0,5	-1,672650
20,350333	0,5	-1,674150
20,358667	0,5	-1,669400
20,367000	0,5	-1,668550
20,375333	0,5	-1,650400
20,383667	0,5	-1,662250
20,392000	0,5	-1,664250
20,400333	0,5	-1,660100
20,408667	0,5	-1,657300
20,417000	0,5	-1,667850
20,425333	0,5	-1,684500
20,433667	0,5	-1,682450
20,442000	0,5	-1,680700
20,450333	0,5	-1,676650
20,458667	0,5	-1,680350
20,467000	0,5	-1,676100
20,475333	0,5	-1,676300
20,483667	0,5	-1,672800
20,492000	0,5	-1,672850
20,500333	0,5	-1,666000
20,508667	0,5	-1,667250
20,517000	0,5	-1,652600
20,525333	0,5	-1,643550
20,533667	0,5	-1,650650
20,542000	0,5	-1,644700
20,550333	0,5	-1,640400
20,558667	0,5	-1,638850
20,567000	0,5	-1,639200
20,575333	0,5	-1,661350
20,583667	0,5	-1,653900
20,592000	0,5	-1,644300
20,600333	0,5	-1,642850
20,608667	0,5	-1,639300
20,617000	0,5	-1,635550
20,625333	0,5	-1,631150
20,633667	0,5	-1,636150
20,642000	0,5	-1,631050
20,650333	0,5	-1,643600
20,658667	0,5	-1,639150
20,667000	0,5	-1,628150
20,675333	0,5	-1,619850
20,683667	0,5	-1,634400
20,692000	0,5	-1,628600
20,700333	0,5	-1,639350
20,708667	0,5	-1,650550
20,717000	0,5	-1,669750
20,725333	0,5	-1,688150
20,733667	0,5	-1,685450
20,742000	0,5	-1,684250
20,750333	0,5	-1,686200
20,758667	0,5	-1,689450
20,767000	0,5	-1,689500
20,775333	0,5	-1,692600
20,783667	0,5	-1,688650
20,792000	0,5	-1,689000
20,800333	0,5	-1,685900
20,808667	0,5	-1,676250
20,817000	0,5	-1,658900
20,825333	0,5	-1,661450
20,833667	0,5	-1,663050
20,842000	0,5	-1,661900
20,850333	0,5	-1,672250
20,858667	0,5	-1,687550
20,867000	0,5	-1,698900
20,875333	0,5	-1,703650
20,883667	0,5	-1,696250
20,892000	0,5	-1,696500
20,900333	0,5	-1,690400
20,908667	0,5	-1,682050
20,917000	0,5	-1,676700
20,925333	0,5	-1,668000
20,933667	0,5	-1,669000
20,942000	0,5	-1,661100
20,950333	0,5	-1,666200
20,958667	0,5	-1,633550
20,967000	0,5	-1,620550
20,975333	0,5	-1,622600
20,983667	0,5	-1,621950
20,992000	0,5	-1,617000
21,000333	0,5	-1,626050
21,008667	0,5	-1,637500
21,017000	0,5	-1,641450
21,025333	0,5	-1,642100
21,033667	0,5	-1,637550
21,042000	0,5	-1,626650
21,050333	0,5	-1,624650
21,058667	0,5	-1,620050
21,067000	0,5	-1,615800
21,075333	0,5	-1,613000
21,083667	0,5	-1,602850
21,092000	0,5	-1,603750
21,100333	0,5	-1,588200
21,108667	0,5	-1,565550
21,117000	0,5	-1,559800
21,125333	0,5	-1,562550
21,133667	0,5	-1,560450
21,142000	0,5	-1,571000
21,150333	0,5	-1,571800
21,158667	0,5	-1,590750
21,167000	0,5	-1,590900
21,175333	0,5	-1,587250
21,183667	0,5	-1,581150
21,192000	0,5	-1,580600
21,200333	0,5	-1,572050
21,208667	0,5	-1,567100
21,217000	0,5	-1,562200
21,225333	0,5	-1,553500
21,233667	0,5	-1,550850
21,242000	0,5	-1,541200
21,250333	0,5	-1,512250
21,258667	0,5	-1,489150
21,267000	0,5	-1,490950
21,275333	0,5	-1,486000
21,283667	0,5	-1,484200
21,292000	0,5	-1,484850
21,300333	0,5	-1,491250
21,308667	0,5	-1,498250
21,317000	0,5	-1,488250
21,325333	0,5	-1,477950
21,333667	0,5	-1,475950
21,342000	0,5	-1,465000
21,350333	0,5	-1,452100
21,358667	0,5	-1,440350
21,367000	0,5	-1,431750
21,375333	0,5	-1,425600
21,383667	0,5	-1,414050
21,392000	0,5	-1,401450
21,400333	0,5	-1,361750
21,408667	0,5	-1,345500
21,417000	0,5	-1,344900
21,425333	0,5	-1,344750
21,433667	0,5	-1,337700
21,442000	0,5	-1,346800
21,450333	0,5	-1,348350
21,458667	0,5	-1,349050
21,467000	0,5	-1,328500
21,475333	0,5	-1,322400
21,483667	0,5	-1,314150
21,492000	0,5	-1,300350
21,500333	0,5	-1,291100
21,508667	0,5	-1,278250
21,517000	0,5	-1,263600
21,525333	0,5	-1,253000
21,533667	0,5	-1,244350
21,542000	0,5	-1,202850
21,550333	0,5	-1,177300
21,558667	0,5	-1,163600
21,567000	0,5	-1,152700
21,575333	0,5	-1,141950
21,583667	0,5	-1,127000
21,592000	0,5	-1,108750
21,600333	0,5	-1,100300
21,608667	0,5	-1,071450
21,617000	0,5	-1,043150
21,625333	0,5	-1,002900
21,633667	0,5	-0,982950
21,642000	0,5	-0,968850
21,650333	0,5	-0,962700
21,658667	0,5	-0,972050
21,667000	0,5	-0,975950
21,675333	0,5	-0,975150
21,683667	0,5	-0,963700
21,692000	0,5	-0,928150
21,700333	0,5	-0,906450
21,708667	0,5	-0,904600
21,717000	0,5	-0,886050
21,725333	0,5	-0,887750
21,733667	0,5	-0,880300
21,742000	0,5	-0,879150
21,750333	0,5	-0,872250
21,758667	0,5	-0,851050
21,767000	0,5	-0,826050
21,775333	0,5	-0,807600
21,783667	0,5	-0,778050
21,792000	0,5	-0,755350
21,800333	0,5	-0,726650
21,808667	0,5	-0,701400
21,817000	0,5	-0,674350
21,825333	0,5	-0,640000
21,833667	0,5	-0,603350
21,842000	0,5	-0,560350
21,850333	0,5	-0,540450
21,858667	0,5	-0,512800
21,867000	0,5	-0,484500
21,875333	0,5	-0,464250
21,883667	0,5	-0,452700
21,892000	0,5	-0,438050
21,900333	0,5	-0,423350
21,908667	0,5	-0,391700
21,917000	0,5	-0,375450
21,925333	0,5	-0,351500
21,933667	0,5	-0,325600
21,942000	0,5	-0,296900
21,950333	0,5	-0,271000
21,958667	0,5	-0,241350
21,967000	0,5	-0,216350
21,975333	0,5	-0,194900
21,983667	0,5	-0,149350
21,992000	0,5	-0,128850
22,000333	0,5	-0,100200
22,008667	0,5	-0,070100
22,017000	0,5	-0,033000
22,025333	0,5	-0,008200
22,033667	0,5	0,017150
22,042000	0,5	0,047400
22,050333	0,5	0,080800
22,058667	0,5	0,118050
22,067000	0,5	0,153400
22,075333	0,5	0,186850
22,083667	0,5	0,226150
22,092000	0,5	0,263300
22,100333	0,5	0,305150
22,108667	0,5	0,346700
22,117000	0,5	0,389450
22,125333	0,5	0,440750
22,133667	0,5	0,487000
22,142000	0,5	0,526350
22,150333	0,5	0,587150
22,158667	0,5	0,650800
22,167000	0,5	0,702600
22,175333	0,5	0,765800
22,183667	0,5	0,808300
22,192000	0,5	0,882500
22,200333	0,5	0,947950
22,208667	0,5	1,012700
22,217000	0,5	1,074250
22,225333	0,5	1,133450
22,233667	0,5	1,185100
22,242000	0,5	1,237900
22,250333	0,5	1,291500
22,258667	0,5	1,338300
22,267000	0,5	1,391750
22,275333	0,5	1,429950
22,283667	0,5	1,485300
22,292000	0,5	1,533100
22,300333	0,5	1,607550
22,308667	0,5	1,661100
22,317000	0,5	1,709250
22,325333	0,5	1,746500
22,333667	0,5	1,784300
22,342000	0,5	1,843850
22,350333	0,5	1,899450
22,358667	0,5	1,950650
22,367000	0,5	2,009050
22,375333	0,5	2,067400
22,383667	0,5	2,128750
22,392000	0,5	2,191550
22,400333	0,5	2,256050
22,408667	0,5	2,321800
22,417000	0,5	2,377650
22,425333	0,5	2,444300
22,433667	0,5	2,506300
22,442000	0,5	2,606550
22,450333	0,5	2,687750
22,458667	0,5	2,766700
22,467000	0,5	2,833350
22,475333	0,5	2,900550
22,483667	0,5	2,988100
22,492000	0,5	3,075900
22,500333	0,5	3,156550
22,508667	0,5	3,243200
22,517000	0,5	3,329500
22,525333	0,5	3,420500
22,533667	0,5	3,509500
22,542000	0,5	3,598200
22,550333	0,5	3,687200
22,558667	0,5	3,773600
22,567000	0,5	3,832400
22,575333	0,5	3,917550
22,583667	0,5	4,009850
22,592000	0,5	4,107050
22,600333	0,5	4,183050
22,608667	0,5	4,245900
22,617000	0,5	4,307600
22,625333	0,5	4,355800
22,633667	0,5	4,423050
22,642000	0,5	4,483100
22,650333	0,5	4,543300
22,658667	0,5	4,585850
22,667000	0,5	4,635550
22,675333	0,5	4,667200
22,683667	0,5	4,705850
22,692000	0,5	4,727450
22,700333	0,5	4,742350
22,708667	0,5	4,740550
22,717000	0,5	4,707350
22,725333	0,5	4,737900
22,733667	0,5	4,739050
22,742000	0,5	4,727200
22,750333	0,5	4,672850
22,758667	0,5	4,598700
22,767000	0,5	4,492600
22,775333	0,5	4,491300
22,783667	0,5	4,258450
22,792000	0,5	4,142100
22,800333	0,5	4,008100
22,808667	0,5	3,879450
22,817000	0,5	3,738200
22,825333	0,5	3,599500
22,833667	0,5	3,447500
22,842000	0,5	3,294000
22,850333	0,5	3,129100
22,858667	0,5	2,924300
22,867000	0,5	2,745500
22,875333	0,5	2,579900
22,883667	0,5	2,409250
22,892000	0,5	2,213300
22,900333	0,5	2,014800
22,908667	0,5	1,827850
22,917000	0,5	1,628850
22,925333	0,5	1,439200
22,933667	0,5	1,249200
22,942000	0,5	1,069450
22,950333	0,5	0,885600
22,958667	0,5	0,711700
22,967000	0,5	0,538150
22,975333	0,5	0,366950
22,983667	0,5	0,196150
22,992000	0,5	0,030250
23,000333	0,5	-0,125000
23,008667	0,5	-0,284650
23,017000	0,5	-0,439400
23,025333	0,5	-0,603450
23,033667	0,5	-0,776500
23,042000	0,5	-0,916350
23,050333	0,5	-1,039000
23,058667	0,5	-1,161850
23,067000	0,5	-1,276100
23,075333	0,5	-1,392550
23,083667	0,5	-1,491000
23,092000	0,5	-1,585700
23,100333	0,5	-1,670950
23,108667	0,5	-1,761800
23,117000	0,5	-1,835550
23,125333	0,5	-1,916900
23,133667	0,5	-1,982950
23,142000	0,5	-2,055400
23,150333	0,5	-2,096550
23,158667	0,5	-2,163350
23,167000	0,5	-2,224050
23,175333	0,5	-2,304400
23,183667	0,5	-2,366450
23,192000	0,5	-2,408750
23,200333	0,5	-2,445950
23,208667	0,5	-2,460900
23,217000	0,5	-2,493000
23,225333	0,5	-2,503800
23,233667	0,5	-2,522350
23,242000	0,5	-2,524300
23,250333	0,5	-2,530550
23,258667	0,5	-2,525600
23,267000	0,5	-2,533850
23,275333	0,5	-2,527800
23,283667	0,5	-2,529850
23,292000	0,5	-2,529550
23,300333	0,5	-2,538900
23,308667	0,5	-2,520400
23,317000	0,5	-2,504500
23,325333	0,5	-2,527150
23,333667	0,5	-2,539250
23,342000	0,5	-2,535700
23,350333	0,5	-2,520500
23,358667	0,5	-2,496750
23,367000	0,5	-2,482000
23,375333	0,5	-2,464500
23,383667	0,5	-2,433000
23,392000	0,5	-2,409250
23,400333	0,5	-2,375850
23,408667	0,5	-2,346900
23,417000	0,5	-2,314600
23,425333	0,5	-2,288700
23,433667	0,5	-2,259550
23,442000	0,5	-2,233050
23,450333	0,5	-2,270550
23,458667	0,5	-2,202550
23,467000	0,5	-2,161550
23,475333	0,5	-2,154700
23,483667	0,5	-2,148400
23,492000	0,5	-2,134150
23,500333	0,5	-2,114750
23,508667	0,5	-2,094250
23,517000	0,5	-2,077700
23,525333	0,5	-2,060250
23,533667	0,5	-2,042300
23,542000	0,5	-2,017800
23,550333	0,5	-1,995200
23,558667	0,5	-1,975100
23,567000	0,5	-1,957350
23,575333	0,5	-1,933200
23,583667	0,5	-1,914900
23,592000	0,5	-1,953600
23,600333	0,5	-1,958300
23,608667	0,5	-1,918800
23,617000	0,5	-1,856800
23,625333	0,5	-1,840950
23,633667	0,5	-1,833850
23,642000	0,5	-1,824600
23,650333	0,5	-1,819350
23,658667	0,5	-1,809300
23,667000	0,5	-1,799650
23,675333	0,5	-1,789350
23,683667	0,5	-1,781200
23,692000	0,5	-1,771550
23,700333	0,5	-1,764550
23,708667	0,5	-1,755150
23,717000	0,5	-1,750650
23,725333	0,5	-1,745200
23,733667	0,5	-1,746400
23,742000	0,5	-1,871250
23,750333	0,5	-1,850500
23,758667	0,5	-1,798950
23,767000	0,5	-1,754850
23,775333	0,5	-1,737750
23,783667	0,5	-1,738350
23,792000	0,5	-1,738950
23,800333	0,5	-1,747000
23,808667	0,5	-1,739350
23,817000	0,5	-1,731700
23,825333	0,5	-1,716450
23,833667	0,5	-1,707150
23,842000	0,5	-1,695000
23,850333	0,5	-1,685400
23,858667	0,5	-1,675950
23,867000	0,5	-1,662300
23,875333	0,5	-1,660900
23,883667	0,5	-1,682900
23,892000	0,5	-1,798150
23,900333	0,5	-1,768400
23,908667	0,5	-1,720650
23,917000	0,5	-1,674350
23,925333	0,5	-1,664600
23,933667	0,5	-1,659750
23,942000	0,5	-1,672800
23,950333	0,5	-1,671750
23,958667	0,5	-1,669450
23,967000	0,5	-1,652600
23,975333	0,5	-1,652000
23,983667	0,5	-1,637800
23,992000	0,5	-1,634900
24,000333	0,5	-1,619050
24,008667	0,5	-1,608650
24,017000	0,5	-1,594500
24,025333	0,5	-1,587650
24,033667	0,5	-1,690000
24,042000	0,5	-1,692600
24,050333	0,5	-1,666450
24,058667	0,5	-1,601150
24,067000	0,5	-1,561400
24,075333	0,5	-1,541550
24,083667	0,5	-1,537350
24,092000	0,5	-1,541300
24,100333	0,5	-1,531000
24,108667	0,5	-1,507450
24,117000	0,5	-1,500600
24,125333	0,5	-1,480000
24,133667	0,5	-1,471000
24,142000	0,5	-1,456350
24,150333	0,5	-1,445600
24,158667	0,5	-1,427200
24,167000	0,5	-1,418550
24,175333	0,5	-1,414750
24,183667	0,5	-1,527450
24,192000	0,5	-1,491150
24,200333	0,5	-1,474400
24,208667	0,5	-1,411750
24,217000	0,5	-1,391450
24,225333	0,5	-1,377150
24,233667	0,5	-1,371550
24,242000	0,5	-1,381200
24,250333	0,5	-1,348650
24,258667	0,5	-1,334950
24,267000	0,5	-1,313300
24,275333	0,5	-1,303500
24,283667	0,5	-1,280600
24,292000	0,5	-1,265400
24,300333	0,5	-1,241900
24,308667	0,5	-1,222450
24,317000	0,5	-1,203750
24,325333	0,5	-1,223200
24,333667	0,5	-1,278500
24,342000	0,5	-1,244350
24,350333	0,5	-1,215850
24,358667	0,5	-1,172600
24,367000	0,5	-1,149550
24,375333	0,5	-1,140050
24,383667	0,5	-1,135500
24,392000	0,5	-1,141300
24,400333	0,5	-1,125750
24,408667	0,5	-1,108950
24,417000	0,5	-1,097700
24,425333	0,5	-1,085650
24,433667	0,5	-1,074550
24,442000	0,5	-1,057850
24,450333	0,5	-1,043300
24,458667	0,5	-1,025450
24,467000	0,5	-1,021450
24,475333	0,5	-1,070100
24,483667	0,5	-1,069650
24,492000	0,5	-1,035200
24,500333	0,5	-1,006700
24,508667	0,5	-0,966750
24,517000	0,5	-0,955650
24,525333	0,5	-0,944550
24,533667	0,5	-0,943700
24,542000	0,5	-0,940250
24,550333	0,5	-0,919700
24,558667	0,5	-0,903950
24,567000	0,5	-0,890900
24,575333	0,5	-0,877000
24,583667	0,5	-0,866700
24,592000	0,5	-0,852400
24,600333	0,5	-0,838750
24,608667	0,5	-0,828250
24,617000	0,5	-0,819700
24,625333	0,5	-0,872400
24,633667	0,5	-0,852350
24,642000	0,5	-0,841550
24,650333	0,5	-0,810200
24,658667	0,5	-0,791500
24,667000	0,5	-0,784750
24,675333	0,5	-0,785400
24,683667	0,5	-0,785750
24,692000	0,5	-0,782900
24,700333	0,5	-0,766150
24,708667	0,5	-0,753600
24,717000	0,5	-0,740150
24,725333	0,5	-0,728000
24,733667	0,5	-0,711150
24,742000	0,5	-0,699700
24,750333	0,5	-0,687100
24,758667	0,5	-0,676100
24,767000	0,5	-0,679150
24,775333	0,5	-0,697000
24,783667	0,5	-0,685200
24,792000	0,5	-0,664300
24,800333	0,5	-0,644350
24,808667	0,5	-0,630600
24,817000	0,5	-0,623600
24,825333	0,5	-0,623550
24,833667	0,5	-0,626200
24,842000	0,5	-0,616600
24,850333	0,5	-0,614150
24,858667	0,5	-0,603450
24,867000	0,5	-0,598600
24,875333	0,5	-0,587150
24,883667	0,5	-0,579900
24,892000	0,5	-0,568150
24,900333	0,5	-0,563400
24,908667	0,5	-0,556750
24,917000	0,5	-0,565150
24,925333	0,5	-0,566650
24,933667	0,5	-0,557650
24,942000	0,5	-0,542400
24,950333	0,5	-0,525850
24,958667	0,5	-0,516000
24,967000	0,5	-0,510300
24,975333	0,5	-0,512400
24,983667	0,5	-0,503300
24,992000	0,5	-0,496300
25,000333	0,5	-0,488300
25,008667	0,5	-0,483200
25,017000	0,5	-0,473650
25,025333	0,5	-0,470350
25,033667	0,5	-0,461350
25,042000	0,5	-0,453900
25,050333	0,5	-0,449550
25,058667	0,5	-0,444600
25,067000	0,5	-0,458800
25,075333	0,5	-0,446900
25,083667	0,5	-0,445550
25,092000	0,5	-0,436050
25,100333	0,5	-0,427500
25,108667	0,5	-0,423550
25,117000	0,5	-0,421050
25,125333	0,5	-0,421150
25,133667	0,5	-0,415700
25,142000	0,5	-0,408250
25,150333	0,5	-0,405650
25,158667	0,5	-0,399100
25,167000	0,5	-0,395550
25,175333	0,5	-0,385150
25,183667	0,5	-0,381600
25,192000	0,5	-0,374100
25,200333	0,5	-0,367950
25,208667	0,5	-0,363400
25,217000	0,5	-0,365150
25,225333	0,5	-0,355500
25,233667	0,5	-0,355050
25,242000	0,5	-0,347750
25,250333	0,5	-0,345050
25,258667	0,5	-0,344400
25,267000	0,5	-0,344100
25,275333	0,5	-0,344450
25,283667	0,5	-0,342800
25,292000	0,5	-0,338450
25,300333	0,5	-0,338400
25,308667	0,5	-0,336850
25,317000	0,5	-0,337600
25,325333	0,5	-0,334100
25,333667	0,5	-0,329550
25,342000	0,5	-0,326000
25,350333	0,5	-0,323050
25,358667	0,5	-0,319700
25,367000	0,5	-0,316250
25,375333	0,5	-0,311450
25,383667	0,5	-0,309800
25,392000	0,5	-0,305950
25,400333	0,5	-0,301950
25,408667	0,5	-0,298550
25,417000	0,5	-0,297350
25,425333	0,5	-0,294650
25,433667	0,5	-0,292450
25,442000	0,5	-0,290600
25,450333	0,5	-0,288700
25,458667	0,5	-0,289200
25,467000	0,5	-0,288950
25,475333	0,5	-0,287100
25,483667	0,5	-0,285400
25,492000	0,5	-0,282950
25,500333	0,5	-0,282600
25,508667	0,5	-0,280700
25,517000	0,5	-0,278550
25,525333	0,5	-0,275500
25,533667	0,5	-0,278100
25,542000	0,5	-0,275600
25,550333	0,5	-0,276450
25,558667	0,5	-0,273500
25,567000	0,5	-0,271150
25,575333	0,5	-0,268400
25,583667	0,5	-0,267550
25,592000	0,5	-0,267800
25,600333	0,5	-0,265100
25,608667	0,5	-0,261250
25,617000	0,5	-0,258000
25,625333	0,5	-0,258100
25,633667	0,5	-0,255200
25,642000	0,5	-0,255500
25,650333	0,5	-0,251650
25,658667	0,5	-0,247500
25,667000	0,5	-0,245900
25,675333	0,5	-0,243150
25,683667	0,5	-0,248100
25,692000	0,5	-0,251050
25,700333	0,5	-0,250550
25,708667	0,5	-0,248550
25,717000	0,5	-0,246550
25,725333	0,5	-0,241500
25,733667	0,5	-0,244900
25,742000	0,5	-0,244300
25,750333	0,5	-0,243550
25,758667	0,5	-0,240550
25,767000	0,5	-0,239500
25,775333	0,5	-0,237400
25,783667	0,5	-0,234900
25,792000	0,5	-0,232350
25,800333	0,5	-0,224600
25,808667	0,5	-0,222050
25,817000	0,5	-0,213600
25,825333	0,5	-0,213900
25,833667	0,5	-0,218650
25,842000	0,5	-0,215800
25,850333	0,5	-0,215900
25,858667	0,5	-0,208550
25,867000	0,5	-0,201150
25,875333	0,5	-0,204900
25,883667	0,5	-0,201800
25,892000	0,5	-0,203300
25,900333	0,5	-0,200500
25,908667	0,5	-0,202600
25,917000	0,5	-0,198350
25,925333	0,5	-0,200350
25,933667	0,5	-0,200050
25,942000	0,5	-0,197650
25,950333	0,5	-0,196100
25,958667	0,5	-0,200200
25,967000	0,5	-0,184750
25,975333	0,5	-0,193350
25,983667	0,5	-0,194450
25,992000	0,5	-0,194400
26,000333	0,5	-0,191550
