File Path	chrom://chromeleon01/ikbm_chromeleon/2022/ICS-5000/ED1/Esteban/20220612_Cell_7_4_eg.seq/752.smp/ED_1.channel/ED_1.chm
Channel	ED_1

Injection Information:
Data Vault	ikbm_chromeleon
Injection	CelS2_00.5h-EGS_3
Injection Number	121
Position	BC5
Comment	
Processing Method	Stop sequence after Cell Death
Instrument Method	ICS5000_PA200_FullNative_Ox_26min_ED1
Type	Unknown
Status	Finished
Injection Date	15.06.2022
Injection Time	01:19:39
Injection Volume (µl)	5,0
Dilution Factor	1,0000
Weight	1,0000

Chromatogram Data Information:
Time Min. (min)	0,000333
Time Max. (min)	26,000333
Data Points	3121
Detector	EDet1
Generating Data System	Chromeleon 7.2.9.11323
Exporting Data System	Chromeleon 7.2.9.0
Operator	Instrument Controller
Signal Quantity	
Signal Unit	nC
Signal Min.	-2,664800
Signal Max.	25,787000
Channel	ED_1
Driver Name	DC-5000
Channel Type	Evaluation
Min. Step (s)	0,5
Max. Step (s)	0,5
Average Step (s)	0,5

Signal Parameter Information:
Signal Info	

Chromatogram Data:
Time (min)	Step (s)	Value (nC)
0,000333	n.a.	-0,074400
0,008667	0,5	-0,077400
0,017000	0,5	-0,071100
0,025333	0,5	-0,029750
0,033667	0,5	-0,013800
0,042000	0,5	-0,013700
0,050333	0,5	-0,024650
0,058667	0,5	-0,010750
0,067000	0,5	-0,018400
0,075333	0,5	-0,004800
0,083667	0,5	-0,005050
0,092000	0,5	-0,016350
0,100333	0,5	-0,020350
0,108667	0,5	-0,021700
0,117000	0,5	-0,004450
0,125333	0,5	-0,030300
0,133667	0,5	0,000350
0,142000	0,5	-0,037100
0,150333	0,5	-0,036550
0,158667	0,5	-0,044000
0,167000	0,5	-0,023000
0,175333	0,5	0,005800
0,183667	0,5	0,006550
0,192000	0,5	-0,008000
0,200333	0,5	0,001150
0,208667	0,5	-0,008400
0,217000	0,5	-0,003900
0,225333	0,5	-0,017250
0,233667	0,5	-0,015500
0,242000	0,5	-0,025400
0,250333	0,5	-0,023400
0,258667	0,5	-0,020200
0,267000	0,5	-0,023750
0,275333	0,5	-0,030000
0,283667	0,5	-0,005800
0,292000	0,5	-0,037250
0,300333	0,5	-0,018800
0,308667	0,5	-0,017750
0,317000	0,5	-0,018950
0,325333	0,5	-0,005400
0,333667	0,5	-0,023850
0,342000	0,5	-0,020450
0,350333	0,5	-0,030250
0,358667	0,5	-0,018400
0,367000	0,5	-0,026750
0,375333	0,5	-0,021850
0,383667	0,5	-0,033400
0,392000	0,5	-0,029700
0,400333	0,5	-0,035550
0,408667	0,5	-0,039750
0,417000	0,5	-0,055400
0,425333	0,5	-0,039750
0,433667	0,5	-0,046300
0,442000	0,5	-0,061650
0,450333	0,5	-0,057400
0,458667	0,5	-0,049200
0,467000	0,5	-0,029050
0,475333	0,5	-0,006650
0,483667	0,5	-0,006900
0,492000	0,5	-0,016300
0,500333	0,5	-0,017100
0,508667	0,5	-0,025500
0,517000	0,5	-0,023900
0,525333	0,5	-0,035400
0,533667	0,5	-0,034600
0,542000	0,5	-0,044800
0,550333	0,5	-0,038150
0,558667	0,5	-0,049800
0,567000	0,5	-0,045100
0,575333	0,5	-0,024900
0,583667	0,5	-0,041400
0,592000	0,5	-0,062050
0,600333	0,5	-0,048100
0,608667	0,5	-0,042500
0,617000	0,5	-0,006200
0,625333	0,5	-0,004350
0,633667	0,5	-0,006100
0,642000	0,5	-0,012600
0,650333	0,5	-0,005700
0,658667	0,5	-0,013250
0,667000	0,5	-0,017250
0,675333	0,5	-0,014900
0,683667	0,5	-0,021100
0,692000	0,5	-0,013500
0,700333	0,5	-0,013600
0,708667	0,5	-0,013200
0,717000	0,5	-0,015550
0,725333	0,5	0,008450
0,733667	0,5	-0,021950
0,742000	0,5	-0,024250
0,750333	0,5	-0,020300
0,758667	0,5	0,003050
0,767000	0,5	0,026150
0,775333	0,5	0,024300
0,783667	0,5	0,014150
0,792000	0,5	0,025500
0,800333	0,5	0,025200
0,808667	0,5	0,026850
0,817000	0,5	0,026250
0,825333	0,5	0,022050
0,833667	0,5	0,020450
0,842000	0,5	0,035800
0,850333	0,5	0,035650
0,858667	0,5	0,017550
0,867000	0,5	0,040850
0,875333	0,5	0,043200
0,883667	0,5	0,030850
0,892000	0,5	0,022100
0,900333	0,5	0,038500
0,908667	0,5	0,053200
0,917000	0,5	0,078800
0,925333	0,5	0,059350
0,933667	0,5	0,076300
0,942000	0,5	0,070450
0,950333	0,5	0,075650
0,958667	0,5	0,065950
0,967000	0,5	0,072400
0,975333	0,5	0,062950
0,983667	0,5	0,065000
0,992000	0,5	0,069850
1,000333	0,5	0,069450
1,008667	0,5	0,056800
1,017000	0,5	0,086900
1,025333	0,5	0,069350
1,033667	0,5	0,062650
1,042000	0,5	0,064300
1,050333	0,5	0,075600
1,058667	0,5	0,114350
1,067000	0,5	0,113850
1,075333	0,5	0,112450
1,083667	0,5	0,102850
1,092000	0,5	0,110150
1,100333	0,5	0,102500
1,108667	0,5	0,110500
1,117000	0,5	0,103150
1,125333	0,5	0,113900
1,133667	0,5	0,110150
1,142000	0,5	0,113650
1,150333	0,5	0,113300
1,158667	0,5	0,105050
1,167000	0,5	0,124200
1,175333	0,5	0,105300
1,183667	0,5	0,098400
1,192000	0,5	0,101700
1,200333	0,5	0,110600
1,208667	0,5	0,143550
1,217000	0,5	0,148200
1,225333	0,5	0,144750
1,233667	0,5	0,143950
1,242000	0,5	0,143850
1,250333	0,5	0,145100
1,258667	0,5	0,135300
1,267000	0,5	0,137700
1,275333	0,5	0,131600
1,283667	0,5	0,142400
1,292000	0,5	0,133900
1,300333	0,5	0,131200
1,308667	0,5	0,125250
1,317000	0,5	0,142650
1,325333	0,5	0,118750
1,333667	0,5	0,123100
1,342000	0,5	0,126100
1,350333	0,5	0,153250
1,358667	0,5	0,177300
1,367000	0,5	0,177400
1,375333	0,5	0,167250
1,383667	0,5	0,164500
1,392000	0,5	0,162150
1,400333	0,5	0,162350
1,408667	0,5	0,166200
1,417000	0,5	0,162350
1,425333	0,5	0,165450
1,433667	0,5	0,161550
1,442000	0,5	0,155600
1,450333	0,5	0,142100
1,458667	0,5	0,157100
1,467000	0,5	0,157650
1,475333	0,5	0,143500
1,483667	0,5	0,144550
1,492000	0,5	0,156300
1,500333	0,5	0,171900
1,508667	0,5	0,194700
1,517000	0,5	0,193000
1,525333	0,5	0,200250
1,533667	0,5	0,191550
1,542000	0,5	0,194050
1,550333	0,5	0,185900
1,558667	0,5	0,171450
1,567000	0,5	0,080900
1,575333	0,5	-0,226850
1,583667	0,5	-0,729600
1,592000	0,5	-1,022850
1,600333	0,5	-0,384700
1,608667	0,5	1,916100
1,617000	0,5	6,700200
1,625333	0,5	14,136050
1,633667	0,5	21,762650
1,642000	0,5	25,787000
1,650333	0,5	24,846650
1,658667	0,5	20,740700
1,667000	0,5	16,144400
1,675333	0,5	12,467650
1,683667	0,5	10,024500
1,692000	0,5	8,509650
1,700333	0,5	7,624550
1,708667	0,5	7,167900
1,717000	0,5	7,086450
1,725333	0,5	7,152200
1,733667	0,5	7,028700
1,742000	0,5	6,597750
1,750333	0,5	6,033100
1,758667	0,5	5,516250
1,767000	0,5	5,068400
1,775333	0,5	4,753150
1,783667	0,5	4,645950
1,792000	0,5	4,886100
1,800333	0,5	5,572450
1,808667	0,5	6,581100
1,817000	0,5	7,604650
1,825333	0,5	8,350200
1,833667	0,5	8,646300
1,842000	0,5	8,515550
1,850333	0,5	8,021750
1,858667	0,5	7,360300
1,867000	0,5	6,701300
1,875333	0,5	6,155300
1,883667	0,5	5,744700
1,892000	0,5	5,445000
1,900333	0,5	5,228250
1,908667	0,5	5,021550
1,917000	0,5	4,760800
1,925333	0,5	4,522900
1,933667	0,5	4,332400
1,942000	0,5	4,184850
1,950333	0,5	4,045500
1,958667	0,5	3,871600
1,967000	0,5	3,730350
1,975333	0,5	3,611900
1,983667	0,5	3,548550
1,992000	0,5	3,534650
2,000333	0,5	3,556200
2,008667	0,5	3,564150
2,017000	0,5	3,540400
2,025333	0,5	3,472450
2,033667	0,5	3,411600
2,042000	0,5	3,348500
2,050333	0,5	3,373400
2,058667	0,5	3,410200
2,067000	0,5	3,541550
2,075333	0,5	3,820300
2,083667	0,5	4,383050
2,092000	0,5	5,278500
2,100333	0,5	6,254350
2,108667	0,5	6,838650
2,117000	0,5	6,778850
2,125333	0,5	6,320000
2,133667	0,5	5,896850
2,142000	0,5	5,724900
2,150333	0,5	5,781550
2,158667	0,5	6,029900
2,167000	0,5	6,402250
2,175333	0,5	6,725100
2,183667	0,5	6,752300
2,192000	0,5	6,483150
2,200333	0,5	6,129350
2,208667	0,5	5,812200
2,217000	0,5	5,652950
2,225333	0,5	5,656100
2,233667	0,5	5,854900
2,242000	0,5	6,277800
2,250333	0,5	6,790700
2,258667	0,5	7,183500
2,267000	0,5	7,262050
2,275333	0,5	7,084200
2,283667	0,5	6,804150
2,292000	0,5	6,566250
2,300333	0,5	6,372000
2,308667	0,5	6,226300
2,317000	0,5	6,140350
2,325333	0,5	6,099700
2,333667	0,5	6,099250
2,342000	0,5	6,108600
2,350333	0,5	6,135750
2,358667	0,5	6,149850
2,367000	0,5	6,226950
2,375333	0,5	6,341250
2,383667	0,5	6,492400
2,392000	0,5	6,627700
2,400333	0,5	6,735150
2,408667	0,5	6,820800
2,417000	0,5	6,935350
2,425333	0,5	7,025300
2,433667	0,5	7,076800
2,442000	0,5	7,065700
2,450333	0,5	7,026000
2,458667	0,5	6,978750
2,467000	0,5	6,943100
2,475333	0,5	6,910400
2,483667	0,5	6,872450
2,492000	0,5	6,855200
2,500333	0,5	6,832600
2,508667	0,5	6,797300
2,517000	0,5	6,782650
2,525333	0,5	6,775200
2,533667	0,5	6,777800
2,542000	0,5	6,775350
2,550333	0,5	6,745700
2,558667	0,5	6,735000
2,567000	0,5	6,710100
2,575333	0,5	6,698600
2,583667	0,5	6,671550
2,592000	0,5	6,659350
2,600333	0,5	6,643700
2,608667	0,5	6,656450
2,617000	0,5	6,691200
2,625333	0,5	6,727250
2,633667	0,5	6,759250
2,642000	0,5	6,783750
2,650333	0,5	6,700650
2,658667	0,5	6,583150
2,667000	0,5	6,450050
2,675333	0,5	6,320400
2,683667	0,5	6,231650
2,692000	0,5	6,133700
2,700333	0,5	6,052700
2,708667	0,5	5,969650
2,717000	0,5	5,905550
2,725333	0,5	5,823250
2,733667	0,5	5,760400
2,742000	0,5	5,685350
2,750333	0,5	5,622100
2,758667	0,5	5,552600
2,767000	0,5	5,488650
2,775333	0,5	5,410750
2,783667	0,5	5,354100
2,792000	0,5	5,313300
2,800333	0,5	5,259100
2,808667	0,5	5,234100
2,817000	0,5	5,248100
2,825333	0,5	5,299850
2,833667	0,5	5,434100
2,842000	0,5	5,668100
2,850333	0,5	6,129350
2,858667	0,5	6,893800
2,867000	0,5	7,934100
2,875333	0,5	9,044000
2,883667	0,5	9,898850
2,892000	0,5	10,269650
2,900333	0,5	10,099100
2,908667	0,5	9,551050
2,917000	0,5	8,820000
2,925333	0,5	8,093450
2,933667	0,5	7,491900
2,942000	0,5	7,058200
2,950333	0,5	6,776450
2,958667	0,5	6,711450
2,967000	0,5	6,921100
2,975333	0,5	7,546650
2,983667	0,5	8,758000
2,992000	0,5	10,699350
3,000333	0,5	13,378800
3,008667	0,5	16,465650
3,017000	0,5	19,361150
3,025333	0,5	21,508950
3,033667	0,5	22,599600
3,042000	0,5	22,647000
3,050333	0,5	21,813450
3,058667	0,5	20,257500
3,067000	0,5	18,168300
3,075333	0,5	15,768000
3,083667	0,5	13,400850
3,092000	0,5	11,249400
3,100333	0,5	9,476550
3,108667	0,5	8,100650
3,117000	0,5	7,080300
3,125333	0,5	6,323950
3,133667	0,5	5,767900
3,142000	0,5	5,350650
3,150333	0,5	5,107850
3,158667	0,5	5,013100
3,167000	0,5	5,045300
3,175333	0,5	5,110750
3,183667	0,5	5,121350
3,192000	0,5	4,986800
3,200333	0,5	4,702650
3,208667	0,5	4,316700
3,217000	0,5	3,875850
3,225333	0,5	3,469850
3,233667	0,5	3,151700
3,242000	0,5	2,866600
3,250333	0,5	2,650000
3,258667	0,5	2,481150
3,267000	0,5	2,357450
3,275333	0,5	2,279100
3,283667	0,5	2,185600
3,292000	0,5	2,107850
3,300333	0,5	2,030900
3,308667	0,5	1,974050
3,317000	0,5	1,908000
3,325333	0,5	1,861950
3,333667	0,5	1,801000
3,342000	0,5	1,754850
3,350333	0,5	1,708600
3,358667	0,5	1,669350
3,367000	0,5	1,629650
3,375333	0,5	1,610850
3,383667	0,5	1,612250
3,392000	0,5	1,598050
3,400333	0,5	1,620450
3,408667	0,5	1,668150
3,417000	0,5	1,748100
3,425333	0,5	1,827650
3,433667	0,5	1,872100
3,442000	0,5	1,863250
3,450333	0,5	1,826250
3,458667	0,5	1,747700
3,467000	0,5	1,664200
3,475333	0,5	1,565250
3,483667	0,5	1,482750
3,492000	0,5	1,406000
3,500333	0,5	1,365050
3,508667	0,5	1,325050
3,517000	0,5	1,298600
3,525333	0,5	1,278950
3,533667	0,5	1,247950
3,542000	0,5	1,204150
3,550333	0,5	1,183300
3,558667	0,5	1,162950
3,567000	0,5	1,175250
3,575333	0,5	1,190700
3,583667	0,5	1,207650
3,592000	0,5	1,259300
3,600333	0,5	1,337600
3,608667	0,5	1,441750
3,617000	0,5	1,549900
3,625333	0,5	1,649050
3,633667	0,5	1,694000
3,642000	0,5	1,693250
3,650333	0,5	1,630000
3,658667	0,5	1,520400
3,667000	0,5	1,388750
3,675333	0,5	1,287850
3,683667	0,5	1,154200
3,692000	0,5	1,056600
3,700333	0,5	0,986250
3,708667	0,5	0,946050
3,717000	0,5	0,931200
3,725333	0,5	0,902350
3,733667	0,5	0,871950
3,742000	0,5	0,853800
3,750333	0,5	0,836300
3,758667	0,5	0,819100
3,767000	0,5	0,805750
3,775333	0,5	0,791950
3,783667	0,5	0,788700
3,792000	0,5	0,778100
3,800333	0,5	0,781300
3,808667	0,5	0,757650
3,817000	0,5	0,750550
3,825333	0,5	0,764350
3,833667	0,5	0,741400
3,842000	0,5	0,746200
3,850333	0,5	0,744850
3,858667	0,5	0,748600
3,867000	0,5	0,781450
3,875333	0,5	0,766750
3,883667	0,5	0,768250
3,892000	0,5	0,757150
3,900333	0,5	0,765250
3,908667	0,5	0,759750
3,917000	0,5	0,760700
3,925333	0,5	0,754700
3,933667	0,5	0,749800
3,942000	0,5	0,754050
3,950333	0,5	0,750050
3,958667	0,5	0,741000
3,967000	0,5	0,737800
3,975333	0,5	0,733950
3,983667	0,5	0,705950
3,992000	0,5	0,692950
4,000333	0,5	0,686300
4,008667	0,5	0,690000
4,017000	0,5	0,689900
4,025333	0,5	0,676300
4,033667	0,5	0,659350
4,042000	0,5	0,658750
4,050333	0,5	0,646350
4,058667	0,5	0,639250
4,067000	0,5	0,630150
4,075333	0,5	0,623400
4,083667	0,5	0,620100
4,092000	0,5	0,622200
4,100333	0,5	0,627900
4,108667	0,5	0,616900
4,117000	0,5	0,625400
4,125333	0,5	0,617200
4,133667	0,5	0,598900
4,142000	0,5	0,595150
4,150333	0,5	0,603250
4,158667	0,5	0,613250
4,167000	0,5	0,622900
4,175333	0,5	0,604650
4,183667	0,5	0,604400
4,192000	0,5	0,597500
4,200333	0,5	0,598150
4,208667	0,5	0,589450
4,217000	0,5	0,591150
4,225333	0,5	0,584050
4,233667	0,5	0,589750
4,242000	0,5	0,588900
4,250333	0,5	0,591350
4,258667	0,5	0,582350
4,267000	0,5	0,597200
4,275333	0,5	0,580150
4,283667	0,5	0,580450
4,292000	0,5	0,586050
4,300333	0,5	0,597800
4,308667	0,5	0,626700
4,317000	0,5	0,638600
4,325333	0,5	0,651000
4,333667	0,5	0,658150
4,342000	0,5	0,676900
4,350333	0,5	0,682800
4,358667	0,5	0,697700
4,367000	0,5	0,694350
4,375333	0,5	0,694300
4,383667	0,5	0,685950
4,392000	0,5	0,674200
4,400333	0,5	0,641250
4,408667	0,5	0,636500
4,417000	0,5	0,621100
4,425333	0,5	0,590700
4,433667	0,5	0,573050
4,442000	0,5	0,563150
4,450333	0,5	0,570100
4,458667	0,5	0,583500
4,467000	0,5	0,581500
4,475333	0,5	0,578200
4,483667	0,5	0,568300
4,492000	0,5	0,565300
4,500333	0,5	0,548800
4,508667	0,5	0,550050
4,517000	0,5	0,546250
4,525333	0,5	0,540750
4,533667	0,5	0,546050
4,542000	0,5	0,531300
4,550333	0,5	0,528250
4,558667	0,5	0,538750
4,567000	0,5	0,535400
4,575333	0,5	0,520350
4,583667	0,5	0,520150
4,592000	0,5	0,522150
4,600333	0,5	0,548250
4,608667	0,5	0,549500
4,617000	0,5	0,550300
4,625333	0,5	0,543150
4,633667	0,5	0,550650
4,642000	0,5	0,546550
4,650333	0,5	0,547450
4,658667	0,5	0,547700
4,667000	0,5	0,548300
4,675333	0,5	0,552100
4,683667	0,5	0,555350
4,692000	0,5	0,561700
4,700333	0,5	0,560550
4,708667	0,5	0,586850
4,717000	0,5	0,576100
4,725333	0,5	0,572100
4,733667	0,5	0,571100
4,742000	0,5	0,577550
4,750333	0,5	0,593800
4,758667	0,5	0,592950
4,767000	0,5	0,579100
4,775333	0,5	0,583500
4,783667	0,5	0,571800
4,792000	0,5	0,567350
4,800333	0,5	0,553950
4,808667	0,5	0,549650
4,817000	0,5	0,543700
4,825333	0,5	0,540850
4,833667	0,5	0,546350
4,842000	0,5	0,532200
4,850333	0,5	0,527500
4,858667	0,5	0,548150
4,867000	0,5	0,524850
4,875333	0,5	0,523400
4,883667	0,5	0,532100
4,892000	0,5	0,535850
4,900333	0,5	0,568050
4,908667	0,5	0,559100
4,917000	0,5	0,564600
4,925333	0,5	0,561100
4,933667	0,5	0,574500
4,942000	0,5	0,574000
4,950333	0,5	0,587300
4,958667	0,5	0,590300
4,967000	0,5	0,604950
4,975333	0,5	0,616300
4,983667	0,5	0,627900
4,992000	0,5	0,633550
5,000333	0,5	0,663500
5,008667	0,5	0,699650
5,017000	0,5	0,721250
5,025333	0,5	0,764150
5,033667	0,5	0,813750
5,042000	0,5	0,885100
5,050333	0,5	0,966750
5,058667	0,5	1,029900
5,067000	0,5	1,100200
5,075333	0,5	1,180450
5,083667	0,5	1,259150
5,092000	0,5	1,341700
5,100333	0,5	1,419550
5,108667	0,5	1,509900
5,117000	0,5	1,591800
5,125333	0,5	1,682800
5,133667	0,5	1,763850
5,142000	0,5	1,834550
5,150333	0,5	1,899050
5,158667	0,5	1,934000
5,167000	0,5	1,931550
5,175333	0,5	1,917350
5,183667	0,5	1,883250
5,192000	0,5	1,832450
5,200333	0,5	1,761250
5,208667	0,5	1,650900
5,217000	0,5	1,537050
5,225333	0,5	1,422050
5,233667	0,5	1,312450
5,242000	0,5	1,211300
5,250333	0,5	1,125500
5,258667	0,5	1,043200
5,267000	0,5	0,978650
5,275333	0,5	0,922350
5,283667	0,5	0,873050
5,292000	0,5	0,834900
5,300333	0,5	0,821700
5,308667	0,5	0,785550
5,317000	0,5	0,771250
5,325333	0,5	0,761450
5,333667	0,5	0,773900
5,342000	0,5	0,786350
5,350333	0,5	0,792300
5,358667	0,5	0,790950
5,367000	0,5	0,795350
5,375333	0,5	0,796200
5,383667	0,5	0,803250
5,392000	0,5	0,803100
5,400333	0,5	0,804500
5,408667	0,5	0,807500
5,417000	0,5	0,807050
5,425333	0,5	0,806950
5,433667	0,5	0,796700
5,442000	0,5	0,808300
5,450333	0,5	0,824450
5,458667	0,5	0,819750
5,467000	0,5	0,821750
5,475333	0,5	0,836250
5,483667	0,5	0,861900
5,492000	0,5	0,891800
5,500333	0,5	0,895600
5,508667	0,5	0,902250
5,517000	0,5	0,897250
5,525333	0,5	0,903250
5,533667	0,5	0,890900
5,542000	0,5	0,883750
5,550333	0,5	0,868100
5,558667	0,5	0,853650
5,567000	0,5	0,842550
5,575333	0,5	0,819700
5,583667	0,5	0,794100
5,592000	0,5	0,793200
5,600333	0,5	0,774750
5,608667	0,5	0,754000
5,617000	0,5	0,746900
5,625333	0,5	0,742150
5,633667	0,5	0,757050
5,642000	0,5	0,755150
5,650333	0,5	0,755450
5,658667	0,5	0,746250
5,667000	0,5	0,750950
5,675333	0,5	0,748450
5,683667	0,5	0,754800
5,692000	0,5	0,748200
5,700333	0,5	0,754200
5,708667	0,5	0,750000
5,717000	0,5	0,756000
5,725333	0,5	0,757700
5,733667	0,5	0,755650
5,742000	0,5	0,783000
5,750333	0,5	0,774600
5,758667	0,5	0,772800
5,767000	0,5	0,782850
5,775333	0,5	0,797100
5,783667	0,5	0,823950
5,792000	0,5	0,833550
5,800333	0,5	0,840300
5,808667	0,5	0,855950
5,817000	0,5	0,872000
5,825333	0,5	0,887200
5,833667	0,5	0,892500
5,842000	0,5	0,914200
5,850333	0,5	0,925450
5,858667	0,5	0,951000
5,867000	0,5	0,977200
5,875333	0,5	0,999650
5,883667	0,5	1,034150
5,892000	0,5	1,107350
5,900333	0,5	1,154950
5,908667	0,5	1,241850
5,917000	0,5	1,353800
5,925333	0,5	1,500650
5,933667	0,5	1,683100
5,942000	0,5	1,860200
5,950333	0,5	2,055150
5,958667	0,5	2,255250
5,967000	0,5	2,455500
5,975333	0,5	2,625650
5,983667	0,5	2,760400
5,992000	0,5	2,836150
6,000333	0,5	2,865650
6,008667	0,5	2,834450
6,017000	0,5	2,747050
6,025333	0,5	2,604750
6,033667	0,5	2,451400
6,042000	0,5	2,283050
6,050333	0,5	2,097650
6,058667	0,5	1,921750
6,067000	0,5	1,769100
6,075333	0,5	1,634150
6,083667	0,5	1,531100
6,092000	0,5	1,419700
6,100333	0,5	1,345850
6,108667	0,5	1,271100
6,117000	0,5	1,218300
6,125333	0,5	1,175950
6,133667	0,5	1,141950
6,142000	0,5	1,110450
6,150333	0,5	1,088000
6,158667	0,5	1,073150
6,167000	0,5	1,053750
6,175333	0,5	1,043300
6,183667	0,5	1,043150
6,192000	0,5	1,044700
6,200333	0,5	1,033350
6,208667	0,5	1,037750
6,217000	0,5	1,046600
6,225333	0,5	1,070550
6,233667	0,5	1,090250
6,242000	0,5	1,102800
6,250333	0,5	1,107450
6,258667	0,5	1,118150
6,267000	0,5	1,118850
6,275333	0,5	1,129050
6,283667	0,5	1,131300
6,292000	0,5	1,139850
6,300333	0,5	1,137850
6,308667	0,5	1,133000
6,317000	0,5	1,123650
6,325333	0,5	1,115850
6,333667	0,5	1,116500
6,342000	0,5	1,102700
6,350333	0,5	1,094400
6,358667	0,5	1,087950
6,367000	0,5	1,097050
6,375333	0,5	1,109150
6,383667	0,5	1,122000
6,392000	0,5	1,116000
6,400333	0,5	1,120700
6,408667	0,5	1,116150
6,417000	0,5	1,122000
6,425333	0,5	1,121100
6,433667	0,5	1,124400
6,442000	0,5	1,121050
6,450333	0,5	1,124750
6,458667	0,5	1,124650
6,467000	0,5	1,119650
6,475333	0,5	1,123700
6,483667	0,5	1,140300
6,492000	0,5	1,135550
6,500333	0,5	1,136800
6,508667	0,5	1,145100
6,517000	0,5	1,163700
6,525333	0,5	1,188000
6,533667	0,5	1,195450
6,542000	0,5	1,206800
6,550333	0,5	1,212600
6,558667	0,5	1,224950
6,567000	0,5	1,229550
6,575333	0,5	1,241000
6,583667	0,5	1,242500
6,592000	0,5	1,249500
6,600333	0,5	1,254150
6,608667	0,5	1,251950
6,617000	0,5	1,243350
6,625333	0,5	1,258250
6,633667	0,5	1,259050
6,642000	0,5	1,257450
6,650333	0,5	1,258150
6,658667	0,5	1,268900
6,667000	0,5	1,292300
6,675333	0,5	1,303200
6,683667	0,5	1,305550
6,692000	0,5	1,311450
6,700333	0,5	1,317800
6,708667	0,5	1,320850
6,717000	0,5	1,328050
6,725333	0,5	1,326400
6,733667	0,5	1,330900
6,742000	0,5	1,328800
6,750333	0,5	1,335050
6,758667	0,5	1,327450
6,767000	0,5	1,323100
6,775333	0,5	1,341250
6,783667	0,5	1,339650
6,792000	0,5	1,333000
6,800333	0,5	1,337500
6,808667	0,5	1,336900
6,817000	0,5	1,362650
6,825333	0,5	1,362550
6,833667	0,5	1,367250
6,842000	0,5	1,360600
6,850333	0,5	1,368250
6,858667	0,5	1,367550
6,867000	0,5	1,370250
6,875333	0,5	1,369400
6,883667	0,5	1,370400
6,892000	0,5	1,372900
6,900333	0,5	1,376050
6,908667	0,5	1,378300
6,917000	0,5	1,370400
6,925333	0,5	1,386100
6,933667	0,5	1,373700
6,942000	0,5	1,372100
6,950333	0,5	1,370050
6,958667	0,5	1,379950
6,967000	0,5	1,396100
6,975333	0,5	1,395350
6,983667	0,5	1,390150
6,992000	0,5	1,396850
7,000333	0,5	1,395300
7,008667	0,5	1,404250
7,017000	0,5	1,411300
7,025333	0,5	1,425350
7,033667	0,5	1,442350
7,042000	0,5	1,463600
7,050333	0,5	1,491450
7,058667	0,5	1,503850
7,067000	0,5	1,511250
7,075333	0,5	1,519750
7,083667	0,5	1,499200
7,092000	0,5	1,473950
7,100333	0,5	1,449700
7,108667	0,5	1,431450
7,117000	0,5	1,421650
7,125333	0,5	1,394650
7,133667	0,5	1,388650
7,142000	0,5	1,377650
7,150333	0,5	1,374650
7,158667	0,5	1,365450
7,167000	0,5	1,360500
7,175333	0,5	1,349050
7,183667	0,5	1,340100
7,192000	0,5	1,330700
7,200333	0,5	1,314500
7,208667	0,5	1,296450
7,217000	0,5	1,289800
7,225333	0,5	1,281200
7,233667	0,5	1,265750
7,242000	0,5	1,258750
7,250333	0,5	1,258050
7,258667	0,5	1,264700
7,267000	0,5	1,268200
7,275333	0,5	1,266800
7,283667	0,5	1,256900
7,292000	0,5	1,252550
7,300333	0,5	1,245050
7,308667	0,5	1,239900
7,317000	0,5	1,229200
7,325333	0,5	1,220800
7,333667	0,5	1,215450
7,342000	0,5	1,212400
7,350333	0,5	1,202350
7,358667	0,5	1,197250
7,367000	0,5	1,197150
7,375333	0,5	1,192550
7,383667	0,5	1,186350
7,392000	0,5	1,183400
7,400333	0,5	1,183400
7,408667	0,5	1,195000
7,417000	0,5	1,201700
7,425333	0,5	1,198350
7,433667	0,5	1,197750
7,442000	0,5	1,198550
7,450333	0,5	1,197550
7,458667	0,5	1,190700
7,467000	0,5	1,187200
7,475333	0,5	1,174000
7,483667	0,5	1,167850
7,492000	0,5	1,157900
7,500333	0,5	1,147250
7,508667	0,5	1,139900
7,517000	0,5	1,148850
7,525333	0,5	1,142200
7,533667	0,5	1,144150
7,542000	0,5	1,148100
7,550333	0,5	1,156650
7,558667	0,5	1,162600
7,567000	0,5	1,157000
7,575333	0,5	1,146100
7,583667	0,5	1,134450
7,592000	0,5	1,124550
7,600333	0,5	1,105250
7,608667	0,5	1,093250
7,617000	0,5	1,080800
7,625333	0,5	1,072400
7,633667	0,5	1,066600
7,642000	0,5	1,062050
7,650333	0,5	1,047900
7,658667	0,5	1,047950
7,667000	0,5	1,048150
7,675333	0,5	1,048250
7,683667	0,5	1,057150
7,692000	0,5	1,087850
7,700333	0,5	1,135300
7,708667	0,5	1,196000
7,717000	0,5	1,239300
7,725333	0,5	1,279250
7,733667	0,5	1,297750
7,742000	0,5	1,301650
7,750333	0,5	1,277750
7,758667	0,5	1,238800
7,767000	0,5	1,183950
7,775333	0,5	1,135100
7,783667	0,5	1,096450
7,792000	0,5	1,062150
7,800333	0,5	1,035450
7,808667	0,5	1,026850
7,817000	0,5	1,019150
7,825333	0,5	1,010050
7,833667	0,5	1,007750
7,842000	0,5	1,007450
7,850333	0,5	1,017000
7,858667	0,5	1,010500
7,867000	0,5	1,005500
7,875333	0,5	0,994600
7,883667	0,5	0,989500
7,892000	0,5	0,984850
7,900333	0,5	0,978650
7,908667	0,5	0,975550
7,917000	0,5	0,972550
7,925333	0,5	0,970350
7,933667	0,5	0,970800
7,942000	0,5	0,967500
7,950333	0,5	0,967650
7,958667	0,5	0,974200
7,967000	0,5	0,980400
7,975333	0,5	0,987500
7,983667	0,5	0,994900
7,992000	0,5	1,000350
8,000333	0,5	1,000150
8,008667	0,5	0,987650
8,017000	0,5	0,969400
8,025333	0,5	0,957050
8,033667	0,5	0,953850
8,042000	0,5	0,964450
8,050333	0,5	0,986200
8,058667	0,5	1,018550
8,067000	0,5	1,049000
8,075333	0,5	1,068000
8,083667	0,5	1,073800
8,092000	0,5	1,079800
8,100333	0,5	1,089300
8,108667	0,5	1,125500
8,117000	0,5	1,168350
8,125333	0,5	1,230050
8,133667	0,5	1,317250
8,142000	0,5	1,450800
8,150333	0,5	1,676700
8,158667	0,5	2,061100
8,167000	0,5	2,724200
8,175333	0,5	3,694950
8,183667	0,5	4,853450
8,192000	0,5	5,877400
8,200333	0,5	6,395900
8,208667	0,5	6,200950
8,217000	0,5	5,403450
8,225333	0,5	4,306200
8,233667	0,5	3,242750
8,242000	0,5	2,395350
8,250333	0,5	1,817500
8,258667	0,5	1,466600
8,267000	0,5	1,261150
8,275333	0,5	1,148150
8,283667	0,5	1,087450
8,292000	0,5	1,052300
8,300333	0,5	1,034850
8,308667	0,5	1,014400
8,317000	0,5	0,993050
8,325333	0,5	0,976650
8,333667	0,5	0,969900
8,342000	0,5	0,963300
8,350333	0,5	0,964800
8,358667	0,5	0,953900
8,367000	0,5	0,930700
8,375333	0,5	0,906100
8,383667	0,5	0,879550
8,392000	0,5	0,863700
8,400333	0,5	0,860200
8,408667	0,5	0,855150
8,417000	0,5	0,851550
8,425333	0,5	0,849000
8,433667	0,5	0,843300
8,442000	0,5	0,843650
8,450333	0,5	0,839850
8,458667	0,5	0,831400
8,467000	0,5	0,823000
8,475333	0,5	0,817500
8,483667	0,5	0,814200
8,492000	0,5	0,815250
8,500333	0,5	0,819750
8,508667	0,5	0,823400
8,517000	0,5	0,825550
8,525333	0,5	0,830400
8,533667	0,5	0,828350
8,542000	0,5	0,826800
8,550333	0,5	0,830400
8,558667	0,5	0,832850
8,567000	0,5	0,838050
8,575333	0,5	0,851500
8,583667	0,5	0,868250
8,592000	0,5	0,873100
8,600333	0,5	0,864900
8,608667	0,5	0,849000
8,617000	0,5	0,835450
8,625333	0,5	0,824250
8,633667	0,5	0,821500
8,642000	0,5	0,820800
8,650333	0,5	0,824400
8,658667	0,5	0,823800
8,667000	0,5	0,827450
8,675333	0,5	0,828950
8,683667	0,5	0,823950
8,692000	0,5	0,816200
8,700333	0,5	0,808500
8,708667	0,5	0,794750
8,717000	0,5	0,784400
8,725333	0,5	0,787000
8,733667	0,5	0,798350
8,742000	0,5	0,815600
8,750333	0,5	0,828200
8,758667	0,5	0,845850
8,767000	0,5	0,866550
8,775333	0,5	0,885100
8,783667	0,5	0,902400
8,792000	0,5	0,913950
8,800333	0,5	0,908850
8,808667	0,5	0,891450
8,817000	0,5	0,870250
8,825333	0,5	0,852950
8,833667	0,5	0,839800
8,842000	0,5	0,839050
8,850333	0,5	0,847650
8,858667	0,5	0,863150
8,867000	0,5	0,886100
8,875333	0,5	0,923850
8,883667	0,5	0,967450
8,892000	0,5	1,010450
8,900333	0,5	1,057350
8,908667	0,5	1,113750
8,917000	0,5	1,199000
8,925333	0,5	1,349450
8,933667	0,5	1,627500
8,942000	0,5	2,146650
8,950333	0,5	2,989600
8,958667	0,5	4,114150
8,967000	0,5	5,215950
8,975333	0,5	5,869750
8,983667	0,5	5,805100
8,992000	0,5	5,084150
9,000333	0,5	4,026900
9,008667	0,5	2,984200
9,017000	0,5	2,171600
9,025333	0,5	1,635200
9,033667	0,5	1,315100
9,042000	0,5	1,137300
9,050333	0,5	1,040900
9,058667	0,5	0,988800
9,067000	0,5	0,965100
9,075333	0,5	0,953100
9,083667	0,5	0,945300
9,092000	0,5	0,937850
9,100333	0,5	0,925700
9,108667	0,5	0,916000
9,117000	0,5	0,911850
9,125333	0,5	0,916750
9,133667	0,5	0,924550
9,142000	0,5	0,939450
9,150333	0,5	0,953150
9,158667	0,5	0,960000
9,167000	0,5	0,964750
9,175333	0,5	0,971150
9,183667	0,5	0,978550
9,192000	0,5	0,981800
9,200333	0,5	0,988450
9,208667	0,5	1,000350
9,217000	0,5	1,010950
9,225333	0,5	1,022400
9,233667	0,5	1,030350
9,242000	0,5	1,033950
9,250333	0,5	1,035100
9,258667	0,5	1,032550
9,267000	0,5	1,031800
9,275333	0,5	1,033200
9,283667	0,5	1,041650
9,292000	0,5	1,055050
9,300333	0,5	1,066150
9,308667	0,5	1,069000
9,317000	0,5	1,059050
9,325333	0,5	1,041300
9,333667	0,5	1,023150
9,342000	0,5	1,006550
9,350333	0,5	0,989750
9,358667	0,5	0,976100
9,367000	0,5	0,963600
9,375333	0,5	0,956200
9,383667	0,5	0,950750
9,392000	0,5	0,951150
9,400333	0,5	0,949750
9,408667	0,5	0,949950
9,417000	0,5	0,951400
9,425333	0,5	0,953300
9,433667	0,5	0,953550
9,442000	0,5	0,962050
9,450333	0,5	0,969150
9,458667	0,5	0,977200
9,467000	0,5	0,991200
9,475333	0,5	1,001650
9,483667	0,5	1,017900
9,492000	0,5	1,030850
9,500333	0,5	1,045600
9,508667	0,5	1,057550
9,517000	0,5	1,067800
9,525333	0,5	1,068650
9,533667	0,5	1,068000
9,542000	0,5	1,065300
9,550333	0,5	1,063600
9,558667	0,5	1,063350
9,567000	0,5	1,068550
9,575333	0,5	1,076050
9,583667	0,5	1,092900
9,592000	0,5	1,113300
9,600333	0,5	1,144250
9,608667	0,5	1,180750
9,617000	0,5	1,229300
9,625333	0,5	1,284750
9,633667	0,5	1,340300
9,642000	0,5	1,388750
9,650333	0,5	1,425950
9,658667	0,5	1,449400
9,667000	0,5	1,461000
9,675333	0,5	1,453350
9,683667	0,5	1,441100
9,692000	0,5	1,416800
9,700333	0,5	1,392700
9,708667	0,5	1,370750
9,717000	0,5	1,349700
9,725333	0,5	1,334550
9,733667	0,5	1,327700
9,742000	0,5	1,325350
9,750333	0,5	1,326800
9,758667	0,5	1,330750
9,767000	0,5	1,341700
9,775333	0,5	1,353450
9,783667	0,5	1,368950
9,792000	0,5	1,376450
9,800333	0,5	1,385900
9,808667	0,5	1,395950
9,817000	0,5	1,410200
9,825333	0,5	1,422550
9,833667	0,5	1,433100
9,842000	0,5	1,446900
9,850333	0,5	1,457500
9,858667	0,5	1,461600
9,867000	0,5	1,466000
9,875333	0,5	1,463150
9,883667	0,5	1,466800
9,892000	0,5	1,468700
9,900333	0,5	1,470850
9,908667	0,5	1,481850
9,917000	0,5	1,495500
9,925333	0,5	1,513750
9,933667	0,5	1,535500
9,942000	0,5	1,561650
9,950333	0,5	1,581300
9,958667	0,5	1,602650
9,967000	0,5	1,617850
9,975333	0,5	1,625550
9,983667	0,5	1,629850
9,992000	0,5	1,632800
10,000333	0,5	1,631400
10,008667	0,5	1,639600
10,017000	0,5	1,643750
10,025333	0,5	1,650950
10,033667	0,5	1,669500
10,042000	0,5	1,688100
10,050333	0,5	1,714250
10,058667	0,5	1,756550
10,067000	0,5	1,813150
10,075333	0,5	1,891250
10,083667	0,5	1,990050
10,092000	0,5	2,108650
10,100333	0,5	2,236350
10,108667	0,5	2,375500
10,117000	0,5	2,502200
10,125333	0,5	2,618100
10,133667	0,5	2,700650
10,142000	0,5	2,741000
10,150333	0,5	2,731950
10,158667	0,5	2,673200
10,167000	0,5	2,576250
10,175333	0,5	2,453600
10,183667	0,5	2,324300
10,192000	0,5	2,188550
10,200333	0,5	2,074450
10,208667	0,5	1,974500
10,217000	0,5	1,898250
10,225333	0,5	1,838700
10,233667	0,5	1,805500
10,242000	0,5	1,779000
10,250333	0,5	1,768050
10,258667	0,5	1,764100
10,267000	0,5	1,766600
10,275333	0,5	1,771000
10,283667	0,5	1,774250
10,292000	0,5	1,774100
10,300333	0,5	1,769650
10,308667	0,5	1,758900
10,317000	0,5	1,745300
10,325333	0,5	1,733500
10,333667	0,5	1,725100
10,342000	0,5	1,714200
10,350333	0,5	1,709600
10,358667	0,5	1,703450
10,367000	0,5	1,702250
10,375333	0,5	1,703400
10,383667	0,5	1,703800
10,392000	0,5	1,707100
10,400333	0,5	1,709050
10,408667	0,5	1,712400
10,417000	0,5	1,718050
10,425333	0,5	1,718750
10,433667	0,5	1,721150
10,442000	0,5	1,719700
10,450333	0,5	1,719200
10,458667	0,5	1,718800
10,467000	0,5	1,714300
10,475333	0,5	1,720200
10,483667	0,5	1,724800
10,492000	0,5	1,727600
10,500333	0,5	1,731550
10,508667	0,5	1,738450
10,517000	0,5	1,748650
10,525333	0,5	1,759650
10,533667	0,5	1,773500
10,542000	0,5	1,782950
10,550333	0,5	1,792000
10,558667	0,5	1,797000
10,567000	0,5	1,798800
10,575333	0,5	1,792250
10,583667	0,5	1,782350
10,592000	0,5	1,772000
10,600333	0,5	1,759050
10,608667	0,5	1,740850
10,617000	0,5	1,731050
10,625333	0,5	1,724450
10,633667	0,5	1,715200
10,642000	0,5	1,706750
10,650333	0,5	1,695050
10,658667	0,5	1,687500
10,667000	0,5	1,688550
10,675333	0,5	1,686900
10,683667	0,5	1,682000
10,692000	0,5	1,676550
10,700333	0,5	1,673650
10,708667	0,5	1,666750
10,717000	0,5	1,664100
10,725333	0,5	1,656900
10,733667	0,5	1,654250
10,742000	0,5	1,653800
10,750333	0,5	1,657850
10,758667	0,5	1,666800
10,767000	0,5	1,675650
10,775333	0,5	1,682850
10,783667	0,5	1,680450
10,792000	0,5	1,671450
10,800333	0,5	1,657100
10,808667	0,5	1,638800
10,817000	0,5	1,622450
10,825333	0,5	1,601750
10,833667	0,5	1,580200
10,842000	0,5	1,561250
10,850333	0,5	1,544050
10,858667	0,5	1,526050
10,867000	0,5	1,512750
10,875333	0,5	1,499050
10,883667	0,5	1,488150
10,892000	0,5	1,478450
10,900333	0,5	1,475200
10,908667	0,5	1,464150
10,917000	0,5	1,466350
10,925333	0,5	1,460800
10,933667	0,5	1,458250
10,942000	0,5	1,450950
10,950333	0,5	1,453900
10,958667	0,5	1,460100
10,967000	0,5	1,476800
10,975333	0,5	1,483450
10,983667	0,5	1,492250
10,992000	0,5	1,490800
11,000333	0,5	1,487800
11,008667	0,5	1,471850
11,017000	0,5	1,454200
11,025333	0,5	1,428450
11,033667	0,5	1,405700
11,042000	0,5	1,387100
11,050333	0,5	1,368350
11,058667	0,5	1,350750
11,067000	0,5	1,342900
11,075333	0,5	1,332450
11,083667	0,5	1,323000
11,092000	0,5	1,313600
11,100333	0,5	1,308650
11,108667	0,5	1,308700
11,117000	0,5	1,308750
11,125333	0,5	1,313750
11,133667	0,5	1,322050
11,142000	0,5	1,334750
11,150333	0,5	1,348050
11,158667	0,5	1,364000
11,167000	0,5	1,374600
11,175333	0,5	1,377350
11,183667	0,5	1,373550
11,192000	0,5	1,363050
11,200333	0,5	1,344800
11,208667	0,5	1,328500
11,217000	0,5	1,317400
11,225333	0,5	1,301100
11,233667	0,5	1,288750
11,242000	0,5	1,274950
11,250333	0,5	1,266300
11,258667	0,5	1,263700
11,267000	0,5	1,264350
11,275333	0,5	1,265250
11,283667	0,5	1,267650
11,292000	0,5	1,272150
11,300333	0,5	1,283000
11,308667	0,5	1,294750
11,317000	0,5	1,309800
11,325333	0,5	1,322950
11,333667	0,5	1,332300
11,342000	0,5	1,338200
11,350333	0,5	1,337600
11,358667	0,5	1,335650
11,367000	0,5	1,328100
11,375333	0,5	1,306750
11,383667	0,5	1,284400
11,392000	0,5	1,257100
11,400333	0,5	1,228850
11,408667	0,5	1,206450
11,417000	0,5	1,175700
11,425333	0,5	1,156200
11,433667	0,5	1,139700
11,442000	0,5	1,135850
11,450333	0,5	1,136150
11,458667	0,5	1,152550
11,467000	0,5	1,170000
11,475333	0,5	1,194900
11,483667	0,5	1,222350
11,492000	0,5	1,241850
11,500333	0,5	1,251250
11,508667	0,5	1,267950
11,517000	0,5	1,264550
11,525333	0,5	1,258800
11,533667	0,5	1,246900
11,542000	0,5	1,233700
11,550333	0,5	1,227950
11,558667	0,5	1,223650
11,567000	0,5	1,214350
11,575333	0,5	1,207350
11,583667	0,5	1,203950
11,592000	0,5	1,197700
11,600333	0,5	1,200150
11,608667	0,5	1,194550
11,617000	0,5	1,198300
11,625333	0,5	1,197350
11,633667	0,5	1,201500
11,642000	0,5	1,194600
11,650333	0,5	1,187250
11,658667	0,5	1,185950
11,667000	0,5	1,178750
11,675333	0,5	1,169700
11,683667	0,5	1,157300
11,692000	0,5	1,151350
11,700333	0,5	1,145000
11,708667	0,5	1,143600
11,717000	0,5	1,141250
11,725333	0,5	1,138000
11,733667	0,5	1,137400
11,742000	0,5	1,139950
11,750333	0,5	1,139350
11,758667	0,5	1,146950
11,767000	0,5	1,143950
11,775333	0,5	1,148600
11,783667	0,5	1,148900
11,792000	0,5	1,146700
11,800333	0,5	1,154050
11,808667	0,5	1,160000
11,817000	0,5	1,163800
11,825333	0,5	1,171050
11,833667	0,5	1,171300
11,842000	0,5	1,184650
11,850333	0,5	1,195450
11,858667	0,5	1,205950
11,867000	0,5	1,213900
11,875333	0,5	1,224150
11,883667	0,5	1,229050
11,892000	0,5	1,236000
11,900333	0,5	1,238950
11,908667	0,5	1,239350
11,917000	0,5	1,241450
11,925333	0,5	1,244450
11,933667	0,5	1,250650
11,942000	0,5	1,251750
11,950333	0,5	1,268600
11,958667	0,5	1,277550
11,967000	0,5	1,287200
11,975333	0,5	1,293400
11,983667	0,5	1,302200
11,992000	0,5	1,321450
12,000333	0,5	1,338150
12,008667	0,5	1,356550
12,017000	0,5	1,383450
12,025333	0,5	1,414500
12,033667	0,5	1,455450
12,042000	0,5	1,498250
12,050333	0,5	1,546550
12,058667	0,5	1,587450
12,067000	0,5	1,622450
12,075333	0,5	1,647250
12,083667	0,5	1,655400
12,092000	0,5	1,647150
12,100333	0,5	1,633300
12,108667	0,5	1,604200
12,117000	0,5	1,573750
12,125333	0,5	1,543700
12,133667	0,5	1,513350
12,142000	0,5	1,499700
12,150333	0,5	1,484950
12,158667	0,5	1,472950
12,167000	0,5	1,462450
12,175333	0,5	1,455750
12,183667	0,5	1,448200
12,192000	0,5	1,445450
12,200333	0,5	1,441800
12,208667	0,5	1,441350
12,217000	0,5	1,441550
12,225333	0,5	1,448600
12,233667	0,5	1,444800
12,242000	0,5	1,451000
12,250333	0,5	1,460300
12,258667	0,5	1,452100
12,267000	0,5	1,444800
12,275333	0,5	1,439250
12,283667	0,5	1,433400
12,292000	0,5	1,430650
12,300333	0,5	1,432350
12,308667	0,5	1,431400
12,317000	0,5	1,429250
12,325333	0,5	1,427400
12,333667	0,5	1,431400
12,342000	0,5	1,428900
12,350333	0,5	1,431900
12,358667	0,5	1,432550
12,367000	0,5	1,441200
12,375333	0,5	1,439900
12,383667	0,5	1,438850
12,392000	0,5	1,443500
12,400333	0,5	1,444800
12,408667	0,5	1,437900
12,417000	0,5	1,429450
12,425333	0,5	1,417250
12,433667	0,5	1,411600
12,442000	0,5	1,407650
12,450333	0,5	1,406100
12,458667	0,5	1,402050
12,467000	0,5	1,397100
12,475333	0,5	1,397700
12,483667	0,5	1,393900
12,492000	0,5	1,399800
12,500333	0,5	1,392300
12,508667	0,5	1,392500
12,517000	0,5	1,391850
12,525333	0,5	1,386300
12,533667	0,5	1,387850
12,542000	0,5	1,390050
12,550333	0,5	1,391100
12,558667	0,5	1,389150
12,567000	0,5	1,377100
12,575333	0,5	1,373150
12,583667	0,5	1,374650
12,592000	0,5	1,378150
12,600333	0,5	1,376750
12,608667	0,5	1,380900
12,617000	0,5	1,379950
12,625333	0,5	1,384700
12,633667	0,5	1,389700
12,642000	0,5	1,389050
12,650333	0,5	1,391200
12,658667	0,5	1,390900
12,667000	0,5	1,392600
12,675333	0,5	1,385650
12,683667	0,5	1,386450
12,692000	0,5	1,386950
12,700333	0,5	1,385000
12,708667	0,5	1,375850
12,717000	0,5	1,371700
12,725333	0,5	1,372450
12,733667	0,5	1,379150
12,742000	0,5	1,380350
12,750333	0,5	1,384950
12,758667	0,5	1,385250
12,767000	0,5	1,391850
12,775333	0,5	1,393500
12,783667	0,5	1,393800
12,792000	0,5	1,392500
12,800333	0,5	1,390250
12,808667	0,5	1,392300
12,817000	0,5	1,390500
12,825333	0,5	1,371950
12,833667	0,5	1,375850
12,842000	0,5	1,370250
12,850333	0,5	1,361700
12,858667	0,5	1,356850
12,867000	0,5	1,345600
12,875333	0,5	1,345950
12,883667	0,5	1,342150
12,892000	0,5	1,345000
12,900333	0,5	1,333550
12,908667	0,5	1,335900
12,917000	0,5	1,324900
12,925333	0,5	1,318050
12,933667	0,5	1,314200
12,942000	0,5	1,305950
12,950333	0,5	1,304000
12,958667	0,5	1,304800
12,967000	0,5	1,302000
12,975333	0,5	1,295400
12,983667	0,5	1,300600
12,992000	0,5	1,298750
13,000333	0,5	1,300550
13,008667	0,5	1,299100
13,017000	0,5	1,300450
13,025333	0,5	1,303450
13,033667	0,5	1,310250
13,042000	0,5	1,304900
13,050333	0,5	1,305150
13,058667	0,5	1,303700
13,067000	0,5	1,309000
13,075333	0,5	1,312200
13,083667	0,5	1,322250
13,092000	0,5	1,325650
13,100333	0,5	1,327400
13,108667	0,5	1,327550
13,117000	0,5	1,323300
13,125333	0,5	1,318750
13,133667	0,5	1,328100
13,142000	0,5	1,326650
13,150333	0,5	1,330500
13,158667	0,5	1,324500
13,167000	0,5	1,316200
13,175333	0,5	1,313350
13,183667	0,5	1,309100
13,192000	0,5	1,307500
13,200333	0,5	1,311350
13,208667	0,5	1,318850
13,217000	0,5	1,319350
13,225333	0,5	1,324550
13,233667	0,5	1,313000
13,242000	0,5	1,306050
13,250333	0,5	1,296200
13,258667	0,5	1,298100
13,267000	0,5	1,291650
13,275333	0,5	1,300700
13,283667	0,5	1,300850
13,292000	0,5	1,291250
13,300333	0,5	1,275350
13,308667	0,5	1,259150
13,317000	0,5	1,252850
13,325333	0,5	1,253000
13,333667	0,5	1,254750
13,342000	0,5	1,257500
13,350333	0,5	1,251800
13,358667	0,5	1,242900
13,367000	0,5	1,242450
13,375333	0,5	1,240700
13,383667	0,5	1,243100
13,392000	0,5	1,241950
13,400333	0,5	1,249350
13,408667	0,5	1,240050
13,417000	0,5	1,233700
13,425333	0,5	1,233450
13,433667	0,5	1,234600
13,442000	0,5	1,228150
13,450333	0,5	1,217300
13,458667	0,5	1,206650
13,467000	0,5	1,202200
13,475333	0,5	1,197050
13,483667	0,5	1,195600
13,492000	0,5	1,189750
13,500333	0,5	1,186800
13,508667	0,5	1,184150
13,517000	0,5	1,186650
13,525333	0,5	1,185950
13,533667	0,5	1,183200
13,542000	0,5	1,184850
13,550333	0,5	1,184500
13,558667	0,5	1,174650
13,567000	0,5	1,174400
13,575333	0,5	1,176200
13,583667	0,5	1,176300
13,592000	0,5	1,170250
13,600333	0,5	1,156350
13,608667	0,5	1,152350
13,617000	0,5	1,150300
13,625333	0,5	1,154100
13,633667	0,5	1,150900
13,642000	0,5	1,152850
13,650333	0,5	1,147250
13,658667	0,5	1,149700
13,667000	0,5	1,148200
13,675333	0,5	1,148350
13,683667	0,5	1,147050
13,692000	0,5	1,147300
13,700333	0,5	1,153100
13,708667	0,5	1,138400
13,717000	0,5	1,147400
13,725333	0,5	1,151400
13,733667	0,5	1,153850
13,742000	0,5	1,148500
13,750333	0,5	1,138850
13,758667	0,5	1,145200
13,767000	0,5	1,148600
13,775333	0,5	1,147700
13,783667	0,5	1,145000
13,792000	0,5	1,141550
13,800333	0,5	1,139900
13,808667	0,5	1,135350
13,817000	0,5	1,136500
13,825333	0,5	1,127500
13,833667	0,5	1,123500
13,842000	0,5	1,125700
13,850333	0,5	1,129550
13,858667	0,5	1,117000
13,867000	0,5	1,134000
13,875333	0,5	1,133300
13,883667	0,5	1,134550
13,892000	0,5	1,128450
13,900333	0,5	1,101100
13,908667	0,5	1,087000
13,917000	0,5	1,056150
13,925333	0,5	1,037700
13,933667	0,5	1,008800
13,942000	0,5	0,987050
13,950333	0,5	0,956550
13,958667	0,5	0,923850
13,967000	0,5	0,882500
13,975333	0,5	0,826200
13,983667	0,5	0,703950
13,992000	0,5	0,474750
14,000333	0,5	0,200100
14,008667	0,5	-0,029100
14,017000	0,5	-0,173950
14,025333	0,5	-0,261300
14,033667	0,5	-0,316950
14,042000	0,5	-0,352400
14,050333	0,5	-0,379100
14,058667	0,5	-0,393050
14,067000	0,5	-0,403650
14,075333	0,5	-0,420800
14,083667	0,5	-0,435250
14,092000	0,5	-0,453650
14,100333	0,5	-0,461150
14,108667	0,5	-0,473300
14,117000	0,5	-0,476600
14,125333	0,5	-0,482100
14,133667	0,5	-0,477800
14,142000	0,5	-0,478750
14,150333	0,5	-0,481600
14,158667	0,5	-0,480800
14,167000	0,5	-0,471400
14,175333	0,5	-0,472650
14,183667	0,5	-0,469100
14,192000	0,5	-0,476300
14,200333	0,5	-0,476850
14,208667	0,5	-0,464750
14,217000	0,5	-0,453500
14,225333	0,5	-0,442500
14,233667	0,5	-0,431150
14,242000	0,5	-0,411200
14,250333	0,5	-0,398700
14,258667	0,5	-0,379350
14,267000	0,5	-0,371950
14,275333	0,5	-0,359700
14,283667	0,5	-0,350850
14,292000	0,5	-0,348500
14,300333	0,5	-0,350400
14,308667	0,5	-0,342000
14,317000	0,5	-0,341700
14,325333	0,5	-0,340850
14,333667	0,5	-0,343050
14,342000	0,5	-0,346250
14,350333	0,5	-0,335700
14,358667	0,5	-0,324350
14,367000	0,5	-0,316800
14,375333	0,5	-0,310800
14,383667	0,5	-0,303000
14,392000	0,5	-0,300000
14,400333	0,5	-0,291750
14,408667	0,5	-0,290200
14,417000	0,5	-0,282900
14,425333	0,5	-0,276400
14,433667	0,5	-0,259500
14,442000	0,5	-0,257400
14,450333	0,5	-0,252350
14,458667	0,5	-0,239250
14,467000	0,5	-0,221250
14,475333	0,5	-0,220150
14,483667	0,5	-0,212650
14,492000	0,5	-0,206450
14,500333	0,5	-0,188650
14,508667	0,5	-0,179050
14,517000	0,5	-0,160650
14,525333	0,5	-0,149650
14,533667	0,5	-0,129100
14,542000	0,5	-0,109800
14,550333	0,5	-0,090550
14,558667	0,5	-0,066900
14,567000	0,5	-0,049400
14,575333	0,5	-0,022950
14,583667	0,5	0,004650
14,592000	0,5	0,013000
14,600333	0,5	0,035450
14,608667	0,5	0,054250
14,617000	0,5	0,072150
14,625333	0,5	0,085950
14,633667	0,5	0,086350
14,642000	0,5	0,107850
14,650333	0,5	0,124800
14,658667	0,5	0,154800
14,667000	0,5	0,173250
14,675333	0,5	0,204150
14,683667	0,5	0,225100
14,692000	0,5	0,257900
14,700333	0,5	0,284850
14,708667	0,5	0,314200
14,717000	0,5	0,343450
14,725333	0,5	0,373350
14,733667	0,5	0,408000
14,742000	0,5	0,423350
14,750333	0,5	0,462050
14,758667	0,5	0,485900
14,767000	0,5	0,511300
14,775333	0,5	0,529100
14,783667	0,5	0,542650
14,792000	0,5	0,572000
14,800333	0,5	0,605500
14,808667	0,5	0,619300
14,817000	0,5	0,642600
14,825333	0,5	0,653150
14,833667	0,5	0,665600
14,842000	0,5	0,666350
14,850333	0,5	0,666650
14,858667	0,5	0,657850
14,867000	0,5	0,650550
14,875333	0,5	0,646900
14,883667	0,5	0,643200
14,892000	0,5	0,623850
14,900333	0,5	0,636750
14,908667	0,5	0,630400
14,917000	0,5	0,626150
14,925333	0,5	0,620250
14,933667	0,5	0,606800
14,942000	0,5	0,612000
14,950333	0,5	0,602950
14,958667	0,5	0,597100
14,967000	0,5	0,584250
14,975333	0,5	0,582100
14,983667	0,5	0,575200
14,992000	0,5	0,569500
15,000333	0,5	0,562450
15,008667	0,5	0,562700
15,017000	0,5	0,561000
15,025333	0,5	0,566550
15,033667	0,5	0,558600
15,042000	0,5	0,553850
15,050333	0,5	0,555050
15,058667	0,5	0,549050
15,067000	0,5	0,540100
15,075333	0,5	0,525400
15,083667	0,5	0,512900
15,092000	0,5	0,515500
15,100333	0,5	0,514500
15,108667	0,5	0,514000
15,117000	0,5	0,511600
15,125333	0,5	0,509300
15,133667	0,5	0,507800
15,142000	0,5	0,505900
15,150333	0,5	0,503800
15,158667	0,5	0,495850
15,167000	0,5	0,500100
15,175333	0,5	0,493100
15,183667	0,5	0,480450
15,192000	0,5	0,480000
15,200333	0,5	0,482400
15,208667	0,5	0,473300
15,217000	0,5	0,465450
15,225333	0,5	0,449100
15,233667	0,5	0,439500
15,242000	0,5	0,439750
15,250333	0,5	0,441900
15,258667	0,5	0,436100
15,267000	0,5	0,435850
15,275333	0,5	0,431200
15,283667	0,5	0,429800
15,292000	0,5	0,427600
15,300333	0,5	0,422250
15,308667	0,5	0,423700
15,317000	0,5	0,419500
15,325333	0,5	0,413750
15,333667	0,5	0,407700
15,342000	0,5	0,411450
15,350333	0,5	0,408050
15,358667	0,5	0,399150
15,367000	0,5	0,381900
15,375333	0,5	0,375000
15,383667	0,5	0,371800
15,392000	0,5	0,376050
15,400333	0,5	0,370000
15,408667	0,5	0,372050
15,417000	0,5	0,367400
15,425333	0,5	0,365150
15,433667	0,5	0,364800
15,442000	0,5	0,362450
15,450333	0,5	0,359750
15,458667	0,5	0,357250
15,467000	0,5	0,361500
15,475333	0,5	0,343850
15,483667	0,5	0,345450
15,492000	0,5	0,346250
15,500333	0,5	0,345050
15,508667	0,5	0,331400
15,517000	0,5	0,316050
15,525333	0,5	0,307050
15,533667	0,5	0,308250
15,542000	0,5	0,299550
15,550333	0,5	0,301750
15,558667	0,5	0,289100
15,567000	0,5	0,292150
15,575333	0,5	0,287050
15,583667	0,5	0,288350
15,592000	0,5	0,287550
15,600333	0,5	0,283950
15,608667	0,5	0,292550
15,617000	0,5	0,293550
15,625333	0,5	0,268050
15,633667	0,5	0,275800
15,642000	0,5	0,271400
15,650333	0,5	0,262350
15,658667	0,5	0,249600
15,667000	0,5	0,225950
15,675333	0,5	0,231750
15,683667	0,5	0,227450
15,692000	0,5	0,226800
15,700333	0,5	0,219750
15,708667	0,5	0,224500
15,717000	0,5	0,220550
15,725333	0,5	0,217750
15,733667	0,5	0,210000
15,742000	0,5	0,209200
15,750333	0,5	0,205050
15,758667	0,5	0,212850
15,767000	0,5	0,211300
15,775333	0,5	0,191650
15,783667	0,5	0,200850
15,792000	0,5	0,198550
15,800333	0,5	0,190600
15,808667	0,5	0,177800
15,817000	0,5	0,161000
15,825333	0,5	0,164000
15,833667	0,5	0,167800
15,842000	0,5	0,162200
15,850333	0,5	0,154150
15,858667	0,5	0,151850
15,867000	0,5	0,151750
15,875333	0,5	0,146850
15,883667	0,5	0,146600
15,892000	0,5	0,139750
15,900333	0,5	0,141100
15,908667	0,5	0,139550
15,917000	0,5	0,135450
15,925333	0,5	0,121500
15,933667	0,5	0,132550
15,942000	0,5	0,122400
15,950333	0,5	0,112700
15,958667	0,5	0,101750
15,967000	0,5	0,084150
15,975333	0,5	0,089500
15,983667	0,5	0,082700
15,992000	0,5	0,083000
16,000333	0,5	0,079600
16,008667	0,5	0,080500
16,017000	0,5	0,074900
16,025333	0,5	0,077250
16,033667	0,5	0,069800
16,042000	0,5	0,068100
16,050333	0,5	0,067350
16,058667	0,5	0,073350
16,067000	0,5	0,058700
16,075333	0,5	0,062100
16,083667	0,5	0,060450
16,092000	0,5	0,053000
16,100333	0,5	0,043300
16,108667	0,5	0,028600
16,117000	0,5	0,020950
16,125333	0,5	0,022800
16,133667	0,5	0,020100
16,142000	0,5	0,020750
16,150333	0,5	0,017100
16,158667	0,5	0,018650
16,167000	0,5	0,014150
16,175333	0,5	0,013550
16,183667	0,5	0,012200
16,192000	0,5	0,009550
16,200333	0,5	0,016900
16,208667	0,5	0,008250
16,217000	0,5	0,002100
16,225333	0,5	0,004400
16,233667	0,5	0,002000
16,242000	0,5	-0,004600
16,250333	0,5	-0,015800
16,258667	0,5	-0,031900
16,267000	0,5	-0,036400
16,275333	0,5	-0,037400
16,283667	0,5	-0,037450
16,292000	0,5	-0,044100
16,300333	0,5	-0,041550
16,308667	0,5	-0,048050
16,317000	0,5	-0,046500
16,325333	0,5	-0,055900
16,333667	0,5	-0,060050
16,342000	0,5	-0,058450
16,350333	0,5	-0,058750
16,358667	0,5	-0,068600
16,367000	0,5	-0,072350
16,375333	0,5	-0,067700
16,383667	0,5	-0,071850
16,392000	0,5	-0,075950
16,400333	0,5	-0,098900
16,408667	0,5	-0,104300
16,417000	0,5	-0,108900
16,425333	0,5	-0,106950
16,433667	0,5	-0,114800
16,442000	0,5	-0,112450
16,450333	0,5	-0,119050
16,458667	0,5	-0,120500
16,467000	0,5	-0,121400
16,475333	0,5	-0,124700
16,483667	0,5	-0,125050
16,492000	0,5	-0,132750
16,500333	0,5	-0,127600
16,508667	0,5	-0,148200
16,517000	0,5	-0,144350
16,525333	0,5	-0,142350
16,533667	0,5	-0,147150
16,542000	0,5	-0,155850
16,550333	0,5	-0,174950
16,558667	0,5	-0,174200
16,567000	0,5	-0,173800
16,575333	0,5	-0,184450
16,583667	0,5	-0,179600
16,592000	0,5	-0,190400
16,600333	0,5	-0,186950
16,608667	0,5	-0,198950
16,617000	0,5	-0,194950
16,625333	0,5	-0,198800
16,633667	0,5	-0,201300
16,642000	0,5	-0,198500
16,650333	0,5	-0,199550
16,658667	0,5	-0,216050
16,667000	0,5	-0,205950
16,675333	0,5	-0,206050
16,683667	0,5	-0,213950
16,692000	0,5	-0,219750
16,700333	0,5	-0,246050
16,708667	0,5	-0,234750
16,717000	0,5	-0,241400
16,725333	0,5	-0,243950
16,733667	0,5	-0,243950
16,742000	0,5	-0,247100
16,750333	0,5	-0,255450
16,758667	0,5	-0,252550
16,767000	0,5	-0,260950
16,775333	0,5	-0,263550
16,783667	0,5	-0,270300
16,792000	0,5	-0,265000
16,800333	0,5	-0,276500
16,808667	0,5	-0,284050
16,817000	0,5	-0,274300
16,825333	0,5	-0,278600
16,833667	0,5	-0,286700
16,842000	0,5	-0,303000
16,850333	0,5	-0,315700
16,858667	0,5	-0,312600
16,867000	0,5	-0,310100
16,875333	0,5	-0,313850
16,883667	0,5	-0,313600
16,892000	0,5	-0,319250
16,900333	0,5	-0,320950
16,908667	0,5	-0,322900
16,917000	0,5	-0,321700
16,925333	0,5	-0,325250
16,933667	0,5	-0,329650
16,942000	0,5	-0,328800
16,950333	0,5	-0,339950
16,958667	0,5	-0,338050
16,967000	0,5	-0,331450
16,975333	0,5	-0,337700
16,983667	0,5	-0,344950
16,992000	0,5	-0,367150
17,000333	0,5	-0,372500
17,008667	0,5	-0,368150
17,017000	0,5	-0,370450
17,025333	0,5	-0,371450
17,033667	0,5	-0,372950
17,042000	0,5	-0,369650
17,050333	0,5	-0,374600
17,058667	0,5	-0,375450
17,067000	0,5	-0,378250
17,075333	0,5	-0,377750
17,083667	0,5	-0,380750
17,092000	0,5	-0,381400
17,100333	0,5	-0,395750
17,108667	0,5	-0,382550
17,117000	0,5	-0,387450
17,125333	0,5	-0,392700
17,133667	0,5	-0,414600
17,142000	0,5	-0,424450
17,150333	0,5	-0,425000
17,158667	0,5	-0,424700
17,167000	0,5	-0,425150
17,175333	0,5	-0,425100
17,183667	0,5	-0,430850
17,192000	0,5	-0,433500
17,200333	0,5	-0,433650
17,208667	0,5	-0,442500
17,217000	0,5	-0,442450
17,225333	0,5	-0,444050
17,233667	0,5	-0,441200
17,242000	0,5	-0,452850
17,250333	0,5	-0,453700
17,258667	0,5	-0,448150
17,267000	0,5	-0,450450
17,275333	0,5	-0,452350
17,283667	0,5	-0,463350
17,292000	0,5	-0,478500
17,300333	0,5	-0,469000
17,308667	0,5	-0,468300
17,317000	0,5	-0,456500
17,325333	0,5	-0,458050
17,333667	0,5	-0,463100
17,342000	0,5	-0,463250
17,350333	0,5	-0,465300
17,358667	0,5	-0,470850
17,367000	0,5	-0,483700
17,375333	0,5	-0,479000
17,383667	0,5	-0,482550
17,392000	0,5	-0,502450
17,400333	0,5	-0,495950
17,408667	0,5	-0,491750
17,417000	0,5	-0,497450
17,425333	0,5	-0,505650
17,433667	0,5	-0,529950
17,442000	0,5	-0,527500
17,450333	0,5	-0,529350
17,458667	0,5	-0,524650
17,467000	0,5	-0,535850
17,475333	0,5	-0,528900
17,483667	0,5	-0,531600
17,492000	0,5	-0,531200
17,500333	0,5	-0,534100
17,508667	0,5	-0,537050
17,517000	0,5	-0,537150
17,525333	0,5	-0,538300
17,533667	0,5	-0,534250
17,542000	0,5	-0,550750
17,550333	0,5	-0,540000
17,558667	0,5	-0,539700
17,567000	0,5	-0,544050
17,575333	0,5	-0,557750
17,583667	0,5	-0,568250
17,592000	0,5	-0,565700
17,600333	0,5	-0,557900
17,608667	0,5	-0,566750
17,617000	0,5	-0,563550
17,625333	0,5	-0,565650
17,633667	0,5	-0,562950
17,642000	0,5	-0,566100
17,650333	0,5	-0,567150
17,658667	0,5	-0,570550
17,667000	0,5	-0,567550
17,675333	0,5	-0,559100
17,683667	0,5	-0,565200
17,692000	0,5	-0,567200
17,700333	0,5	-0,562000
17,708667	0,5	-0,563800
17,717000	0,5	-0,571850
17,725333	0,5	-0,580550
17,733667	0,5	-0,592050
17,742000	0,5	-0,580250
17,750333	0,5	-0,588800
17,758667	0,5	-0,582950
17,767000	0,5	-0,585000
17,775333	0,5	-0,581250
17,783667	0,5	-0,582600
17,792000	0,5	-0,576250
17,800333	0,5	-0,574700
17,808667	0,5	-0,574650
17,817000	0,5	-0,562100
17,825333	0,5	-0,555150
17,833667	0,5	-0,567550
17,842000	0,5	-0,557650
17,850333	0,5	-0,558600
17,858667	0,5	-0,558850
17,867000	0,5	-0,567450
17,875333	0,5	-0,583350
17,883667	0,5	-0,575350
17,892000	0,5	-0,570400
17,900333	0,5	-0,560950
17,908667	0,5	-0,561750
17,917000	0,5	-0,550100
17,925333	0,5	-0,544300
17,933667	0,5	-0,533000
17,942000	0,5	-0,530150
17,950333	0,5	-0,520650
17,958667	0,5	-0,520100
17,967000	0,5	-0,509350
17,975333	0,5	-0,511750
17,983667	0,5	-0,519700
17,992000	0,5	-0,515250
18,000333	0,5	-0,518950
18,008667	0,5	-0,516750
18,017000	0,5	-0,530600
18,025333	0,5	-0,546800
18,033667	0,5	-0,548350
18,042000	0,5	-0,542100
18,050333	0,5	-0,540000
18,058667	0,5	-0,538250
18,067000	0,5	-0,536400
18,075333	0,5	-0,530050
18,083667	0,5	-0,531000
18,092000	0,5	-0,526950
18,100333	0,5	-0,528900
18,108667	0,5	-0,521100
18,117000	0,5	-0,519100
18,125333	0,5	-0,518200
18,133667	0,5	-0,524150
18,142000	0,5	-0,513750
18,150333	0,5	-0,517600
18,158667	0,5	-0,520100
18,167000	0,5	-0,529950
18,175333	0,5	-0,547550
18,183667	0,5	-0,540500
18,192000	0,5	-0,537950
18,200333	0,5	-0,534150
18,208667	0,5	-0,534900
18,217000	0,5	-0,531950
18,225333	0,5	-0,537250
18,233667	0,5	-0,535100
18,242000	0,5	-0,539100
18,250333	0,5	-0,536450
18,258667	0,5	-0,532650
18,267000	0,5	-0,525900
18,275333	0,5	-0,540700
18,283667	0,5	-0,536750
18,292000	0,5	-0,532450
18,300333	0,5	-0,540850
18,308667	0,5	-0,549450
18,317000	0,5	-0,566850
18,325333	0,5	-0,572700
18,333667	0,5	-0,570550
18,342000	0,5	-0,571350
18,350333	0,5	-0,575500
18,358667	0,5	-0,579100
18,367000	0,5	-0,581600
18,375333	0,5	-0,580050
18,383667	0,5	-0,584500
18,392000	0,5	-0,582650
18,400333	0,5	-0,592050
18,408667	0,5	-0,580750
18,417000	0,5	-0,588400
18,425333	0,5	-0,601050
18,433667	0,5	-0,598300
18,442000	0,5	-0,598150
18,450333	0,5	-0,608850
18,458667	0,5	-0,623900
18,467000	0,5	-0,642050
18,475333	0,5	-0,642500
18,483667	0,5	-0,644300
18,492000	0,5	-0,643300
18,500333	0,5	-0,648900
18,508667	0,5	-0,649350
18,517000	0,5	-0,655250
18,525333	0,5	-0,657800
18,533667	0,5	-0,663250
18,542000	0,5	-0,669150
18,550333	0,5	-0,665250
18,558667	0,5	-0,665500
18,567000	0,5	-0,680400
18,575333	0,5	-0,683300
18,583667	0,5	-0,682500
18,592000	0,5	-0,688400
18,600333	0,5	-0,697650
18,608667	0,5	-0,723800
18,617000	0,5	-0,728050
18,625333	0,5	-0,730800
18,633667	0,5	-0,733800
18,642000	0,5	-0,743750
18,650333	0,5	-0,746400
18,658667	0,5	-0,754250
18,667000	0,5	-0,754650
18,675333	0,5	-0,759100
18,683667	0,5	-0,762900
18,692000	0,5	-0,767700
18,700333	0,5	-0,775800
18,708667	0,5	-0,771900
18,717000	0,5	-0,793200
18,725333	0,5	-0,784500
18,733667	0,5	-0,787750
18,742000	0,5	-0,795500
18,750333	0,5	-0,806700
18,758667	0,5	-0,830550
18,767000	0,5	-0,833650
18,775333	0,5	-0,832450
18,783667	0,5	-0,842050
18,792000	0,5	-0,841850
18,800333	0,5	-0,851050
18,808667	0,5	-0,850750
18,817000	0,5	-0,856600
18,825333	0,5	-0,855450
18,833667	0,5	-0,862700
18,842000	0,5	-0,867800
18,850333	0,5	-0,858950
18,858667	0,5	-0,859400
18,867000	0,5	-0,877000
18,875333	0,5	-0,866700
18,883667	0,5	-0,872000
18,892000	0,5	-0,880450
18,900333	0,5	-0,895400
18,908667	0,5	-0,916500
18,917000	0,5	-0,905450
18,925333	0,5	-0,913450
18,933667	0,5	-0,908150
18,942000	0,5	-0,916500
18,950333	0,5	-0,913300
18,958667	0,5	-0,918900
18,967000	0,5	-0,916950
18,975333	0,5	-0,921800
18,983667	0,5	-0,927300
18,992000	0,5	-0,927200
19,000333	0,5	-0,922450
19,008667	0,5	-0,935650
19,017000	0,5	-0,937500
19,025333	0,5	-0,935150
19,033667	0,5	-0,938900
19,042000	0,5	-0,947150
19,050333	0,5	-0,970000
19,058667	0,5	-0,979800
19,067000	0,5	-0,993350
19,075333	0,5	-0,988950
19,083667	0,5	-0,997800
19,092000	0,5	-0,998350
19,100333	0,5	-1,008300
19,108667	0,5	-1,009400
19,117000	0,5	-1,018600
19,125333	0,5	-1,024650
19,133667	0,5	-1,031350
19,142000	0,5	-1,034450
19,150333	0,5	-1,042600
19,158667	0,5	-1,054750
19,167000	0,5	-1,057250
19,175333	0,5	-1,058350
19,183667	0,5	-1,072600
19,192000	0,5	-1,092900
19,200333	0,5	-1,111250
19,208667	0,5	-1,125650
19,217000	0,5	-1,126450
19,225333	0,5	-1,133550
19,233667	0,5	-1,135900
19,242000	0,5	-1,144500
19,250333	0,5	-1,148850
19,258667	0,5	-1,157200
19,267000	0,5	-1,159650
19,275333	0,5	-1,168450
19,283667	0,5	-1,170550
19,292000	0,5	-1,169650
19,300333	0,5	-1,178700
19,308667	0,5	-1,191850
19,317000	0,5	-1,182550
19,325333	0,5	-1,184500
19,333667	0,5	-1,189200
19,342000	0,5	-1,210450
19,350333	0,5	-1,217600
19,358667	0,5	-1,216700
19,367000	0,5	-1,217750
19,375333	0,5	-1,215200
19,383667	0,5	-1,212350
19,392000	0,5	-1,203550
19,400333	0,5	-1,206150
19,408667	0,5	-1,196400
19,417000	0,5	-1,200350
19,425333	0,5	-1,205550
19,433667	0,5	-1,204650
19,442000	0,5	-1,203500
19,450333	0,5	-1,231300
19,458667	0,5	-1,229000
19,467000	0,5	-1,236650
19,475333	0,5	-1,249300
19,483667	0,5	-1,262850
19,492000	0,5	-1,292950
19,500333	0,5	-1,296650
19,508667	0,5	-1,298800
19,517000	0,5	-1,304400
19,525333	0,5	-1,312500
19,533667	0,5	-1,313000
19,542000	0,5	-1,316300
19,550333	0,5	-1,318050
19,558667	0,5	-1,324800
19,567000	0,5	-1,325150
19,575333	0,5	-1,331800
19,583667	0,5	-1,323800
19,592000	0,5	-1,331200
19,600333	0,5	-1,347200
19,608667	0,5	-1,342000
19,617000	0,5	-1,344250
19,625333	0,5	-1,357600
19,633667	0,5	-1,364750
19,642000	0,5	-1,390550
19,650333	0,5	-1,385350
19,658667	0,5	-1,391150
19,667000	0,5	-1,390450
19,675333	0,5	-1,398400
19,683667	0,5	-1,403650
19,692000	0,5	-1,405050
19,700333	0,5	-1,404350
19,708667	0,5	-1,406750
19,717000	0,5	-1,416150
19,725333	0,5	-1,416700
19,733667	0,5	-1,413200
19,742000	0,5	-1,418100
19,750333	0,5	-1,430250
19,758667	0,5	-1,423250
19,767000	0,5	-1,427000
19,775333	0,5	-1,430950
19,783667	0,5	-1,452900
19,792000	0,5	-1,466850
19,800333	0,5	-1,469850
19,808667	0,5	-1,470050
19,817000	0,5	-1,478400
19,825333	0,5	-1,482450
19,833667	0,5	-1,489450
19,842000	0,5	-1,492600
19,850333	0,5	-1,496300
19,858667	0,5	-1,503550
19,867000	0,5	-1,504800
19,875333	0,5	-1,500550
19,883667	0,5	-1,495250
19,892000	0,5	-1,509800
19,900333	0,5	-1,507100
19,908667	0,5	-1,510250
19,917000	0,5	-1,509250
19,925333	0,5	-1,533950
19,933667	0,5	-1,551150
19,942000	0,5	-1,562450
19,950333	0,5	-1,558150
19,958667	0,5	-1,565200
19,967000	0,5	-1,562850
19,975333	0,5	-1,570100
19,983667	0,5	-1,572050
19,992000	0,5	-1,574150
20,000333	0,5	-1,578650
20,008667	0,5	-1,580500
20,017000	0,5	-1,581950
20,025333	0,5	-1,568200
20,033667	0,5	-1,572450
20,042000	0,5	-1,584050
20,050333	0,5	-1,578550
20,058667	0,5	-1,581300
20,067000	0,5	-1,591050
20,075333	0,5	-1,605400
20,083667	0,5	-1,627900
20,092000	0,5	-1,627500
20,100333	0,5	-1,633000
20,108667	0,5	-1,628400
20,117000	0,5	-1,639550
20,125333	0,5	-1,636600
20,133667	0,5	-1,643350
20,142000	0,5	-1,641850
20,150333	0,5	-1,645700
20,158667	0,5	-1,650450
20,167000	0,5	-1,642650
20,175333	0,5	-1,637750
20,183667	0,5	-1,653350
20,192000	0,5	-1,658750
20,200333	0,5	-1,657600
20,208667	0,5	-1,666700
20,217000	0,5	-1,678700
20,225333	0,5	-1,705900
20,233667	0,5	-1,711000
20,242000	0,5	-1,717950
20,250333	0,5	-1,711250
20,258667	0,5	-1,713700
20,267000	0,5	-1,708100
20,275333	0,5	-1,711500
20,283667	0,5	-1,706450
20,292000	0,5	-1,706700
20,300333	0,5	-1,705650
20,308667	0,5	-1,706450
20,317000	0,5	-1,685350
20,325333	0,5	-1,683700
20,333667	0,5	-1,692600
20,342000	0,5	-1,685800
20,350333	0,5	-1,682750
20,358667	0,5	-1,688200
20,367000	0,5	-1,697050
20,375333	0,5	-1,709850
20,383667	0,5	-1,711850
20,392000	0,5	-1,699200
20,400333	0,5	-1,706700
20,408667	0,5	-1,704350
20,417000	0,5	-1,710800
20,425333	0,5	-1,706000
20,433667	0,5	-1,706800
20,442000	0,5	-1,700050
20,450333	0,5	-1,699600
20,458667	0,5	-1,695800
20,467000	0,5	-1,677350
20,475333	0,5	-1,673000
20,483667	0,5	-1,680950
20,492000	0,5	-1,676950
20,500333	0,5	-1,674900
20,508667	0,5	-1,683300
20,517000	0,5	-1,702650
20,525333	0,5	-1,711050
20,533667	0,5	-1,698000
20,542000	0,5	-1,706900
20,550333	0,5	-1,703750
20,558667	0,5	-1,702950
20,567000	0,5	-1,696800
20,575333	0,5	-1,694950
20,583667	0,5	-1,687000
20,592000	0,5	-1,683350
20,600333	0,5	-1,679800
20,608667	0,5	-1,656050
20,617000	0,5	-1,638100
20,625333	0,5	-1,643400
20,633667	0,5	-1,636250
20,642000	0,5	-1,635500
20,650333	0,5	-1,633200
20,658667	0,5	-1,644950
20,667000	0,5	-1,665900
20,675333	0,5	-1,656500
20,683667	0,5	-1,663000
20,692000	0,5	-1,658550
20,700333	0,5	-1,670350
20,708667	0,5	-1,670800
20,717000	0,5	-1,679800
20,725333	0,5	-1,675200
20,733667	0,5	-1,678800
20,742000	0,5	-1,681150
20,750333	0,5	-1,682800
20,758667	0,5	-1,659650
20,767000	0,5	-1,656000
20,775333	0,5	-1,666700
20,783667	0,5	-1,667800
20,792000	0,5	-1,674400
20,800333	0,5	-1,688300
20,808667	0,5	-1,701750
20,817000	0,5	-1,719800
20,825333	0,5	-1,722600
20,833667	0,5	-1,716150
20,842000	0,5	-1,721300
20,850333	0,5	-1,715650
20,858667	0,5	-1,719400
20,867000	0,5	-1,711050
20,875333	0,5	-1,713600
20,883667	0,5	-1,709950
20,892000	0,5	-1,715800
20,900333	0,5	-1,697900
20,908667	0,5	-1,679900
20,917000	0,5	-1,673100
20,925333	0,5	-1,680550
20,933667	0,5	-1,677550
20,942000	0,5	-1,684850
20,950333	0,5	-1,696650
20,958667	0,5	-1,712850
20,967000	0,5	-1,723800
20,975333	0,5	-1,706150
20,983667	0,5	-1,706800
20,992000	0,5	-1,704400
21,000333	0,5	-1,701050
21,008667	0,5	-1,693250
21,017000	0,5	-1,691600
21,025333	0,5	-1,683750
21,033667	0,5	-1,684800
21,042000	0,5	-1,675350
21,050333	0,5	-1,641300
21,058667	0,5	-1,625600
21,067000	0,5	-1,622000
21,075333	0,5	-1,628100
21,083667	0,5	-1,627450
21,092000	0,5	-1,632000
21,100333	0,5	-1,649300
21,108667	0,5	-1,659900
21,117000	0,5	-1,653850
21,125333	0,5	-1,650500
21,133667	0,5	-1,641850
21,142000	0,5	-1,639850
21,150333	0,5	-1,628550
21,158667	0,5	-1,628300
21,167000	0,5	-1,613650
21,175333	0,5	-1,611300
21,183667	0,5	-1,604250
21,192000	0,5	-1,594300
21,200333	0,5	-1,563050
21,208667	0,5	-1,552550
21,217000	0,5	-1,553250
21,225333	0,5	-1,552300
21,233667	0,5	-1,556750
21,242000	0,5	-1,566150
21,250333	0,5	-1,580250
21,258667	0,5	-1,573950
21,267000	0,5	-1,572000
21,275333	0,5	-1,557500
21,283667	0,5	-1,555150
21,292000	0,5	-1,542700
21,300333	0,5	-1,535250
21,308667	0,5	-1,525900
21,317000	0,5	-1,520650
21,325333	0,5	-1,509100
21,333667	0,5	-1,505050
21,342000	0,5	-1,473250
21,350333	0,5	-1,450500
21,358667	0,5	-1,444200
21,367000	0,5	-1,443150
21,375333	0,5	-1,438550
21,383667	0,5	-1,436900
21,392000	0,5	-1,439600
21,400333	0,5	-1,446850
21,408667	0,5	-1,435800
21,417000	0,5	-1,424150
21,425333	0,5	-1,420950
21,433667	0,5	-1,409150
21,442000	0,5	-1,404750
21,450333	0,5	-1,391650
21,458667	0,5	-1,387300
21,467000	0,5	-1,377200
21,475333	0,5	-1,370850
21,483667	0,5	-1,351350
21,492000	0,5	-1,318750
21,500333	0,5	-1,299200
21,508667	0,5	-1,305250
21,517000	0,5	-1,293900
21,525333	0,5	-1,293800
21,533667	0,5	-1,294000
21,542000	0,5	-1,297100
21,550333	0,5	-1,294700
21,558667	0,5	-1,275650
21,567000	0,5	-1,261300
21,575333	0,5	-1,247750
21,583667	0,5	-1,232300
21,592000	0,5	-1,208050
21,600333	0,5	-1,185600
21,608667	0,5	-1,155950
21,617000	0,5	-1,133850
21,625333	0,5	-1,099650
21,633667	0,5	-1,049450
21,642000	0,5	-0,998050
21,650333	0,5	-0,979100
21,658667	0,5	-0,972050
21,667000	0,5	-0,985350
21,675333	0,5	-0,997050
21,683667	0,5	-1,014700
21,692000	0,5	-1,030300
21,700333	0,5	-1,015300
21,708667	0,5	-1,006800
21,717000	0,5	-0,991300
21,725333	0,5	-0,979400
21,733667	0,5	-0,963700
21,742000	0,5	-0,950200
21,750333	0,5	-0,937650
21,758667	0,5	-0,921300
21,767000	0,5	-0,901050
21,775333	0,5	-0,883600
21,783667	0,5	-0,843150
21,792000	0,5	-0,813650
21,800333	0,5	-0,801450
21,808667	0,5	-0,779300
21,817000	0,5	-0,757700
21,825333	0,5	-0,741750
21,833667	0,5	-0,727000
21,842000	0,5	-0,718300
21,850333	0,5	-0,690150
21,858667	0,5	-0,657950
21,867000	0,5	-0,636800
21,875333	0,5	-0,609050
21,883667	0,5	-0,583700
21,892000	0,5	-0,553050
21,900333	0,5	-0,527950
21,908667	0,5	-0,501100
21,917000	0,5	-0,488850
21,925333	0,5	-0,454700
21,933667	0,5	-0,429350
21,942000	0,5	-0,415300
21,950333	0,5	-0,395650
21,958667	0,5	-0,366400
21,967000	0,5	-0,348150
21,975333	0,5	-0,333650
21,983667	0,5	-0,322650
21,992000	0,5	-0,304750
22,000333	0,5	-0,270950
22,008667	0,5	-0,240300
22,017000	0,5	-0,209700
22,025333	0,5	-0,180950
22,033667	0,5	-0,147800
22,042000	0,5	-0,119000
22,050333	0,5	-0,079900
22,058667	0,5	-0,046200
22,067000	0,5	-0,013250
22,075333	0,5	0,028950
22,083667	0,5	0,062850
22,092000	0,5	0,087100
22,100333	0,5	0,132550
22,108667	0,5	0,163850
22,117000	0,5	0,200300
22,125333	0,5	0,222100
22,133667	0,5	0,257000
22,142000	0,5	0,300600
22,150333	0,5	0,345600
22,158667	0,5	0,394250
22,167000	0,5	0,441750
22,175333	0,5	0,494450
22,183667	0,5	0,542200
22,192000	0,5	0,599450
22,200333	0,5	0,648300
22,208667	0,5	0,702900
22,217000	0,5	0,750050
22,225333	0,5	0,802950
22,233667	0,5	0,838750
22,242000	0,5	0,910250
22,250333	0,5	0,961200
22,258667	0,5	1,011350
22,267000	0,5	1,054700
22,275333	0,5	1,096500
22,283667	0,5	1,157100
22,292000	0,5	1,212850
22,300333	0,5	1,270700
22,308667	0,5	1,330050
22,317000	0,5	1,384350
22,325333	0,5	1,437200
22,333667	0,5	1,486300
22,342000	0,5	1,532200
22,350333	0,5	1,582950
22,358667	0,5	1,633500
22,367000	0,5	1,665500
22,375333	0,5	1,711300
22,383667	0,5	1,785000
22,392000	0,5	1,858050
22,400333	0,5	1,921000
22,408667	0,5	1,971200
22,417000	0,5	2,028450
22,425333	0,5	2,078400
22,433667	0,5	2,147800
22,442000	0,5	2,220950
22,450333	0,5	2,289250
22,458667	0,5	2,359000
22,467000	0,5	2,426600
22,475333	0,5	2,504550
22,483667	0,5	2,580100
22,492000	0,5	2,652700
22,500333	0,5	2,714800
22,508667	0,5	2,776300
22,517000	0,5	2,817950
22,525333	0,5	2,886750
22,533667	0,5	2,978800
22,542000	0,5	3,050850
22,550333	0,5	3,108750
22,558667	0,5	3,164250
22,567000	0,5	3,199450
22,575333	0,5	3,260300
22,583667	0,5	3,307200
22,592000	0,5	3,351550
22,600333	0,5	3,383800
22,608667	0,5	3,417350
22,617000	0,5	3,449200
22,625333	0,5	3,469100
22,633667	0,5	3,486000
22,642000	0,5	3,488750
22,650333	0,5	3,497450
22,658667	0,5	3,428950
22,667000	0,5	3,433950
22,675333	0,5	3,407250
22,683667	0,5	3,396850
22,692000	0,5	3,339650
22,700333	0,5	3,279750
22,708667	0,5	3,199450
22,717000	0,5	3,111000
22,725333	0,5	3,037400
22,733667	0,5	2,960100
22,742000	0,5	2,869550
22,750333	0,5	2,775150
22,758667	0,5	2,681000
22,767000	0,5	2,583600
22,775333	0,5	2,479700
22,783667	0,5	2,371350
22,792000	0,5	2,241350
22,800333	0,5	2,100900
22,808667	0,5	1,899350
22,817000	0,5	1,764550
22,825333	0,5	1,625750
22,833667	0,5	1,456300
22,842000	0,5	1,284000
22,850333	0,5	1,111800
22,858667	0,5	0,938900
22,867000	0,5	0,777150
22,875333	0,5	0,602550
22,883667	0,5	0,445200
22,892000	0,5	0,283850
22,900333	0,5	0,135550
22,908667	0,5	-0,013500
22,917000	0,5	-0,164800
22,925333	0,5	-0,308850
22,933667	0,5	-0,455900
22,942000	0,5	-0,593400
22,950333	0,5	-0,714000
22,958667	0,5	-0,871100
22,967000	0,5	-0,990700
22,975333	0,5	-1,147850
22,983667	0,5	-1,283200
22,992000	0,5	-1,393150
23,000333	0,5	-1,494400
23,008667	0,5	-1,596650
23,017000	0,5	-1,695950
23,025333	0,5	-1,785650
23,033667	0,5	-1,870850
23,042000	0,5	-1,942700
23,050333	0,5	-2,016600
23,058667	0,5	-2,081750
23,067000	0,5	-2,144800
23,075333	0,5	-2,204800
23,083667	0,5	-2,258600
23,092000	0,5	-2,318250
23,100333	0,5	-2,362700
23,108667	0,5	-2,400800
23,117000	0,5	-2,458950
23,125333	0,5	-2,534150
23,133667	0,5	-2,572300
23,142000	0,5	-2,603750
23,150333	0,5	-2,614050
23,158667	0,5	-2,634550
23,167000	0,5	-2,649700
23,175333	0,5	-2,664800
23,183667	0,5	-2,657400
23,192000	0,5	-2,658850
23,200333	0,5	-2,652800
23,208667	0,5	-2,648750
23,217000	0,5	-2,646300
23,225333	0,5	-2,638450
23,233667	0,5	-2,636000
23,242000	0,5	-2,614400
23,250333	0,5	-2,637450
23,258667	0,5	-2,607000
23,267000	0,5	-2,596950
23,275333	0,5	-2,617750
23,283667	0,5	-2,618600
23,292000	0,5	-2,607350
23,300333	0,5	-2,585300
23,308667	0,5	-2,567600
23,317000	0,5	-2,552200
23,325333	0,5	-2,525050
23,333667	0,5	-2,500750
23,342000	0,5	-2,465500
23,350333	0,5	-2,441350
23,358667	0,5	-2,404000
23,367000	0,5	-2,374100
23,375333	0,5	-2,346150
23,383667	0,5	-2,319350
23,392000	0,5	-2,333100
23,400333	0,5	-2,301900
23,408667	0,5	-2,258000
23,417000	0,5	-2,214500
23,425333	0,5	-2,216950
23,433667	0,5	-2,203900
23,442000	0,5	-2,187750
23,450333	0,5	-2,166450
23,458667	0,5	-2,154000
23,467000	0,5	-2,136000
23,475333	0,5	-2,120000
23,483667	0,5	-2,099250
23,492000	0,5	-2,080500
23,500333	0,5	-2,056550
23,508667	0,5	-2,038100
23,517000	0,5	-2,019250
23,525333	0,5	-2,001800
23,533667	0,5	-1,984550
23,542000	0,5	-2,067900
23,550333	0,5	-2,021750
23,558667	0,5	-1,964050
23,567000	0,5	-1,921900
23,575333	0,5	-1,914500
23,583667	0,5	-1,909250
23,592000	0,5	-1,903150
23,600333	0,5	-1,893300
23,608667	0,5	-1,885100
23,617000	0,5	-1,872700
23,625333	0,5	-1,863200
23,633667	0,5	-1,853700
23,642000	0,5	-1,843550
23,650333	0,5	-1,835950
23,658667	0,5	-1,831650
23,667000	0,5	-1,825850
23,675333	0,5	-1,821200
23,683667	0,5	-1,882500
23,692000	0,5	-1,950400
23,700333	0,5	-1,901950
23,708667	0,5	-1,854250
23,717000	0,5	-1,820750
23,725333	0,5	-1,821500
23,733667	0,5	-1,824600
23,742000	0,5	-1,827900
23,750333	0,5	-1,829900
23,758667	0,5	-1,814350
23,767000	0,5	-1,806550
23,775333	0,5	-1,793300
23,783667	0,5	-1,783800
23,792000	0,5	-1,775650
23,800333	0,5	-1,767100
23,808667	0,5	-1,752750
23,817000	0,5	-1,746200
23,825333	0,5	-1,739500
23,833667	0,5	-1,889300
23,842000	0,5	-1,851750
23,850333	0,5	-1,824450
23,858667	0,5	-1,763550
23,867000	0,5	-1,742800
23,875333	0,5	-1,738150
23,883667	0,5	-1,741700
23,892000	0,5	-1,750600
23,900333	0,5	-1,748350
23,908667	0,5	-1,737400
23,917000	0,5	-1,732850
23,925333	0,5	-1,720900
23,933667	0,5	-1,716250
23,942000	0,5	-1,703750
23,950333	0,5	-1,692150
23,958667	0,5	-1,680750
23,967000	0,5	-1,666400
23,975333	0,5	-1,679150
23,983667	0,5	-1,789950
23,992000	0,5	-1,763150
24,000333	0,5	-1,708500
24,008667	0,5	-1,653050
24,017000	0,5	-1,625650
24,025333	0,5	-1,614350
24,033667	0,5	-1,614550
24,042000	0,5	-1,618350
24,050333	0,5	-1,603400
24,058667	0,5	-1,586750
24,067000	0,5	-1,563350
24,075333	0,5	-1,552100
24,083667	0,5	-1,536750
24,092000	0,5	-1,522050
24,100333	0,5	-1,504300
24,108667	0,5	-1,491350
24,117000	0,5	-1,487750
24,125333	0,5	-1,546300
24,133667	0,5	-1,589300
24,142000	0,5	-1,556600
24,150333	0,5	-1,507150
24,158667	0,5	-1,467600
24,167000	0,5	-1,453400
24,175333	0,5	-1,441950
24,183667	0,5	-1,450000
24,192000	0,5	-1,441800
24,200333	0,5	-1,431000
24,208667	0,5	-1,404350
24,217000	0,5	-1,394650
24,225333	0,5	-1,370200
24,233667	0,5	-1,355150
24,242000	0,5	-1,332700
24,250333	0,5	-1,316800
24,258667	0,5	-1,295450
24,267000	0,5	-1,282250
24,275333	0,5	-1,364000
24,283667	0,5	-1,338850
24,292000	0,5	-1,312700
24,300333	0,5	-1,264100
24,308667	0,5	-1,235000
24,317000	0,5	-1,223300
24,325333	0,5	-1,217400
24,333667	0,5	-1,219750
24,342000	0,5	-1,211300
24,350333	0,5	-1,189950
24,358667	0,5	-1,188600
24,367000	0,5	-1,170400
24,375333	0,5	-1,161200
24,383667	0,5	-1,144700
24,392000	0,5	-1,134350
24,400333	0,5	-1,119050
24,408667	0,5	-1,112800
24,417000	0,5	-1,117650
24,425333	0,5	-1,171000
24,433667	0,5	-1,141750
24,442000	0,5	-1,117000
24,450333	0,5	-1,076000
24,458667	0,5	-1,055250
24,467000	0,5	-1,042100
24,475333	0,5	-1,037200
24,483667	0,5	-1,037000
24,492000	0,5	-1,012550
24,500333	0,5	-1,000900
24,508667	0,5	-0,986100
24,517000	0,5	-0,976950
24,525333	0,5	-0,961250
24,533667	0,5	-0,951250
24,542000	0,5	-0,933850
24,550333	0,5	-0,924200
24,558667	0,5	-0,913300
24,567000	0,5	-0,946650
24,575333	0,5	-0,951350
24,583667	0,5	-0,939700
24,592000	0,5	-0,911750
24,600333	0,5	-0,891500
24,608667	0,5	-0,880050
24,617000	0,5	-0,877850
24,625333	0,5	-0,877300
24,633667	0,5	-0,874300
24,642000	0,5	-0,864500
24,650333	0,5	-0,852250
24,658667	0,5	-0,844100
24,667000	0,5	-0,828950
24,675333	0,5	-0,818650
24,683667	0,5	-0,803650
24,692000	0,5	-0,792950
24,700333	0,5	-0,778850
24,708667	0,5	-0,775250
24,717000	0,5	-0,806150
24,725333	0,5	-0,788400
24,733667	0,5	-0,772050
24,742000	0,5	-0,753400
24,750333	0,5	-0,731850
24,758667	0,5	-0,727700
24,767000	0,5	-0,723900
24,775333	0,5	-0,728000
24,783667	0,5	-0,722900
24,792000	0,5	-0,713250
24,800333	0,5	-0,705950
24,808667	0,5	-0,700200
24,817000	0,5	-0,692900
24,825333	0,5	-0,683200
24,833667	0,5	-0,677350
24,842000	0,5	-0,669750
24,850333	0,5	-0,661700
24,858667	0,5	-0,658350
24,867000	0,5	-0,680150
24,875333	0,5	-0,661850
24,883667	0,5	-0,655600
24,892000	0,5	-0,636050
24,900333	0,5	-0,626350
24,908667	0,5	-0,616600
24,917000	0,5	-0,615900
24,925333	0,5	-0,614100
24,933667	0,5	-0,610000
24,942000	0,5	-0,599650
24,950333	0,5	-0,592200
24,958667	0,5	-0,584650
24,967000	0,5	-0,577800
24,975333	0,5	-0,569800
24,983667	0,5	-0,561800
24,992000	0,5	-0,554000
25,000333	0,5	-0,549350
25,008667	0,5	-0,553650
25,017000	0,5	-0,554150
25,025333	0,5	-0,548750
25,033667	0,5	-0,539750
25,042000	0,5	-0,533500
25,050333	0,5	-0,527550
25,058667	0,5	-0,524300
25,067000	0,5	-0,526600
25,075333	0,5	-0,526150
25,083667	0,5	-0,522050
25,092000	0,5	-0,515550
25,100333	0,5	-0,511100
25,108667	0,5	-0,506400
25,117000	0,5	-0,498450
25,125333	0,5	-0,495300
25,133667	0,5	-0,485850
25,142000	0,5	-0,479750
25,150333	0,5	-0,473950
25,158667	0,5	-0,474300
25,167000	0,5	-0,468450
25,175333	0,5	-0,461850
25,183667	0,5	-0,458850
25,192000	0,5	-0,451650
25,200333	0,5	-0,446550
25,208667	0,5	-0,445950
25,217000	0,5	-0,448150
25,225333	0,5	-0,447900
25,233667	0,5	-0,444600
25,242000	0,5	-0,441950
25,250333	0,5	-0,439300
25,258667	0,5	-0,439400
25,267000	0,5	-0,437200
25,275333	0,5	-0,432800
25,283667	0,5	-0,431050
25,292000	0,5	-0,428550
25,300333	0,5	-0,425500
25,308667	0,5	-0,422800
25,317000	0,5	-0,416000
25,325333	0,5	-0,413350
25,333667	0,5	-0,412750
25,342000	0,5	-0,406950
25,350333	0,5	-0,405050
25,358667	0,5	-0,401500
25,367000	0,5	-0,399250
25,375333	0,5	-0,397250
25,383667	0,5	-0,392100
25,392000	0,5	-0,390500
25,400333	0,5	-0,388150
25,408667	0,5	-0,389950
25,417000	0,5	-0,385550
25,425333	0,5	-0,385000
25,433667	0,5	-0,384650
25,442000	0,5	-0,378400
25,450333	0,5	-0,377250
25,458667	0,5	-0,372100
25,467000	0,5	-0,374900
25,475333	0,5	-0,373300
25,483667	0,5	-0,375500
25,492000	0,5	-0,374600
25,500333	0,5	-0,374250
25,508667	0,5	-0,371350
25,517000	0,5	-0,365050
25,525333	0,5	-0,367700
25,533667	0,5	-0,362650
25,542000	0,5	-0,361150
25,550333	0,5	-0,359200
25,558667	0,5	-0,355450
25,567000	0,5	-0,353250
25,575333	0,5	-0,349650
25,583667	0,5	-0,348900
25,592000	0,5	-0,346850
25,600333	0,5	-0,336950
25,608667	0,5	-0,340350
25,617000	0,5	-0,333950
25,625333	0,5	-0,338700
25,633667	0,5	-0,339050
25,642000	0,5	-0,340800
25,650333	0,5	-0,338700
25,658667	0,5	-0,333250
25,667000	0,5	-0,332350
25,675333	0,5	-0,331500
25,683667	0,5	-0,333200
25,692000	0,5	-0,332700
25,700333	0,5	-0,332400
25,708667	0,5	-0,330600
25,717000	0,5	-0,328200
25,725333	0,5	-0,329200
25,733667	0,5	-0,325900
25,742000	0,5	-0,318550
25,750333	0,5	-0,311850
25,758667	0,5	-0,310600
25,767000	0,5	-0,302450
25,775333	0,5	-0,310000
25,783667	0,5	-0,307850
25,792000	0,5	-0,307000
25,800333	0,5	-0,302350
25,808667	0,5	-0,291850
25,817000	0,5	-0,289250
25,825333	0,5	-0,284950
25,833667	0,5	-0,290650
25,842000	0,5	-0,284900
25,850333	0,5	-0,286250
25,858667	0,5	-0,284000
25,867000	0,5	-0,286900
25,875333	0,5	-0,285200
25,883667	0,5	-0,281800
25,892000	0,5	-0,279500
25,900333	0,5	-0,271350
25,908667	0,5	-0,274450
25,917000	0,5	-0,272950
25,925333	0,5	-0,279300
25,933667	0,5	-0,275800
25,942000	0,5	-0,276100
25,950333	0,5	-0,270200
25,958667	0,5	-0,260500
25,967000	0,5	-0,254300
25,975333	0,5	-0,261850
25,983667	0,5	-0,255650
25,992000	0,5	-0,259400
26,000333	0,5	-0,255550
