File Path	chrom://chromeleon01/ikbm_chromeleon/2022/ICS-5000/ED1/Esteban/20220612_Cell_7_4_eg.seq/925.smp/ED_1.channel/ED_1.chm
Channel	ED_1

Injection Information:
Data Vault	ikbm_chromeleon
Injection	CelS2_24h-NT_3
Injection Number	48
Position	GA1
Comment	
Processing Method	Stop sequence after Cell Death
Instrument Method	ICS5000_PA200_FullNative_Ox_26min_ED1
Type	Unknown
Status	Finished
Injection Date	13.06.2022
Injection Time	14:27:14
Injection Volume (µl)	5,0
Dilution Factor	1,0000
Weight	1,0000

Chromatogram Data Information:
Time Min. (min)	0,000333
Time Max. (min)	26,000333
Data Points	3121
Detector	EDet1
Generating Data System	Chromeleon 7.2.9.11323
Exporting Data System	Chromeleon 7.2.9.0
Operator	Instrument Controller
Signal Quantity	
Signal Unit	nC
Signal Min.	-1,987300
Signal Max.	108,826902
Channel	ED_1
Driver Name	DC-5000
Channel Type	Evaluation
Min. Step (s)	0,5
Max. Step (s)	0,5
Average Step (s)	0,5

Signal Parameter Information:
Signal Info	

Chromatogram Data:
Time (min)	Step (s)	Value (nC)
0,000333	n.a.	-0,004250
0,008667	0,5	-0,039550
0,017000	0,5	-0,028950
0,025333	0,5	-0,026300
0,033667	0,5	-0,019050
0,042000	0,5	0,004150
0,050333	0,5	0,006900
0,058667	0,5	0,011050
0,067000	0,5	0,004900
0,075333	0,5	0,006950
0,083667	0,5	0,005750
0,092000	0,5	0,002700
0,100333	0,5	0,010650
0,108667	0,5	-0,011400
0,117000	0,5	-0,021700
0,125333	0,5	0,006450
0,133667	0,5	-0,010500
0,142000	0,5	-0,007550
0,150333	0,5	-0,004400
0,158667	0,5	0,000800
0,167000	0,5	0,027100
0,175333	0,5	0,020350
0,183667	0,5	0,022100
0,192000	0,5	0,013500
0,200333	0,5	0,017800
0,208667	0,5	0,010950
0,217000	0,5	0,016700
0,225333	0,5	0,007800
0,233667	0,5	0,011700
0,242000	0,5	0,014500
0,250333	0,5	0,007800
0,258667	0,5	-0,004150
0,267000	0,5	-0,008650
0,275333	0,5	0,005950
0,283667	0,5	-0,010300
0,292000	0,5	-0,009500
0,300333	0,5	-0,003450
0,308667	0,5	0,019450
0,317000	0,5	0,029400
0,325333	0,5	0,015450
0,333667	0,5	0,007250
0,342000	0,5	0,009300
0,350333	0,5	0,008900
0,358667	0,5	0,012450
0,367000	0,5	0,006500
0,375333	0,5	0,004900
0,383667	0,5	-0,001600
0,392000	0,5	0,002700
0,400333	0,5	-0,001700
0,408667	0,5	-0,008350
0,417000	0,5	-0,006350
0,425333	0,5	0,010300
0,433667	0,5	-0,010400
0,442000	0,5	-0,001850
0,450333	0,5	-0,005800
0,458667	0,5	0,012900
0,467000	0,5	0,031150
0,475333	0,5	0,026750
0,483667	0,5	0,027950
0,492000	0,5	0,023200
0,500333	0,5	0,020900
0,508667	0,5	0,015000
0,517000	0,5	0,016100
0,525333	0,5	0,015250
0,533667	0,5	0,018400
0,542000	0,5	0,014700
0,550333	0,5	0,006600
0,558667	0,5	-0,003100
0,567000	0,5	0,014600
0,575333	0,5	0,007000
0,583667	0,5	-0,000200
0,592000	0,5	0,004450
0,600333	0,5	0,010750
0,608667	0,5	0,026800
0,617000	0,5	0,038700
0,625333	0,5	0,040250
0,633667	0,5	0,041400
0,642000	0,5	0,037550
0,650333	0,5	0,040500
0,658667	0,5	0,036700
0,667000	0,5	0,033050
0,675333	0,5	0,032300
0,683667	0,5	0,031000
0,692000	0,5	0,037000
0,700333	0,5	0,018200
0,708667	0,5	0,025200
0,717000	0,5	0,046650
0,725333	0,5	0,037700
0,733667	0,5	0,021700
0,742000	0,5	0,028350
0,750333	0,5	0,033000
0,758667	0,5	0,055900
0,767000	0,5	0,056850
0,775333	0,5	0,059900
0,783667	0,5	0,054800
0,792000	0,5	0,060700
0,800333	0,5	0,052600
0,808667	0,5	0,055300
0,817000	0,5	0,052300
0,825333	0,5	0,052600
0,833667	0,5	0,056450
0,842000	0,5	0,054650
0,850333	0,5	0,049300
0,858667	0,5	0,051150
0,867000	0,5	0,062200
0,875333	0,5	0,045100
0,883667	0,5	0,045600
0,892000	0,5	0,046650
0,900333	0,5	0,064200
0,908667	0,5	0,083550
0,917000	0,5	0,081550
0,925333	0,5	0,068900
0,933667	0,5	0,074700
0,942000	0,5	0,070050
0,950333	0,5	0,075200
0,958667	0,5	0,072450
0,967000	0,5	0,071650
0,975333	0,5	0,068800
0,983667	0,5	0,071800
0,992000	0,5	0,082750
1,000333	0,5	0,072750
1,008667	0,5	0,091950
1,017000	0,5	0,086100
1,025333	0,5	0,071050
1,033667	0,5	0,070750
1,042000	0,5	0,074850
1,050333	0,5	0,088600
1,058667	0,5	0,092900
1,067000	0,5	0,083750
1,075333	0,5	0,090000
1,083667	0,5	0,087400
1,092000	0,5	0,095600
1,100333	0,5	0,090600
1,108667	0,5	0,090750
1,117000	0,5	0,083050
1,125333	0,5	0,087750
1,133667	0,5	0,087450
1,142000	0,5	0,090750
1,150333	0,5	0,073450
1,158667	0,5	0,098100
1,167000	0,5	0,080550
1,175333	0,5	0,076650
1,183667	0,5	0,073000
1,192000	0,5	0,079350
1,200333	0,5	0,104600
1,208667	0,5	0,094400
1,217000	0,5	0,091450
1,225333	0,5	0,086150
1,233667	0,5	0,092350
1,242000	0,5	0,080800
1,250333	0,5	0,081550
1,258667	0,5	0,074550
1,267000	0,5	0,074200
1,275333	0,5	0,070650
1,283667	0,5	0,071450
1,292000	0,5	0,064950
1,300333	0,5	0,058800
1,308667	0,5	0,063500
1,317000	0,5	0,051100
1,325333	0,5	0,044000
1,333667	0,5	0,044050
1,342000	0,5	0,044100
1,350333	0,5	0,061150
1,358667	0,5	0,056600
1,367000	0,5	0,048400
1,375333	0,5	0,046650
1,383667	0,5	0,044900
1,392000	0,5	0,040550
1,400333	0,5	0,031750
1,408667	0,5	0,028700
1,417000	0,5	0,014200
1,425333	0,5	0,017650
1,433667	0,5	0,008250
1,442000	0,5	0,003200
1,450333	0,5	-0,001800
1,458667	0,5	0,006150
1,467000	0,5	-0,020400
1,475333	0,5	-0,018300
1,483667	0,5	-0,020950
1,492000	0,5	-0,009000
1,500333	0,5	0,002650
1,508667	0,5	-0,004050
1,517000	0,5	-0,014200
1,525333	0,5	-0,016700
1,533667	0,5	-0,024450
1,542000	0,5	-0,036050
1,550333	0,5	-0,041300
1,558667	0,5	-0,064950
1,567000	0,5	-0,138900
1,575333	0,5	-0,394250
1,583667	0,5	-0,932350
1,592000	0,5	-1,504500
1,600333	0,5	-1,629000
1,608667	0,5	-1,099900
1,617000	0,5	-0,082750
1,625333	0,5	1,253750
1,633667	0,5	2,649700
1,642000	0,5	3,712300
1,650333	0,5	4,148400
1,658667	0,5	4,017500
1,667000	0,5	3,669950
1,675333	0,5	3,373300
1,683667	0,5	3,267150
1,692000	0,5	3,353250
1,700333	0,5	3,625000
1,708667	0,5	4,097650
1,717000	0,5	4,638000
1,725333	0,5	4,905350
1,733667	0,5	4,726400
1,742000	0,5	4,329550
1,750333	0,5	3,981300
1,758667	0,5	3,843850
1,767000	0,5	4,062450
1,775333	0,5	4,566150
1,783667	0,5	5,094850
1,792000	0,5	5,444250
1,800333	0,5	5,497850
1,808667	0,5	5,332600
1,817000	0,5	5,030600
1,825333	0,5	4,692400
1,833667	0,5	4,342900
1,842000	0,5	4,016450
1,850333	0,5	3,716200
1,858667	0,5	3,476300
1,867000	0,5	3,307950
1,875333	0,5	3,216950
1,883667	0,5	3,170750
1,892000	0,5	3,122000
1,900333	0,5	3,012900
1,908667	0,5	2,897200
1,917000	0,5	2,963400
1,925333	0,5	3,437150
1,933667	0,5	4,662950
1,942000	0,5	6,973650
1,950333	0,5	9,944350
1,958667	0,5	12,149400
1,967000	0,5	12,490100
1,975333	0,5	11,306400
1,983667	0,5	9,535800
1,992000	0,5	7,771750
2,000333	0,5	6,355950
2,008667	0,5	5,413450
2,017000	0,5	4,941000
2,025333	0,5	4,816850
2,033667	0,5	4,927000
2,042000	0,5	5,262500
2,050333	0,5	5,731750
2,058667	0,5	6,045350
2,067000	0,5	6,008150
2,075333	0,5	5,701450
2,083667	0,5	5,297150
2,092000	0,5	4,813300
2,100333	0,5	4,299150
2,108667	0,5	3,871200
2,117000	0,5	3,564150
2,125333	0,5	3,366250
2,133667	0,5	3,241350
2,142000	0,5	3,179150
2,150333	0,5	3,163650
2,158667	0,5	3,209600
2,167000	0,5	3,271200
2,175333	0,5	3,300450
2,183667	0,5	3,261100
2,192000	0,5	3,222700
2,200333	0,5	3,172050
2,208667	0,5	3,167750
2,217000	0,5	3,197600
2,225333	0,5	3,264050
2,233667	0,5	3,363550
2,242000	0,5	3,473000
2,250333	0,5	3,590850
2,258667	0,5	3,731900
2,267000	0,5	3,922650
2,275333	0,5	4,177900
2,283667	0,5	4,451100
2,292000	0,5	4,651150
2,300333	0,5	4,707350
2,308667	0,5	4,643250
2,317000	0,5	4,567300
2,325333	0,5	4,546950
2,333667	0,5	4,596400
2,342000	0,5	4,678900
2,350333	0,5	4,736600
2,358667	0,5	4,810400
2,367000	0,5	4,930150
2,375333	0,5	5,118650
2,383667	0,5	5,424300
2,392000	0,5	5,899400
2,400333	0,5	6,703800
2,408667	0,5	7,965950
2,417000	0,5	9,588200
2,425333	0,5	11,104150
2,433667	0,5	11,984250
2,442000	0,5	12,042550
2,450333	0,5	11,570600
2,458667	0,5	11,068450
2,467000	0,5	10,917800
2,475333	0,5	11,397350
2,483667	0,5	12,792300
2,492000	0,5	15,732150
2,500333	0,5	21,602750
2,508667	0,5	32,579350
2,517000	0,5	49,771351
2,525333	0,5	70,342901
2,533667	0,5	86,650651
2,542000	0,5	91,401301
2,550333	0,5	83,552201
2,558667	0,5	68,303451
2,567000	0,5	52,167351
2,575333	0,5	39,217901
2,583667	0,5	30,528100
2,592000	0,5	25,417400
2,600333	0,5	22,558550
2,608667	0,5	20,636500
2,617000	0,5	18,762100
2,625333	0,5	16,663250
2,633667	0,5	14,542100
2,642000	0,5	12,645350
2,650333	0,5	11,135650
2,658667	0,5	10,020150
2,667000	0,5	9,209900
2,675333	0,5	8,624600
2,683667	0,5	8,180950
2,692000	0,5	7,829500
2,700333	0,5	7,556550
2,708667	0,5	7,323650
2,717000	0,5	7,131000
2,725333	0,5	6,959050
2,733667	0,5	6,822000
2,742000	0,5	6,734100
2,750333	0,5	6,710300
2,758667	0,5	6,726150
2,767000	0,5	6,714100
2,775333	0,5	6,639900
2,783667	0,5	6,482450
2,792000	0,5	6,219900
2,800333	0,5	5,929100
2,808667	0,5	5,666500
2,817000	0,5	5,456800
2,825333	0,5	5,306150
2,833667	0,5	5,190550
2,842000	0,5	5,146900
2,850333	0,5	5,192550
2,858667	0,5	5,374950
2,867000	0,5	5,700300
2,875333	0,5	6,136500
2,883667	0,5	6,517100
2,892000	0,5	6,685100
2,900333	0,5	6,532950
2,908667	0,5	6,113950
2,917000	0,5	5,553800
2,925333	0,5	5,033850
2,933667	0,5	4,601750
2,942000	0,5	4,261550
2,950333	0,5	4,001450
2,958667	0,5	3,805200
2,967000	0,5	3,642650
2,975333	0,5	3,500050
2,983667	0,5	3,363450
2,992000	0,5	3,227800
3,000333	0,5	3,109350
3,008667	0,5	3,001100
3,017000	0,5	2,902750
3,025333	0,5	2,805400
3,033667	0,5	2,718900
3,042000	0,5	2,630300
3,050333	0,5	2,550600
3,058667	0,5	2,465850
3,067000	0,5	2,383000
3,075333	0,5	2,318900
3,083667	0,5	2,252950
3,092000	0,5	2,184900
3,100333	0,5	2,126150
3,108667	0,5	2,069600
3,117000	0,5	2,022800
3,125333	0,5	1,952900
3,133667	0,5	1,884950
3,142000	0,5	1,818250
3,150333	0,5	1,762450
3,158667	0,5	1,706950
3,167000	0,5	1,655150
3,175333	0,5	1,610000
3,183667	0,5	1,563000
3,192000	0,5	1,524350
3,200333	0,5	1,488200
3,208667	0,5	1,467150
3,217000	0,5	1,435500
3,225333	0,5	1,445750
3,233667	0,5	1,450150
3,242000	0,5	1,501300
3,250333	0,5	1,615600
3,258667	0,5	1,833700
3,267000	0,5	2,175150
3,275333	0,5	2,632000
3,283667	0,5	3,146500
3,292000	0,5	3,636650
3,300333	0,5	3,952600
3,308667	0,5	4,007000
3,317000	0,5	3,767350
3,325333	0,5	3,324350
3,333667	0,5	2,783650
3,342000	0,5	2,262050
3,350333	0,5	1,821700
3,358667	0,5	1,477300
3,367000	0,5	1,232650
3,375333	0,5	1,071650
3,383667	0,5	0,946000
3,392000	0,5	0,860550
3,400333	0,5	0,805950
3,408667	0,5	0,769250
3,417000	0,5	0,745750
3,425333	0,5	0,717400
3,433667	0,5	0,699850
3,442000	0,5	0,676000
3,450333	0,5	0,662050
3,458667	0,5	0,635700
3,467000	0,5	0,614700
3,475333	0,5	0,580250
3,483667	0,5	0,551050
3,492000	0,5	0,523800
3,500333	0,5	0,494550
3,508667	0,5	0,467450
3,517000	0,5	0,450900
3,525333	0,5	0,435650
3,533667	0,5	0,416250
3,542000	0,5	0,414250
3,550333	0,5	0,415900
3,558667	0,5	0,434700
3,567000	0,5	0,458400
3,575333	0,5	0,485150
3,583667	0,5	0,514200
3,592000	0,5	0,574100
3,600333	0,5	0,647050
3,608667	0,5	0,771850
3,617000	0,5	0,949100
3,625333	0,5	1,204250
3,633667	0,5	1,535900
3,642000	0,5	1,953750
3,650333	0,5	2,447650
3,658667	0,5	3,032800
3,667000	0,5	3,746300
3,675333	0,5	4,645100
3,683667	0,5	5,859700
3,692000	0,5	7,552400
3,700333	0,5	9,808200
3,708667	0,5	12,618750
3,717000	0,5	15,732400
3,725333	0,5	18,720250
3,733667	0,5	21,078400
3,742000	0,5	22,335800
3,750333	0,5	22,257500
3,758667	0,5	20,883800
3,767000	0,5	18,516750
3,775333	0,5	15,588950
3,783667	0,5	12,562000
3,792000	0,5	9,757700
3,800333	0,5	7,385450
3,808667	0,5	5,530350
3,817000	0,5	4,172550
3,825333	0,5	3,185000
3,833667	0,5	2,512100
3,842000	0,5	2,061750
3,850333	0,5	1,765800
3,858667	0,5	1,579000
3,867000	0,5	1,446950
3,875333	0,5	1,374350
3,883667	0,5	1,355150
3,892000	0,5	1,378250
3,900333	0,5	1,451600
3,908667	0,5	1,567800
3,917000	0,5	1,710200
3,925333	0,5	1,865150
3,933667	0,5	1,996400
3,942000	0,5	2,079100
3,950333	0,5	2,069450
3,958667	0,5	1,993800
3,967000	0,5	1,843250
3,975333	0,5	1,625600
3,983667	0,5	1,389650
3,992000	0,5	1,165250
4,000333	0,5	0,961150
4,008667	0,5	0,794050
4,017000	0,5	0,644300
4,025333	0,5	0,533550
4,033667	0,5	0,443100
4,042000	0,5	0,376850
4,050333	0,5	0,318400
4,058667	0,5	0,278600
4,067000	0,5	0,242550
4,075333	0,5	0,218250
4,083667	0,5	0,197650
4,092000	0,5	0,177550
4,100333	0,5	0,160200
4,108667	0,5	0,157500
4,117000	0,5	0,151000
4,125333	0,5	0,131850
4,133667	0,5	0,129450
4,142000	0,5	0,125850
4,150333	0,5	0,134250
4,158667	0,5	0,128800
4,167000	0,5	0,125500
4,175333	0,5	0,121000
4,183667	0,5	0,118150
4,192000	0,5	0,113300
4,200333	0,5	0,111050
4,208667	0,5	0,106700
4,217000	0,5	0,107500
4,225333	0,5	0,109050
4,233667	0,5	0,110550
4,242000	0,5	0,123750
4,250333	0,5	0,117650
4,258667	0,5	0,129850
4,267000	0,5	0,120500
4,275333	0,5	0,123300
4,283667	0,5	0,124750
4,292000	0,5	0,136200
4,300333	0,5	0,158550
4,308667	0,5	0,177600
4,317000	0,5	0,190400
4,325333	0,5	0,216950
4,333667	0,5	0,246550
4,342000	0,5	0,281700
4,350333	0,5	0,315400
4,358667	0,5	0,357650
4,367000	0,5	0,402750
4,375333	0,5	0,454300
4,383667	0,5	0,510600
4,392000	0,5	0,572050
4,400333	0,5	0,658200
4,408667	0,5	0,778850
4,417000	0,5	0,926800
4,425333	0,5	1,160100
4,433667	0,5	1,484800
4,442000	0,5	1,933550
4,450333	0,5	2,509150
4,458667	0,5	3,173650
4,467000	0,5	3,905500
4,475333	0,5	4,607650
4,483667	0,5	5,210700
4,492000	0,5	5,610450
4,500333	0,5	5,775900
4,508667	0,5	5,670000
4,517000	0,5	5,339100
4,525333	0,5	4,834000
4,533667	0,5	4,229100
4,542000	0,5	3,592550
4,550333	0,5	3,003850
4,558667	0,5	2,468400
4,567000	0,5	2,007200
4,575333	0,5	1,645850
4,583667	0,5	1,357000
4,592000	0,5	1,144700
4,600333	0,5	0,982850
4,608667	0,5	0,858350
4,617000	0,5	0,761450
4,625333	0,5	0,692650
4,633667	0,5	0,635100
4,642000	0,5	0,596150
4,650333	0,5	0,565250
4,658667	0,5	0,550750
4,667000	0,5	0,541750
4,675333	0,5	0,546900
4,683667	0,5	0,547550
4,692000	0,5	0,555550
4,700333	0,5	0,569600
4,708667	0,5	0,570550
4,717000	0,5	0,559000
4,725333	0,5	0,547550
4,733667	0,5	0,524400
4,742000	0,5	0,504500
4,750333	0,5	0,468900
4,758667	0,5	0,433000
4,767000	0,5	0,393000
4,775333	0,5	0,355200
4,783667	0,5	0,322500
4,792000	0,5	0,292550
4,800333	0,5	0,271050
4,808667	0,5	0,244650
4,817000	0,5	0,230100
4,825333	0,5	0,215450
4,833667	0,5	0,208300
4,842000	0,5	0,196600
4,850333	0,5	0,213100
4,858667	0,5	0,197150
4,867000	0,5	0,196150
4,875333	0,5	0,197600
4,883667	0,5	0,200850
4,892000	0,5	0,211550
4,900333	0,5	0,211600
4,908667	0,5	0,209250
4,917000	0,5	0,208700
4,925333	0,5	0,199950
4,933667	0,5	0,198750
4,942000	0,5	0,189450
4,950333	0,5	0,180650
4,958667	0,5	0,178150
4,967000	0,5	0,171150
4,975333	0,5	0,166100
4,983667	0,5	0,151800
4,992000	0,5	0,150150
5,000333	0,5	0,151400
5,008667	0,5	0,142600
5,017000	0,5	0,134100
5,025333	0,5	0,135550
5,033667	0,5	0,142750
5,042000	0,5	0,155450
5,050333	0,5	0,151350
5,058667	0,5	0,160200
5,067000	0,5	0,153300
5,075333	0,5	0,165500
5,083667	0,5	0,168200
5,092000	0,5	0,177350
5,100333	0,5	0,187250
5,108667	0,5	0,204000
5,117000	0,5	0,231650
5,125333	0,5	0,256050
5,133667	0,5	0,279400
5,142000	0,5	0,323300
5,150333	0,5	0,360300
5,158667	0,5	0,384300
5,167000	0,5	0,406050
5,175333	0,5	0,423700
5,183667	0,5	0,442250
5,192000	0,5	0,446050
5,200333	0,5	0,445050
5,208667	0,5	0,431950
5,217000	0,5	0,426900
5,225333	0,5	0,420600
5,233667	0,5	0,412300
5,242000	0,5	0,400200
5,250333	0,5	0,389100
5,258667	0,5	0,371650
5,267000	0,5	0,349450
5,275333	0,5	0,326700
5,283667	0,5	0,298050
5,292000	0,5	0,280800
5,300333	0,5	0,255300
5,308667	0,5	0,233050
5,317000	0,5	0,215200
5,325333	0,5	0,201500
5,333667	0,5	0,196700
5,342000	0,5	0,191900
5,350333	0,5	0,174800
5,358667	0,5	0,167500
5,367000	0,5	0,155050
5,375333	0,5	0,148800
5,383667	0,5	0,139200
5,392000	0,5	0,141000
5,400333	0,5	0,139600
5,408667	0,5	0,144750
5,417000	0,5	0,147550
5,425333	0,5	0,147900
5,433667	0,5	0,148400
5,442000	0,5	0,158000
5,450333	0,5	0,146000
5,458667	0,5	0,144100
5,467000	0,5	0,139200
5,475333	0,5	0,138550
5,483667	0,5	0,140800
5,492000	0,5	0,132250
5,500333	0,5	0,125600
5,508667	0,5	0,120500
5,517000	0,5	0,114400
5,525333	0,5	0,107450
5,533667	0,5	0,107750
5,542000	0,5	0,094950
5,550333	0,5	0,093500
5,558667	0,5	0,084300
5,567000	0,5	0,076900
5,575333	0,5	0,066050
5,583667	0,5	0,064600
5,592000	0,5	0,062250
5,600333	0,5	0,055200
5,608667	0,5	0,052450
5,617000	0,5	0,055850
5,625333	0,5	0,063550
5,633667	0,5	0,069600
5,642000	0,5	0,072700
5,650333	0,5	0,078750
5,658667	0,5	0,076800
5,667000	0,5	0,082350
5,675333	0,5	0,083600
5,683667	0,5	0,089550
5,692000	0,5	0,099050
5,700333	0,5	0,112800
5,708667	0,5	0,134350
5,717000	0,5	0,148700
5,725333	0,5	0,173900
5,733667	0,5	0,201850
5,742000	0,5	0,219850
5,750333	0,5	0,228250
5,758667	0,5	0,235800
5,767000	0,5	0,233300
5,775333	0,5	0,233650
5,783667	0,5	0,214400
5,792000	0,5	0,199800
5,800333	0,5	0,184550
5,808667	0,5	0,176650
5,817000	0,5	0,168750
5,825333	0,5	0,168400
5,833667	0,5	0,172650
5,842000	0,5	0,184600
5,850333	0,5	0,203250
5,858667	0,5	0,226450
5,867000	0,5	0,260950
5,875333	0,5	0,318200
5,883667	0,5	0,413250
5,892000	0,5	0,523100
5,900333	0,5	0,679450
5,908667	0,5	0,872550
5,917000	0,5	1,091200
5,925333	0,5	1,307300
5,933667	0,5	1,485950
5,942000	0,5	1,602850
5,950333	0,5	1,642400
5,958667	0,5	1,595000
5,967000	0,5	1,471100
5,975333	0,5	1,296500
5,983667	0,5	1,100250
5,992000	0,5	0,901100
6,000333	0,5	0,730750
6,008667	0,5	0,594900
6,017000	0,5	0,495900
6,025333	0,5	0,442200
6,033667	0,5	0,433900
6,042000	0,5	0,458600
6,050333	0,5	0,524000
6,058667	0,5	0,622700
6,067000	0,5	0,748850
6,075333	0,5	0,890950
6,083667	0,5	1,016700
6,092000	0,5	1,136250
6,100333	0,5	1,222200
6,108667	0,5	1,285350
6,117000	0,5	1,325650
6,125333	0,5	1,355300
6,133667	0,5	1,375050
6,142000	0,5	1,392500
6,150333	0,5	1,394050
6,158667	0,5	1,371200
6,167000	0,5	1,318200
6,175333	0,5	1,244650
6,183667	0,5	1,133100
6,192000	0,5	0,995750
6,200333	0,5	0,849200
6,208667	0,5	0,703250
6,217000	0,5	0,579950
6,225333	0,5	0,472750
6,233667	0,5	0,380700
6,242000	0,5	0,308150
6,250333	0,5	0,260150
6,258667	0,5	0,218650
6,267000	0,5	0,190550
6,275333	0,5	0,171150
6,283667	0,5	0,151150
6,292000	0,5	0,137850
6,300333	0,5	0,129000
6,308667	0,5	0,115250
6,317000	0,5	0,106650
6,325333	0,5	0,106200
6,333667	0,5	0,101450
6,342000	0,5	0,091750
6,350333	0,5	0,089000
6,358667	0,5	0,088300
6,367000	0,5	0,094500
6,375333	0,5	0,094400
6,383667	0,5	0,094350
6,392000	0,5	0,094450
6,400333	0,5	0,096500
6,408667	0,5	0,104400
6,417000	0,5	0,110950
6,425333	0,5	0,126000
6,433667	0,5	0,143950
6,442000	0,5	0,172450
6,450333	0,5	0,206200
6,458667	0,5	0,242700
6,467000	0,5	0,285500
6,475333	0,5	0,336150
6,483667	0,5	0,369900
6,492000	0,5	0,399950
6,500333	0,5	0,408200
6,508667	0,5	0,414750
6,517000	0,5	0,405750
6,525333	0,5	0,386750
6,533667	0,5	0,359600
6,542000	0,5	0,334550
6,550333	0,5	0,311400
6,558667	0,5	0,302400
6,567000	0,5	0,302250
6,575333	0,5	0,305250
6,583667	0,5	0,316050
6,592000	0,5	0,335850
6,600333	0,5	0,358950
6,608667	0,5	0,379300
6,617000	0,5	0,415850
6,625333	0,5	0,448250
6,633667	0,5	0,472700
6,642000	0,5	0,504700
6,650333	0,5	0,541250
6,658667	0,5	0,583050
6,667000	0,5	0,628250
6,675333	0,5	0,672950
6,683667	0,5	0,722800
6,692000	0,5	0,777200
6,700333	0,5	0,842550
6,708667	0,5	0,914700
6,717000	0,5	1,003050
6,725333	0,5	1,101000
6,733667	0,5	1,223150
6,742000	0,5	1,366800
6,750333	0,5	1,527200
6,758667	0,5	1,719650
6,767000	0,5	1,962500
6,775333	0,5	2,248950
6,783667	0,5	2,637900
6,792000	0,5	3,192900
6,800333	0,5	4,001750
6,808667	0,5	5,203800
6,817000	0,5	6,938950
6,825333	0,5	9,353900
6,833667	0,5	12,515700
6,842000	0,5	16,365200
6,850333	0,5	20,634850
6,858667	0,5	24,889150
6,867000	0,5	28,550200
6,875333	0,5	31,091150
6,883667	0,5	32,139650
6,892000	0,5	31,551950
6,900333	0,5	29,473650
6,908667	0,5	26,268600
6,917000	0,5	22,426050
6,925333	0,5	18,390650
6,933667	0,5	14,578400
6,942000	0,5	11,252250
6,950333	0,5	8,537350
6,958667	0,5	6,429500
6,967000	0,5	4,863850
6,975333	0,5	3,735000
6,983667	0,5	2,944700
6,992000	0,5	2,383300
7,000333	0,5	1,987950
7,008667	0,5	1,694000
7,017000	0,5	1,477400
7,025333	0,5	1,303850
7,033667	0,5	1,164950
7,042000	0,5	1,052750
7,050333	0,5	0,957800
7,058667	0,5	0,879700
7,067000	0,5	0,821750
7,075333	0,5	0,762900
7,083667	0,5	0,715850
7,092000	0,5	0,680400
7,100333	0,5	0,653800
7,108667	0,5	0,633550
7,117000	0,5	0,615900
7,125333	0,5	0,602600
7,133667	0,5	0,593400
7,142000	0,5	0,589200
7,150333	0,5	0,585000
7,158667	0,5	0,595300
7,167000	0,5	0,609950
7,175333	0,5	0,635950
7,183667	0,5	0,658700
7,192000	0,5	0,687650
7,200333	0,5	0,708550
7,208667	0,5	0,735050
7,217000	0,5	0,748300
7,225333	0,5	0,760550
7,233667	0,5	0,770600
7,242000	0,5	0,795250
7,250333	0,5	0,829200
7,258667	0,5	0,866300
7,267000	0,5	0,897350
7,275333	0,5	0,914100
7,283667	0,5	0,919250
7,292000	0,5	0,894000
7,300333	0,5	0,845200
7,308667	0,5	0,782000
7,317000	0,5	0,707750
7,325333	0,5	0,635050
7,333667	0,5	0,571850
7,342000	0,5	0,516550
7,350333	0,5	0,472350
7,358667	0,5	0,441950
7,367000	0,5	0,419550
7,375333	0,5	0,400100
7,383667	0,5	0,392100
7,392000	0,5	0,391750
7,400333	0,5	0,400500
7,408667	0,5	0,416750
7,417000	0,5	0,436250
7,425333	0,5	0,461950
7,433667	0,5	0,496850
7,442000	0,5	0,538750
7,450333	0,5	0,581600
7,458667	0,5	0,625600
7,467000	0,5	0,656350
7,475333	0,5	0,685900
7,483667	0,5	0,711750
7,492000	0,5	0,742450
7,500333	0,5	0,786000
7,508667	0,5	0,835900
7,517000	0,5	0,882350
7,525333	0,5	0,915400
7,533667	0,5	0,929250
7,542000	0,5	0,937850
7,550333	0,5	0,942550
7,558667	0,5	0,947050
7,567000	0,5	0,945950
7,575333	0,5	0,932300
7,583667	0,5	0,896850
7,592000	0,5	0,837550
7,600333	0,5	0,762150
7,608667	0,5	0,690600
7,617000	0,5	0,632750
7,625333	0,5	0,597800
7,633667	0,5	0,582900
7,642000	0,5	0,586250
7,650333	0,5	0,610850
7,658667	0,5	0,640550
7,667000	0,5	0,664200
7,675333	0,5	0,692250
7,683667	0,5	0,724700
7,692000	0,5	0,772200
7,700333	0,5	0,822500
7,708667	0,5	0,870000
7,717000	0,5	0,903400
7,725333	0,5	0,915050
7,733667	0,5	0,905250
7,742000	0,5	0,867950
7,750333	0,5	0,825950
7,758667	0,5	0,779950
7,767000	0,5	0,752850
7,775333	0,5	0,752250
7,783667	0,5	0,767750
7,792000	0,5	0,793800
7,800333	0,5	0,819050
7,808667	0,5	0,827800
7,817000	0,5	0,816800
7,825333	0,5	0,786800
7,833667	0,5	0,752150
7,842000	0,5	0,720450
7,850333	0,5	0,691550
7,858667	0,5	0,678650
7,867000	0,5	0,667700
7,875333	0,5	0,674750
7,883667	0,5	0,680700
7,892000	0,5	0,689450
7,900333	0,5	0,690400
7,908667	0,5	0,687200
7,917000	0,5	0,681250
7,925333	0,5	0,679200
7,933667	0,5	0,678100
7,942000	0,5	0,703300
7,950333	0,5	0,754300
7,958667	0,5	0,842250
7,967000	0,5	0,976600
7,975333	0,5	1,160550
7,983667	0,5	1,378550
7,992000	0,5	1,605500
8,000333	0,5	1,794800
8,008667	0,5	1,907950
8,017000	0,5	1,929950
8,025333	0,5	1,859700
8,033667	0,5	1,713950
8,042000	0,5	1,525950
8,050333	0,5	1,332350
8,058667	0,5	1,159350
8,067000	0,5	1,012850
8,075333	0,5	0,907350
8,083667	0,5	0,831050
8,092000	0,5	0,782500
8,100333	0,5	0,761600
8,108667	0,5	0,749750
8,117000	0,5	0,765850
8,125333	0,5	0,803800
8,133667	0,5	0,863900
8,142000	0,5	0,931450
8,150333	0,5	0,991300
8,158667	0,5	1,025000
8,167000	0,5	1,029400
8,175333	0,5	1,005200
8,183667	0,5	0,969550
8,192000	0,5	0,939250
8,200333	0,5	0,917350
8,208667	0,5	0,901100
8,217000	0,5	0,898950
8,225333	0,5	0,896800
8,233667	0,5	0,891650
8,242000	0,5	0,890800
8,250333	0,5	0,890900
8,258667	0,5	0,894150
8,267000	0,5	0,899000
8,275333	0,5	0,904500
8,283667	0,5	0,911200
8,292000	0,5	0,912250
8,300333	0,5	0,903500
8,308667	0,5	0,900950
8,317000	0,5	0,896050
8,325333	0,5	0,906300
8,333667	0,5	0,927050
8,342000	0,5	0,965100
8,350333	0,5	1,013900
8,358667	0,5	1,068150
8,367000	0,5	1,120600
8,375333	0,5	1,149750
8,383667	0,5	1,167400
8,392000	0,5	1,169500
8,400333	0,5	1,188200
8,408667	0,5	1,234000
8,417000	0,5	1,340600
8,425333	0,5	1,529800
8,433667	0,5	1,820100
8,442000	0,5	2,208300
8,450333	0,5	2,686750
8,458667	0,5	3,233150
8,467000	0,5	3,839850
8,475333	0,5	4,502050
8,483667	0,5	5,272050
8,492000	0,5	6,275100
8,500333	0,5	7,783850
8,508667	0,5	10,276450
8,517000	0,5	14,461150
8,525333	0,5	21,069050
8,533667	0,5	30,499850
8,542000	0,5	42,229701
8,550333	0,5	54,609701
8,558667	0,5	65,304101
8,567000	0,5	72,123351
8,575333	0,5	73,811151
8,583667	0,5	70,326801
8,592000	0,5	62,725351
8,600333	0,5	52,622751
8,608667	0,5	41,774101
8,617000	0,5	31,595400
8,625333	0,5	23,006650
8,633667	0,5	16,362850
8,642000	0,5	11,596450
8,650333	0,5	8,372550
8,658667	0,5	6,290700
8,667000	0,5	4,970850
8,675333	0,5	4,124300
8,683667	0,5	3,571150
8,692000	0,5	3,192250
8,700333	0,5	2,912500
8,708667	0,5	2,708300
8,717000	0,5	2,552650
8,725333	0,5	2,434550
8,733667	0,5	2,344200
8,742000	0,5	2,268450
8,750333	0,5	2,197700
8,758667	0,5	2,131050
8,767000	0,5	2,059150
8,775333	0,5	1,989900
8,783667	0,5	1,927900
8,792000	0,5	1,878250
8,800333	0,5	1,849750
8,808667	0,5	1,837000
8,817000	0,5	1,834250
8,825333	0,5	1,830600
8,833667	0,5	1,825950
8,842000	0,5	1,814800
8,850333	0,5	1,801350
8,858667	0,5	1,795450
8,867000	0,5	1,802000
8,875333	0,5	1,821300
8,883667	0,5	1,847650
8,892000	0,5	1,869600
8,900333	0,5	1,880400
8,908667	0,5	1,866400
8,917000	0,5	1,829350
8,925333	0,5	1,769650
8,933667	0,5	1,694400
8,942000	0,5	1,614900
8,950333	0,5	1,538000
8,958667	0,5	1,475300
8,967000	0,5	1,423600
8,975333	0,5	1,388050
8,983667	0,5	1,362100
8,992000	0,5	1,337950
9,000333	0,5	1,310750
9,008667	0,5	1,279000
9,017000	0,5	1,248000
9,025333	0,5	1,226950
9,033667	0,5	1,204550
9,042000	0,5	1,188250
9,050333	0,5	1,178850
9,058667	0,5	1,174400
9,067000	0,5	1,164150
9,075333	0,5	1,158750
9,083667	0,5	1,154700
9,092000	0,5	1,155100
9,100333	0,5	1,157800
9,108667	0,5	1,164950
9,117000	0,5	1,179750
9,125333	0,5	1,188200
9,133667	0,5	1,199800
9,142000	0,5	1,205500
9,150333	0,5	1,203100
9,158667	0,5	1,201400
9,167000	0,5	1,206300
9,175333	0,5	1,220950
9,183667	0,5	1,238950
9,192000	0,5	1,266200
9,200333	0,5	1,296000
9,208667	0,5	1,328050
9,217000	0,5	1,345750
9,225333	0,5	1,356300
9,233667	0,5	1,352300
9,242000	0,5	1,338150
9,250333	0,5	1,317650
9,258667	0,5	1,291500
9,267000	0,5	1,270950
9,275333	0,5	1,244150
9,283667	0,5	1,218400
9,292000	0,5	1,191700
9,300333	0,5	1,166100
9,308667	0,5	1,145500
9,317000	0,5	1,126450
9,325333	0,5	1,112800
9,333667	0,5	1,103350
9,342000	0,5	1,094250
9,350333	0,5	1,085650
9,358667	0,5	1,080450
9,367000	0,5	1,072750
9,375333	0,5	1,068000
9,383667	0,5	1,070800
9,392000	0,5	1,071150
9,400333	0,5	1,076450
9,408667	0,5	1,090350
9,417000	0,5	1,102450
9,425333	0,5	1,114900
9,433667	0,5	1,129850
9,442000	0,5	1,135050
9,450333	0,5	1,136950
9,458667	0,5	1,130950
9,467000	0,5	1,123600
9,475333	0,5	1,116550
9,483667	0,5	1,108600
9,492000	0,5	1,109300
9,500333	0,5	1,106500
9,508667	0,5	1,117750
9,517000	0,5	1,132850
9,525333	0,5	1,157100
9,533667	0,5	1,181600
9,542000	0,5	1,207300
9,550333	0,5	1,229200
9,558667	0,5	1,242550
9,567000	0,5	1,242150
9,575333	0,5	1,236150
9,583667	0,5	1,218850
9,592000	0,5	1,200900
9,600333	0,5	1,182850
9,608667	0,5	1,174800
9,617000	0,5	1,182700
9,625333	0,5	1,200250
9,633667	0,5	1,229100
9,642000	0,5	1,261250
9,650333	0,5	1,305800
9,658667	0,5	1,367500
9,667000	0,5	1,457850
9,675333	0,5	1,606100
9,683667	0,5	1,836900
9,692000	0,5	2,177800
9,700333	0,5	2,645650
9,708667	0,5	3,239250
9,717000	0,5	3,938950
9,725333	0,5	4,736800
9,733667	0,5	5,618600
9,742000	0,5	6,627700
9,750333	0,5	7,910850
9,758667	0,5	9,796050
9,767000	0,5	12,897700
9,775333	0,5	18,176200
9,783667	0,5	26,783900
9,792000	0,5	39,542851
9,800333	0,5	56,113851
9,808667	0,5	74,509551
9,817000	0,5	91,499751
9,825333	0,5	103,699152
9,833667	0,5	108,826902
9,842000	0,5	106,316602
9,850333	0,5	97,284151
9,858667	0,5	83,875751
9,867000	0,5	68,563751
9,875333	0,5	53,409301
9,883667	0,5	39,906051
9,892000	0,5	28,859200
9,900333	0,5	20,431900
9,908667	0,5	14,377350
9,917000	0,5	10,240150
9,925333	0,5	7,520100
9,933667	0,5	5,772150
9,942000	0,5	4,664700
9,950333	0,5	3,956550
9,958667	0,5	3,492300
9,967000	0,5	3,186650
9,975333	0,5	2,967700
9,983667	0,5	2,807600
9,992000	0,5	2,683200
10,000333	0,5	2,580700
10,008667	0,5	2,485850
10,017000	0,5	2,393550
10,025333	0,5	2,304250
10,033667	0,5	2,216550
10,042000	0,5	2,128700
10,050333	0,5	2,049100
10,058667	0,5	1,975100
10,067000	0,5	1,915700
10,075333	0,5	1,849750
10,083667	0,5	1,790250
10,092000	0,5	1,736800
10,100333	0,5	1,690900
10,108667	0,5	1,642850
10,117000	0,5	1,596900
10,125333	0,5	1,560600
10,133667	0,5	1,518550
10,142000	0,5	1,486550
10,150333	0,5	1,457350
10,158667	0,5	1,433900
10,167000	0,5	1,425200
10,175333	0,5	1,420750
10,183667	0,5	1,413250
10,192000	0,5	1,406750
10,200333	0,5	1,390950
10,208667	0,5	1,371700
10,217000	0,5	1,350800
10,225333	0,5	1,329500
10,233667	0,5	1,305300
10,242000	0,5	1,284900
10,250333	0,5	1,264000
10,258667	0,5	1,242700
10,267000	0,5	1,220250
10,275333	0,5	1,220000
10,283667	0,5	1,176450
10,292000	0,5	1,172850
10,300333	0,5	1,182350
10,308667	0,5	1,216100
10,317000	0,5	1,284400
10,325333	0,5	1,367400
10,333667	0,5	1,462450
10,342000	0,5	1,548250
10,350333	0,5	1,600950
10,358667	0,5	1,611250
10,367000	0,5	1,573300
10,375333	0,5	1,498850
10,383667	0,5	1,403650
10,392000	0,5	1,316050
10,400333	0,5	1,246950
10,408667	0,5	1,200800
10,417000	0,5	1,180500
10,425333	0,5	1,188150
10,433667	0,5	1,208450
10,442000	0,5	1,243300
10,450333	0,5	1,284050
10,458667	0,5	1,325650
10,467000	0,5	1,374850
10,475333	0,5	1,418150
10,483667	0,5	1,460800
10,492000	0,5	1,505300
10,500333	0,5	1,548600
10,508667	0,5	1,587650
10,517000	0,5	1,614900
10,525333	0,5	1,630300
10,533667	0,5	1,619650
10,542000	0,5	1,599350
10,550333	0,5	1,560500
10,558667	0,5	1,515550
10,567000	0,5	1,459950
10,575333	0,5	1,392850
10,583667	0,5	1,331900
10,592000	0,5	1,261300
10,600333	0,5	1,192900
10,608667	0,5	1,137950
10,617000	0,5	1,086400
10,625333	0,5	1,042750
10,633667	0,5	1,006600
10,642000	0,5	0,974300
10,650333	0,5	0,948250
10,658667	0,5	0,924800
10,667000	0,5	0,906550
10,675333	0,5	0,894900
10,683667	0,5	0,897000
10,692000	0,5	0,907750
10,700333	0,5	0,938200
10,708667	0,5	0,994450
10,717000	0,5	1,086250
10,725333	0,5	1,213250
10,733667	0,5	1,370650
10,742000	0,5	1,537500
10,750333	0,5	1,699350
10,758667	0,5	1,847850
10,767000	0,5	1,990650
10,775333	0,5	2,142000
10,783667	0,5	2,382600
10,792000	0,5	2,805900
10,800333	0,5	3,570750
10,808667	0,5	4,841300
10,817000	0,5	6,751700
10,825333	0,5	9,316300
10,833667	0,5	12,316250
10,842000	0,5	15,305800
10,850333	0,5	17,710850
10,858667	0,5	19,020350
10,867000	0,5	18,972300
10,875333	0,5	17,632450
10,883667	0,5	15,343150
10,892000	0,5	12,576100
10,900333	0,5	9,793350
10,908667	0,5	7,340400
10,917000	0,5	5,363750
10,925333	0,5	3,901950
10,933667	0,5	2,880700
10,942000	0,5	2,200550
10,950333	0,5	1,767250
10,958667	0,5	1,489450
10,967000	0,5	1,304300
10,975333	0,5	1,184200
10,983667	0,5	1,103750
10,992000	0,5	1,052350
11,000333	0,5	1,015200
11,008667	0,5	0,992600
11,017000	0,5	0,976300
11,025333	0,5	0,970600
11,033667	0,5	0,976100
11,042000	0,5	0,983450
11,050333	0,5	1,014650
11,058667	0,5	1,065450
11,067000	0,5	1,138900
11,075333	0,5	1,225600
11,083667	0,5	1,319000
11,092000	0,5	1,396650
11,100333	0,5	1,440150
11,108667	0,5	1,425950
11,117000	0,5	1,363500
11,125333	0,5	1,268500
11,133667	0,5	1,155950
11,142000	0,5	1,047800
11,150333	0,5	0,959300
11,158667	0,5	0,894600
11,167000	0,5	0,859500
11,175333	0,5	0,845450
11,183667	0,5	0,842500
11,192000	0,5	0,837350
11,200333	0,5	0,835050
11,208667	0,5	0,824550
11,217000	0,5	0,804150
11,225333	0,5	0,774800
11,233667	0,5	0,743100
11,242000	0,5	0,724400
11,250333	0,5	0,710950
11,258667	0,5	0,701300
11,267000	0,5	0,695400
11,275333	0,5	0,701850
11,283667	0,5	0,713350
11,292000	0,5	0,731850
11,300333	0,5	0,745550
11,308667	0,5	0,753600
11,317000	0,5	0,757150
11,325333	0,5	0,758050
11,333667	0,5	0,748500
11,342000	0,5	0,738050
11,350333	0,5	0,739100
11,358667	0,5	0,744250
11,367000	0,5	0,759100
11,375333	0,5	0,775550
11,383667	0,5	0,795950
11,392000	0,5	0,803350
11,400333	0,5	0,799650
11,408667	0,5	0,773750
11,417000	0,5	0,741750
11,425333	0,5	0,703500
11,433667	0,5	0,685400
11,442000	0,5	0,677150
11,450333	0,5	0,697900
11,458667	0,5	0,734650
11,467000	0,5	0,794650
11,475333	0,5	0,871050
11,483667	0,5	0,952600
11,492000	0,5	1,041200
11,500333	0,5	1,144900
11,508667	0,5	1,264200
11,517000	0,5	1,422900
11,525333	0,5	1,666500
11,533667	0,5	2,055250
11,542000	0,5	2,684700
11,550333	0,5	3,645400
11,558667	0,5	5,004350
11,567000	0,5	6,728800
11,575333	0,5	8,673750
11,583667	0,5	10,529400
11,592000	0,5	11,942900
11,600333	0,5	12,620700
11,608667	0,5	12,424350
11,617000	0,5	11,426500
11,625333	0,5	9,872250
11,633667	0,5	8,066150
11,642000	0,5	6,310250
11,650333	0,5	4,780250
11,658667	0,5	3,574500
11,667000	0,5	2,680600
11,675333	0,5	2,057400
11,683667	0,5	1,633950
11,692000	0,5	1,350300
11,700333	0,5	1,156200
11,708667	0,5	1,016900
11,717000	0,5	0,919550
11,725333	0,5	0,846400
11,733667	0,5	0,791400
11,742000	0,5	0,751750
11,750333	0,5	0,723850
11,758667	0,5	0,702300
11,767000	0,5	0,697950
11,775333	0,5	0,691900
11,783667	0,5	0,685350
11,792000	0,5	0,685000
11,800333	0,5	0,674300
11,808667	0,5	0,657850
11,817000	0,5	0,635450
11,825333	0,5	0,611150
11,833667	0,5	0,593200
11,842000	0,5	0,574950
11,850333	0,5	0,566150
11,858667	0,5	0,559450
11,867000	0,5	0,571050
11,875333	0,5	0,586600
11,883667	0,5	0,599850
11,892000	0,5	0,616800
11,900333	0,5	0,626450
11,908667	0,5	0,632250
11,917000	0,5	0,623200
11,925333	0,5	0,608050
11,933667	0,5	0,590150
11,942000	0,5	0,581000
11,950333	0,5	0,562900
11,958667	0,5	0,547000
11,967000	0,5	0,531650
11,975333	0,5	0,520450
11,983667	0,5	0,507600
11,992000	0,5	0,495500
12,000333	0,5	0,477500
12,008667	0,5	0,470900
12,017000	0,5	0,460750
12,025333	0,5	0,463900
12,033667	0,5	0,474050
12,042000	0,5	0,485750
12,050333	0,5	0,500000
12,058667	0,5	0,513500
12,067000	0,5	0,524150
12,075333	0,5	0,516800
12,083667	0,5	0,508950
12,092000	0,5	0,491900
12,100333	0,5	0,475300
12,108667	0,5	0,454300
12,117000	0,5	0,442900
12,125333	0,5	0,436500
12,133667	0,5	0,452000
12,142000	0,5	0,465950
12,150333	0,5	0,498800
12,158667	0,5	0,533800
12,167000	0,5	0,590650
12,175333	0,5	0,649150
12,183667	0,5	0,708100
12,192000	0,5	0,760850
12,200333	0,5	0,799200
12,208667	0,5	0,832750
12,217000	0,5	0,863650
12,225333	0,5	0,902250
12,233667	0,5	0,977700
12,242000	0,5	1,070550
12,250333	0,5	1,158250
12,258667	0,5	1,216000
12,267000	0,5	1,217850
12,275333	0,5	1,168950
12,283667	0,5	1,081250
12,292000	0,5	1,000000
12,300333	0,5	0,949100
12,308667	0,5	0,928850
12,317000	0,5	0,860600
12,325333	0,5	0,708200
12,333667	0,5	0,489500
12,342000	0,5	0,280750
12,350333	0,5	0,112450
12,358667	0,5	-0,005150
12,367000	0,5	-0,084500
12,375333	0,5	-0,124450
12,383667	0,5	-0,146500
12,392000	0,5	-0,165600
12,400333	0,5	-0,175150
12,408667	0,5	-0,186600
12,417000	0,5	-0,193750
12,425333	0,5	-0,197600
12,433667	0,5	-0,193100
12,442000	0,5	-0,193400
12,450333	0,5	-0,193900
12,458667	0,5	-0,195800
12,467000	0,5	-0,191600
12,475333	0,5	-0,192100
12,483667	0,5	-0,194500
12,492000	0,5	-0,195450
12,500333	0,5	-0,197000
12,508667	0,5	-0,202850
12,517000	0,5	-0,209100
12,525333	0,5	-0,218200
12,533667	0,5	-0,221850
12,542000	0,5	-0,231250
12,550333	0,5	-0,245000
12,558667	0,5	-0,260200
12,567000	0,5	-0,265800
12,575333	0,5	-0,267900
12,583667	0,5	-0,273650
12,592000	0,5	-0,277050
12,600333	0,5	-0,281050
12,608667	0,5	-0,281200
12,617000	0,5	-0,284950
12,625333	0,5	-0,283600
12,633667	0,5	-0,283950
12,642000	0,5	-0,284600
12,650333	0,5	-0,283450
12,658667	0,5	-0,279650
12,667000	0,5	-0,286750
12,675333	0,5	-0,278550
12,683667	0,5	-0,277650
12,692000	0,5	-0,276750
12,700333	0,5	-0,280150
12,708667	0,5	-0,281100
12,717000	0,5	-0,280050
12,725333	0,5	-0,276050
12,733667	0,5	-0,277300
12,742000	0,5	-0,272850
12,750333	0,5	-0,275750
12,758667	0,5	-0,271050
12,767000	0,5	-0,269050
12,775333	0,5	-0,264150
12,783667	0,5	-0,257650
12,792000	0,5	-0,252550
12,800333	0,5	-0,241750
12,808667	0,5	-0,240300
12,817000	0,5	-0,238650
12,825333	0,5	-0,226050
12,833667	0,5	-0,220800
12,842000	0,5	-0,219850
12,850333	0,5	-0,218150
12,858667	0,5	-0,213350
12,867000	0,5	-0,198700
12,875333	0,5	-0,193450
12,883667	0,5	-0,181250
12,892000	0,5	-0,173600
12,900333	0,5	-0,161900
12,908667	0,5	-0,152100
12,917000	0,5	-0,140450
12,925333	0,5	-0,133250
12,933667	0,5	-0,124700
12,942000	0,5	-0,113850
12,950333	0,5	-0,104900
12,958667	0,5	-0,101850
12,967000	0,5	-0,093050
12,975333	0,5	-0,082100
12,983667	0,5	-0,072450
12,992000	0,5	-0,061850
13,000333	0,5	-0,056200
13,008667	0,5	-0,045900
13,017000	0,5	-0,040200
13,025333	0,5	-0,031650
13,033667	0,5	-0,031850
13,042000	0,5	-0,025700
13,050333	0,5	-0,025550
13,058667	0,5	-0,014950
13,067000	0,5	-0,003850
13,075333	0,5	0,007150
13,083667	0,5	0,018150
13,092000	0,5	0,026900
13,100333	0,5	0,039350
13,108667	0,5	0,037900
13,117000	0,5	0,056250
13,125333	0,5	0,064000
13,133667	0,5	0,070600
13,142000	0,5	0,070300
13,150333	0,5	0,072450
13,158667	0,5	0,086600
13,167000	0,5	0,102550
13,175333	0,5	0,110100
13,183667	0,5	0,124400
13,192000	0,5	0,127300
13,200333	0,5	0,132100
13,208667	0,5	0,133600
13,217000	0,5	0,133300
13,225333	0,5	0,131550
13,233667	0,5	0,127550
13,242000	0,5	0,131500
13,250333	0,5	0,129450
13,258667	0,5	0,119150
13,267000	0,5	0,127900
13,275333	0,5	0,128500
13,283667	0,5	0,135150
13,292000	0,5	0,152250
13,300333	0,5	0,168450
13,308667	0,5	0,207800
13,317000	0,5	0,249650
13,325333	0,5	0,292350
13,333667	0,5	0,323250
13,342000	0,5	0,340850
13,350333	0,5	0,343950
13,358667	0,5	0,341150
13,367000	0,5	0,316450
13,375333	0,5	0,291700
13,383667	0,5	0,264150
13,392000	0,5	0,238000
13,400333	0,5	0,208650
13,408667	0,5	0,190050
13,417000	0,5	0,182600
13,425333	0,5	0,170600
13,433667	0,5	0,163750
13,442000	0,5	0,150750
13,450333	0,5	0,147600
13,458667	0,5	0,153450
13,467000	0,5	0,160800
13,475333	0,5	0,169600
13,483667	0,5	0,189750
13,492000	0,5	0,214100
13,500333	0,5	0,248150
13,508667	0,5	0,279700
13,517000	0,5	0,311350
13,525333	0,5	0,334900
13,533667	0,5	0,351300
13,542000	0,5	0,348800
13,550333	0,5	0,333150
13,558667	0,5	0,307800
13,567000	0,5	0,284650
13,575333	0,5	0,248200
13,583667	0,5	0,219900
13,592000	0,5	0,188450
13,600333	0,5	0,169300
13,608667	0,5	0,163650
13,617000	0,5	0,158650
13,625333	0,5	0,160550
13,633667	0,5	0,171350
13,642000	0,5	0,193250
13,650333	0,5	0,223700
13,658667	0,5	0,262450
13,667000	0,5	0,298400
13,675333	0,5	0,340000
13,683667	0,5	0,376300
13,692000	0,5	0,403550
13,700333	0,5	0,411900
13,708667	0,5	0,413900
13,717000	0,5	0,398300
13,725333	0,5	0,368550
13,733667	0,5	0,324350
13,742000	0,5	0,285800
13,750333	0,5	0,263500
13,758667	0,5	0,251200
13,767000	0,5	0,251200
13,775333	0,5	0,261100
13,783667	0,5	0,278150
13,792000	0,5	0,295700
13,800333	0,5	0,310450
13,808667	0,5	0,323800
13,817000	0,5	0,338350
13,825333	0,5	0,347450
13,833667	0,5	0,364200
13,842000	0,5	0,359850
13,850333	0,5	0,361550
13,858667	0,5	0,349900
13,867000	0,5	0,328700
13,875333	0,5	0,293400
13,883667	0,5	0,253800
13,892000	0,5	0,211550
13,900333	0,5	0,177650
13,908667	0,5	0,141000
13,917000	0,5	0,117650
13,925333	0,5	0,096500
13,933667	0,5	0,089450
13,942000	0,5	0,094400
13,950333	0,5	0,112200
13,958667	0,5	0,136800
13,967000	0,5	0,160050
13,975333	0,5	0,184700
13,983667	0,5	0,203600
13,992000	0,5	0,202400
14,000333	0,5	0,196950
14,008667	0,5	0,182550
14,017000	0,5	0,148050
14,025333	0,5	0,119550
14,033667	0,5	0,073250
14,042000	0,5	0,056900
14,050333	0,5	0,042850
14,058667	0,5	0,040650
14,067000	0,5	0,039900
14,075333	0,5	0,052050
14,083667	0,5	0,060000
14,092000	0,5	0,069550
14,100333	0,5	0,073100
14,108667	0,5	0,074750
14,117000	0,5	0,078200
14,125333	0,5	0,069850
14,133667	0,5	0,068050
14,142000	0,5	0,053250
14,150333	0,5	0,062000
14,158667	0,5	0,054750
14,167000	0,5	0,054100
14,175333	0,5	0,049350
14,183667	0,5	0,046950
14,192000	0,5	0,052800
14,200333	0,5	0,056950
14,208667	0,5	0,051700
14,217000	0,5	0,047750
14,225333	0,5	0,030000
14,233667	0,5	0,014000
14,242000	0,5	-0,001750
14,250333	0,5	-0,016750
14,258667	0,5	-0,033150
14,267000	0,5	-0,042250
14,275333	0,5	-0,046900
14,283667	0,5	-0,057400
14,292000	0,5	-0,065650
14,300333	0,5	-0,061150
14,308667	0,5	-0,066150
14,317000	0,5	-0,070550
14,325333	0,5	-0,078200
14,333667	0,5	-0,092350
14,342000	0,5	-0,090700
14,350333	0,5	-0,096400
14,358667	0,5	-0,098000
14,367000	0,5	-0,101400
14,375333	0,5	-0,106600
14,383667	0,5	-0,114750
14,392000	0,5	-0,111600
14,400333	0,5	-0,119150
14,408667	0,5	-0,115300
14,417000	0,5	-0,115200
14,425333	0,5	-0,106050
14,433667	0,5	-0,102500
14,442000	0,5	-0,086550
14,450333	0,5	-0,057400
14,458667	0,5	-0,045450
14,467000	0,5	-0,032650
14,475333	0,5	-0,037300
14,483667	0,5	-0,039550
14,492000	0,5	-0,054100
14,500333	0,5	-0,069150
14,508667	0,5	-0,089900
14,517000	0,5	-0,109650
14,525333	0,5	-0,131300
14,533667	0,5	-0,147900
14,542000	0,5	-0,159450
14,550333	0,5	-0,165400
14,558667	0,5	-0,170700
14,567000	0,5	-0,161600
14,575333	0,5	-0,159700
14,583667	0,5	-0,166250
14,592000	0,5	-0,162700
14,600333	0,5	-0,155000
14,608667	0,5	-0,159700
14,617000	0,5	-0,162000
14,625333	0,5	-0,176150
14,633667	0,5	-0,173800
14,642000	0,5	-0,169900
14,650333	0,5	-0,168250
14,658667	0,5	-0,170750
14,667000	0,5	-0,169950
14,675333	0,5	-0,161000
14,683667	0,5	-0,163650
14,692000	0,5	-0,160750
14,700333	0,5	-0,165200
14,708667	0,5	-0,167800
14,717000	0,5	-0,176750
14,725333	0,5	-0,191600
14,733667	0,5	-0,207750
14,742000	0,5	-0,207850
14,750333	0,5	-0,216500
14,758667	0,5	-0,224600
14,767000	0,5	-0,240100
14,775333	0,5	-0,248600
14,783667	0,5	-0,246900
14,792000	0,5	-0,248050
14,800333	0,5	-0,255400
14,808667	0,5	-0,250400
14,817000	0,5	-0,250500
14,825333	0,5	-0,252450
14,833667	0,5	-0,245700
14,842000	0,5	-0,237100
14,850333	0,5	-0,232250
14,858667	0,5	-0,223100
14,867000	0,5	-0,215600
14,875333	0,5	-0,221900
14,883667	0,5	-0,215250
14,892000	0,5	-0,215900
14,900333	0,5	-0,214750
14,908667	0,5	-0,223750
14,917000	0,5	-0,236300
14,925333	0,5	-0,238400
14,933667	0,5	-0,229000
14,942000	0,5	-0,231050
14,950333	0,5	-0,222300
14,958667	0,5	-0,218400
14,967000	0,5	-0,212950
14,975333	0,5	-0,213350
14,983667	0,5	-0,217600
14,992000	0,5	-0,223100
15,000333	0,5	-0,234850
15,008667	0,5	-0,236750
15,017000	0,5	-0,245350
15,025333	0,5	-0,267050
15,033667	0,5	-0,261700
15,042000	0,5	-0,260450
15,050333	0,5	-0,263550
15,058667	0,5	-0,264450
15,067000	0,5	-0,276550
15,075333	0,5	-0,269150
15,083667	0,5	-0,268800
15,092000	0,5	-0,262900
15,100333	0,5	-0,269550
15,108667	0,5	-0,266650
15,117000	0,5	-0,273750
15,125333	0,5	-0,274550
15,133667	0,5	-0,279850
15,142000	0,5	-0,284600
15,150333	0,5	-0,286200
15,158667	0,5	-0,288850
15,167000	0,5	-0,291200
15,175333	0,5	-0,295400
15,183667	0,5	-0,294300
15,192000	0,5	-0,298850
15,200333	0,5	-0,303700
15,208667	0,5	-0,315200
15,217000	0,5	-0,327100
15,225333	0,5	-0,329400
15,233667	0,5	-0,321950
15,242000	0,5	-0,327100
15,250333	0,5	-0,324300
15,258667	0,5	-0,326100
15,267000	0,5	-0,324950
15,275333	0,5	-0,328650
15,283667	0,5	-0,325350
15,292000	0,5	-0,329650
15,300333	0,5	-0,322000
15,308667	0,5	-0,315600
15,317000	0,5	-0,315100
15,325333	0,5	-0,308650
15,333667	0,5	-0,283250
15,342000	0,5	-0,275000
15,350333	0,5	-0,265150
15,358667	0,5	-0,263350
15,367000	0,5	-0,269850
15,375333	0,5	-0,265000
15,383667	0,5	-0,277900
15,392000	0,5	-0,283900
15,400333	0,5	-0,298900
15,408667	0,5	-0,299150
15,417000	0,5	-0,306900
15,425333	0,5	-0,303450
15,433667	0,5	-0,302700
15,442000	0,5	-0,298550
15,450333	0,5	-0,289250
15,458667	0,5	-0,286400
15,467000	0,5	-0,300350
15,475333	0,5	-0,294600
15,483667	0,5	-0,292850
15,492000	0,5	-0,296900
15,500333	0,5	-0,300300
15,508667	0,5	-0,307400
15,517000	0,5	-0,310200
15,525333	0,5	-0,312350
15,533667	0,5	-0,304950
15,542000	0,5	-0,311250
15,550333	0,5	-0,315750
15,558667	0,5	-0,327600
15,567000	0,5	-0,333000
15,575333	0,5	-0,343300
15,583667	0,5	-0,349300
15,592000	0,5	-0,352400
15,600333	0,5	-0,349050
15,608667	0,5	-0,360100
15,617000	0,5	-0,366050
15,625333	0,5	-0,365150
15,633667	0,5	-0,365200
15,642000	0,5	-0,376200
15,650333	0,5	-0,388550
15,658667	0,5	-0,396500
15,667000	0,5	-0,396900
15,675333	0,5	-0,393350
15,683667	0,5	-0,393700
15,692000	0,5	-0,391150
15,700333	0,5	-0,391050
15,708667	0,5	-0,387350
15,717000	0,5	-0,394950
15,725333	0,5	-0,384650
15,733667	0,5	-0,388200
15,742000	0,5	-0,384050
15,750333	0,5	-0,378900
15,758667	0,5	-0,384600
15,767000	0,5	-0,378850
15,775333	0,5	-0,365400
15,783667	0,5	-0,367950
15,792000	0,5	-0,371250
15,800333	0,5	-0,387050
15,808667	0,5	-0,392950
15,817000	0,5	-0,402500
15,825333	0,5	-0,411450
15,833667	0,5	-0,424900
15,842000	0,5	-0,432400
15,850333	0,5	-0,438500
15,858667	0,5	-0,444000
15,867000	0,5	-0,445450
15,875333	0,5	-0,451700
15,883667	0,5	-0,450800
15,892000	0,5	-0,457250
15,900333	0,5	-0,454750
15,908667	0,5	-0,475300
15,917000	0,5	-0,463150
15,925333	0,5	-0,466850
15,933667	0,5	-0,468750
15,942000	0,5	-0,477400
15,950333	0,5	-0,490600
15,958667	0,5	-0,483800
15,967000	0,5	-0,483250
15,975333	0,5	-0,485800
15,983667	0,5	-0,481500
15,992000	0,5	-0,482250
16,000333	0,5	-0,476700
16,008667	0,5	-0,472800
16,017000	0,5	-0,467700
16,025333	0,5	-0,465500
16,033667	0,5	-0,464500
16,042000	0,5	-0,451550
16,050333	0,5	-0,454300
16,058667	0,5	-0,461550
16,067000	0,5	-0,454100
16,075333	0,5	-0,454200
16,083667	0,5	-0,461200
16,092000	0,5	-0,468000
16,100333	0,5	-0,479400
16,108667	0,5	-0,480550
16,117000	0,5	-0,486300
16,125333	0,5	-0,482450
16,133667	0,5	-0,489400
16,142000	0,5	-0,487050
16,150333	0,5	-0,489450
16,158667	0,5	-0,491400
16,167000	0,5	-0,493200
16,175333	0,5	-0,494900
16,183667	0,5	-0,490450
16,192000	0,5	-0,492900
16,200333	0,5	-0,498450
16,208667	0,5	-0,495800
16,217000	0,5	-0,489150
16,225333	0,5	-0,487200
16,233667	0,5	-0,489350
16,242000	0,5	-0,500000
16,250333	0,5	-0,500850
16,258667	0,5	-0,500600
16,267000	0,5	-0,494950
16,275333	0,5	-0,498150
16,283667	0,5	-0,498000
16,292000	0,5	-0,500700
16,300333	0,5	-0,498950
16,308667	0,5	-0,504300
16,317000	0,5	-0,508200
16,325333	0,5	-0,504550
16,333667	0,5	-0,504450
16,342000	0,5	-0,503250
16,350333	0,5	-0,509900
16,358667	0,5	-0,501050
16,367000	0,5	-0,497500
16,375333	0,5	-0,497400
16,383667	0,5	-0,505250
16,392000	0,5	-0,511300
16,400333	0,5	-0,517200
16,408667	0,5	-0,512700
16,417000	0,5	-0,510100
16,425333	0,5	-0,502650
16,433667	0,5	-0,504400
16,442000	0,5	-0,497000
16,450333	0,5	-0,497300
16,458667	0,5	-0,490600
16,467000	0,5	-0,491550
16,475333	0,5	-0,494550
16,483667	0,5	-0,486800
16,492000	0,5	-0,488700
16,500333	0,5	-0,493100
16,508667	0,5	-0,480100
16,517000	0,5	-0,481200
16,525333	0,5	-0,481350
16,533667	0,5	-0,488700
16,542000	0,5	-0,493250
16,550333	0,5	-0,485200
16,558667	0,5	-0,484950
16,567000	0,5	-0,477650
16,575333	0,5	-0,479200
16,583667	0,5	-0,472700
16,592000	0,5	-0,478950
16,600333	0,5	-0,471450
16,608667	0,5	-0,476550
16,617000	0,5	-0,473300
16,625333	0,5	-0,467350
16,633667	0,5	-0,461450
16,642000	0,5	-0,474700
16,650333	0,5	-0,468000
16,658667	0,5	-0,463700
16,667000	0,5	-0,467300
16,675333	0,5	-0,472650
16,683667	0,5	-0,489200
16,692000	0,5	-0,490050
16,700333	0,5	-0,493250
16,708667	0,5	-0,494000
16,717000	0,5	-0,497600
16,725333	0,5	-0,496700
16,733667	0,5	-0,497750
16,742000	0,5	-0,492950
16,750333	0,5	-0,493850
16,758667	0,5	-0,490800
16,767000	0,5	-0,494000
16,775333	0,5	-0,484650
16,783667	0,5	-0,479650
16,792000	0,5	-0,490200
16,800333	0,5	-0,481600
16,808667	0,5	-0,474350
16,817000	0,5	-0,474300
16,825333	0,5	-0,470600
16,833667	0,5	-0,481950
16,842000	0,5	-0,470650
16,850333	0,5	-0,460800
16,858667	0,5	-0,454100
16,867000	0,5	-0,451200
16,875333	0,5	-0,442650
16,883667	0,5	-0,436300
16,892000	0,5	-0,429450
16,900333	0,5	-0,428300
16,908667	0,5	-0,425750
16,917000	0,5	-0,422650
16,925333	0,5	-0,420950
16,933667	0,5	-0,420750
16,942000	0,5	-0,421550
16,950333	0,5	-0,406700
16,958667	0,5	-0,403050
16,967000	0,5	-0,402300
16,975333	0,5	-0,408650
16,983667	0,5	-0,408800
16,992000	0,5	-0,397650
17,000333	0,5	-0,397600
17,008667	0,5	-0,394800
17,017000	0,5	-0,389400
17,025333	0,5	-0,387550
17,033667	0,5	-0,382350
17,042000	0,5	-0,377650
17,050333	0,5	-0,372850
17,058667	0,5	-0,370600
17,067000	0,5	-0,367850
17,075333	0,5	-0,352700
17,083667	0,5	-0,362350
17,092000	0,5	-0,358050
17,100333	0,5	-0,356950
17,108667	0,5	-0,348150
17,117000	0,5	-0,351400
17,125333	0,5	-0,358100
17,133667	0,5	-0,363250
17,142000	0,5	-0,354200
17,150333	0,5	-0,360000
17,158667	0,5	-0,356600
17,167000	0,5	-0,357450
17,175333	0,5	-0,355800
17,183667	0,5	-0,353950
17,192000	0,5	-0,348600
17,200333	0,5	-0,353700
17,208667	0,5	-0,355200
17,217000	0,5	-0,342000
17,225333	0,5	-0,341650
17,233667	0,5	-0,347600
17,242000	0,5	-0,339700
17,250333	0,5	-0,339150
17,258667	0,5	-0,341800
17,267000	0,5	-0,345100
17,275333	0,5	-0,358850
17,283667	0,5	-0,358850
17,292000	0,5	-0,366600
17,300333	0,5	-0,362400
17,308667	0,5	-0,365900
17,317000	0,5	-0,359500
17,325333	0,5	-0,367400
17,333667	0,5	-0,365150
17,342000	0,5	-0,364550
17,350333	0,5	-0,367300
17,358667	0,5	-0,363300
17,367000	0,5	-0,364600
17,375333	0,5	-0,371050
17,383667	0,5	-0,374450
17,392000	0,5	-0,370300
17,400333	0,5	-0,375450
17,408667	0,5	-0,376800
17,417000	0,5	-0,390800
17,425333	0,5	-0,398550
17,433667	0,5	-0,401700
17,442000	0,5	-0,398750
17,450333	0,5	-0,402300
17,458667	0,5	-0,398750
17,467000	0,5	-0,403250
17,475333	0,5	-0,398800
17,483667	0,5	-0,403900
17,492000	0,5	-0,405500
17,500333	0,5	-0,406550
17,508667	0,5	-0,402250
17,517000	0,5	-0,404850
17,525333	0,5	-0,416350
17,533667	0,5	-0,412400
17,542000	0,5	-0,408000
17,550333	0,5	-0,414000
17,558667	0,5	-0,414350
17,567000	0,5	-0,431400
17,575333	0,5	-0,439500
17,583667	0,5	-0,436150
17,592000	0,5	-0,445800
17,600333	0,5	-0,444500
17,608667	0,5	-0,447350
17,617000	0,5	-0,443950
17,625333	0,5	-0,448450
17,633667	0,5	-0,447250
17,642000	0,5	-0,452700
17,650333	0,5	-0,454500
17,658667	0,5	-0,446150
17,667000	0,5	-0,446000
17,675333	0,5	-0,462100
17,683667	0,5	-0,456100
17,692000	0,5	-0,461800
17,700333	0,5	-0,468350
17,708667	0,5	-0,476900
17,717000	0,5	-0,492550
17,725333	0,5	-0,486300
17,733667	0,5	-0,491000
17,742000	0,5	-0,491200
17,750333	0,5	-0,499000
17,758667	0,5	-0,500500
17,767000	0,5	-0,507550
17,775333	0,5	-0,500600
17,783667	0,5	-0,508850
17,792000	0,5	-0,515300
17,800333	0,5	-0,515850
17,808667	0,5	-0,508450
17,817000	0,5	-0,518250
17,825333	0,5	-0,523550
17,833667	0,5	-0,519200
17,842000	0,5	-0,525100
17,850333	0,5	-0,534050
17,858667	0,5	-0,548600
17,867000	0,5	-0,559950
17,875333	0,5	-0,562500
17,883667	0,5	-0,566100
17,892000	0,5	-0,575150
17,900333	0,5	-0,575700
17,908667	0,5	-0,580400
17,917000	0,5	-0,580100
17,925333	0,5	-0,582300
17,933667	0,5	-0,585050
17,942000	0,5	-0,587100
17,950333	0,5	-0,589600
17,958667	0,5	-0,589650
17,967000	0,5	-0,598600
17,975333	0,5	-0,601700
17,983667	0,5	-0,598200
17,992000	0,5	-0,602350
18,000333	0,5	-0,612850
18,008667	0,5	-0,626950
18,017000	0,5	-0,629700
18,025333	0,5	-0,625700
18,033667	0,5	-0,626150
18,042000	0,5	-0,629150
18,050333	0,5	-0,631900
18,058667	0,5	-0,632650
18,067000	0,5	-0,634850
18,075333	0,5	-0,634350
18,083667	0,5	-0,642500
18,092000	0,5	-0,636300
18,100333	0,5	-0,637350
18,108667	0,5	-0,633100
18,117000	0,5	-0,648450
18,125333	0,5	-0,639200
18,133667	0,5	-0,642350
18,142000	0,5	-0,641050
18,150333	0,5	-0,658250
18,158667	0,5	-0,671250
18,167000	0,5	-0,670050
18,175333	0,5	-0,669050
18,183667	0,5	-0,676850
18,192000	0,5	-0,677200
18,200333	0,5	-0,680950
18,208667	0,5	-0,681850
18,217000	0,5	-0,682800
18,225333	0,5	-0,684200
18,233667	0,5	-0,684150
18,242000	0,5	-0,689600
18,250333	0,5	-0,680850
18,258667	0,5	-0,690250
18,267000	0,5	-0,696650
18,275333	0,5	-0,692450
18,283667	0,5	-0,702250
18,292000	0,5	-0,711800
18,300333	0,5	-0,717250
18,308667	0,5	-0,729800
18,317000	0,5	-0,728700
18,325333	0,5	-0,731050
18,333667	0,5	-0,725600
18,342000	0,5	-0,729200
18,350333	0,5	-0,727700
18,358667	0,5	-0,728550
18,367000	0,5	-0,728300
18,375333	0,5	-0,734450
18,383667	0,5	-0,743950
18,392000	0,5	-0,734100
18,400333	0,5	-0,737950
18,408667	0,5	-0,752350
18,417000	0,5	-0,752400
18,425333	0,5	-0,749600
18,433667	0,5	-0,759250
18,442000	0,5	-0,762900
18,450333	0,5	-0,781950
18,458667	0,5	-0,783850
18,467000	0,5	-0,786000
18,475333	0,5	-0,785750
18,483667	0,5	-0,792300
18,492000	0,5	-0,784600
18,500333	0,5	-0,786650
18,508667	0,5	-0,782500
18,517000	0,5	-0,784800
18,525333	0,5	-0,784650
18,533667	0,5	-0,784150
18,542000	0,5	-0,778300
18,550333	0,5	-0,779950
18,558667	0,5	-0,784050
18,567000	0,5	-0,776450
18,575333	0,5	-0,772700
18,583667	0,5	-0,775400
18,592000	0,5	-0,779650
18,600333	0,5	-0,786050
18,608667	0,5	-0,781650
18,617000	0,5	-0,774150
18,625333	0,5	-0,774950
18,633667	0,5	-0,760850
18,642000	0,5	-0,756900
18,650333	0,5	-0,753250
18,658667	0,5	-0,756250
18,667000	0,5	-0,755800
18,675333	0,5	-0,769200
18,683667	0,5	-0,770600
18,692000	0,5	-0,761550
18,700333	0,5	-0,774150
18,708667	0,5	-0,773300
18,717000	0,5	-0,767550
18,725333	0,5	-0,770100
18,733667	0,5	-0,785450
18,742000	0,5	-0,801350
18,750333	0,5	-0,806700
18,758667	0,5	-0,799000
18,767000	0,5	-0,810000
18,775333	0,5	-0,811100
18,783667	0,5	-0,816800
18,792000	0,5	-0,811900
18,800333	0,5	-0,815950
18,808667	0,5	-0,815050
18,817000	0,5	-0,816800
18,825333	0,5	-0,818200
18,833667	0,5	-0,809250
18,842000	0,5	-0,805150
18,850333	0,5	-0,827500
18,858667	0,5	-0,820950
18,867000	0,5	-0,816400
18,875333	0,5	-0,823350
18,883667	0,5	-0,821600
18,892000	0,5	-0,841000
18,900333	0,5	-0,830800
18,908667	0,5	-0,832350
18,917000	0,5	-0,830500
18,925333	0,5	-0,836800
18,933667	0,5	-0,833750
18,942000	0,5	-0,841150
18,950333	0,5	-0,833650
18,958667	0,5	-0,837100
18,967000	0,5	-0,835450
18,975333	0,5	-0,836950
18,983667	0,5	-0,821300
18,992000	0,5	-0,819200
19,000333	0,5	-0,823700
19,008667	0,5	-0,819100
19,017000	0,5	-0,823150
19,025333	0,5	-0,831450
19,033667	0,5	-0,845700
19,042000	0,5	-0,860750
19,050333	0,5	-0,864900
19,058667	0,5	-0,863500
19,067000	0,5	-0,875250
19,075333	0,5	-0,875700
19,083667	0,5	-0,883200
19,092000	0,5	-0,886900
19,100333	0,5	-0,884400
19,108667	0,5	-0,880600
19,117000	0,5	-0,884000
19,125333	0,5	-0,877000
19,133667	0,5	-0,871300
19,142000	0,5	-0,874000
19,150333	0,5	-0,874450
19,158667	0,5	-0,867100
19,167000	0,5	-0,877400
19,175333	0,5	-0,885450
19,183667	0,5	-0,897950
19,192000	0,5	-0,911300
19,200333	0,5	-0,905850
19,208667	0,5	-0,910150
19,217000	0,5	-0,906350
19,225333	0,5	-0,906750
19,233667	0,5	-0,897850
19,242000	0,5	-0,889150
19,250333	0,5	-0,867950
19,258667	0,5	-0,853750
19,267000	0,5	-0,847350
19,275333	0,5	-0,832650
19,283667	0,5	-0,831850
19,292000	0,5	-0,851700
19,300333	0,5	-0,854750
19,308667	0,5	-0,856250
19,317000	0,5	-0,861650
19,325333	0,5	-0,869750
19,333667	0,5	-0,889250
19,342000	0,5	-0,898300
19,350333	0,5	-0,909150
19,358667	0,5	-0,921750
19,367000	0,5	-0,940250
19,375333	0,5	-0,944850
19,383667	0,5	-0,950250
19,392000	0,5	-0,948550
19,400333	0,5	-0,950900
19,408667	0,5	-0,942500
19,417000	0,5	-0,933100
19,425333	0,5	-0,905500
19,433667	0,5	-0,892100
19,442000	0,5	-0,872500
19,450333	0,5	-0,852400
19,458667	0,5	-0,847400
19,467000	0,5	-0,866550
19,475333	0,5	-0,890550
19,483667	0,5	-0,913750
19,492000	0,5	-0,933000
19,500333	0,5	-0,946950
19,508667	0,5	-0,962950
19,517000	0,5	-0,975300
19,525333	0,5	-0,984450
19,533667	0,5	-0,985900
19,542000	0,5	-0,987450
19,550333	0,5	-0,987100
19,558667	0,5	-0,992050
19,567000	0,5	-0,984600
19,575333	0,5	-0,982400
19,583667	0,5	-0,995100
19,592000	0,5	-0,993750
19,600333	0,5	-0,984000
19,608667	0,5	-0,992000
19,617000	0,5	-0,993450
19,625333	0,5	-1,009050
19,633667	0,5	-1,004300
19,642000	0,5	-0,999650
19,650333	0,5	-0,986500
19,658667	0,5	-0,980000
19,667000	0,5	-0,963200
19,675333	0,5	-0,951150
19,683667	0,5	-0,942050
19,692000	0,5	-0,936750
19,700333	0,5	-0,948600
19,708667	0,5	-0,957500
19,717000	0,5	-0,961700
19,725333	0,5	-0,970450
19,733667	0,5	-0,989300
19,742000	0,5	-0,982550
19,750333	0,5	-0,989500
19,758667	0,5	-0,999450
19,767000	0,5	-1,012300
19,775333	0,5	-1,023150
19,783667	0,5	-1,016550
19,792000	0,5	-1,011450
19,800333	0,5	-1,014650
19,808667	0,5	-1,012600
19,817000	0,5	-1,017100
19,825333	0,5	-1,016600
19,833667	0,5	-1,011900
19,842000	0,5	-1,009700
19,850333	0,5	-1,010350
19,858667	0,5	-1,010400
19,867000	0,5	-0,997250
19,875333	0,5	-1,005800
19,883667	0,5	-1,008750
19,892000	0,5	-0,999200
19,900333	0,5	-0,997950
19,908667	0,5	-1,004750
19,917000	0,5	-1,010350
19,925333	0,5	-1,018850
19,933667	0,5	-1,008000
19,942000	0,5	-1,015250
19,950333	0,5	-1,011900
19,958667	0,5	-1,020550
19,967000	0,5	-1,011850
19,975333	0,5	-1,012850
19,983667	0,5	-1,010500
19,992000	0,5	-1,005500
20,000333	0,5	-1,007050
20,008667	0,5	-1,001450
20,017000	0,5	-0,995200
20,025333	0,5	-1,006100
20,033667	0,5	-0,997950
20,042000	0,5	-0,994800
20,050333	0,5	-0,995950
20,058667	0,5	-1,002900
20,067000	0,5	-1,016450
20,075333	0,5	-1,011200
20,083667	0,5	-1,010250
20,092000	0,5	-1,002800
20,100333	0,5	-1,004950
20,108667	0,5	-0,998100
20,117000	0,5	-0,997100
20,125333	0,5	-0,991600
20,133667	0,5	-0,988600
20,142000	0,5	-0,988850
20,150333	0,5	-0,987100
20,158667	0,5	-0,979900
20,167000	0,5	-0,981500
20,175333	0,5	-0,985650
20,183667	0,5	-0,974300
20,192000	0,5	-0,981150
20,200333	0,5	-0,981200
20,208667	0,5	-0,995250
20,217000	0,5	-1,005800
20,225333	0,5	-1,006500
20,233667	0,5	-1,000500
20,242000	0,5	-1,003750
20,250333	0,5	-1,002950
20,258667	0,5	-1,007650
20,267000	0,5	-0,995150
20,275333	0,5	-0,996450
20,283667	0,5	-0,995950
20,292000	0,5	-0,994250
20,300333	0,5	-0,991450
20,308667	0,5	-0,986900
20,317000	0,5	-0,993450
20,325333	0,5	-0,993400
20,333667	0,5	-0,987500
20,342000	0,5	-0,991600
20,350333	0,5	-1,003450
20,358667	0,5	-1,013950
20,367000	0,5	-1,021800
20,375333	0,5	-1,012350
20,383667	0,5	-1,017350
20,392000	0,5	-1,009250
20,400333	0,5	-1,015050
20,408667	0,5	-1,008850
20,417000	0,5	-1,008950
20,425333	0,5	-1,009600
20,433667	0,5	-1,009300
20,442000	0,5	-1,013000
20,450333	0,5	-0,998300
20,458667	0,5	-0,995000
20,467000	0,5	-1,004650
20,475333	0,5	-1,000450
20,483667	0,5	-0,999950
20,492000	0,5	-1,004550
20,500333	0,5	-1,011050
20,508667	0,5	-1,022050
20,517000	0,5	-1,016200
20,525333	0,5	-1,019050
20,533667	0,5	-1,009400
20,542000	0,5	-1,015350
20,550333	0,5	-1,011700
20,558667	0,5	-1,014450
20,567000	0,5	-1,007650
20,575333	0,5	-1,008450
20,583667	0,5	-1,008150
20,592000	0,5	-1,000200
20,600333	0,5	-0,986200
20,608667	0,5	-0,985100
20,617000	0,5	-0,990050
20,625333	0,5	-0,986600
20,633667	0,5	-0,987050
20,642000	0,5	-0,988050
20,650333	0,5	-1,013500
20,658667	0,5	-1,005900
20,667000	0,5	-1,005600
20,675333	0,5	-0,999850
20,683667	0,5	-1,001200
20,692000	0,5	-0,994800
20,700333	0,5	-0,998650
20,708667	0,5	-0,990100
20,717000	0,5	-0,989550
20,725333	0,5	-0,985750
20,733667	0,5	-0,985150
20,742000	0,5	-0,970750
20,750333	0,5	-0,960250
20,758667	0,5	-0,964800
20,767000	0,5	-0,964800
20,775333	0,5	-0,965000
20,783667	0,5	-0,965850
20,792000	0,5	-0,972450
20,800333	0,5	-0,986500
20,808667	0,5	-0,980650
20,817000	0,5	-0,967850
20,825333	0,5	-0,971700
20,833667	0,5	-0,966050
20,842000	0,5	-0,969800
20,850333	0,5	-0,966100
20,858667	0,5	-0,961050
20,867000	0,5	-0,948950
20,875333	0,5	-0,947650
20,883667	0,5	-0,940800
20,892000	0,5	-0,922100
20,900333	0,5	-0,903900
20,908667	0,5	-0,921650
20,917000	0,5	-0,913000
20,925333	0,5	-0,914000
20,933667	0,5	-0,919550
20,942000	0,5	-0,927800
20,950333	0,5	-0,936150
20,958667	0,5	-0,914650
20,967000	0,5	-0,914200
20,975333	0,5	-0,904950
20,983667	0,5	-0,904100
20,992000	0,5	-0,893700
21,000333	0,5	-0,890600
21,008667	0,5	-0,879800
21,017000	0,5	-0,878700
21,025333	0,5	-0,873300
21,033667	0,5	-0,859500
21,042000	0,5	-0,840950
21,050333	0,5	-0,846200
21,058667	0,5	-0,843550
21,067000	0,5	-0,842700
21,075333	0,5	-0,840350
21,083667	0,5	-0,848150
21,092000	0,5	-0,865650
21,100333	0,5	-0,856650
21,108667	0,5	-0,854700
21,117000	0,5	-0,845450
21,125333	0,5	-0,840700
21,133667	0,5	-0,832900
21,142000	0,5	-0,835650
21,150333	0,5	-0,826600
21,158667	0,5	-0,818750
21,167000	0,5	-0,815900
21,175333	0,5	-0,809150
21,183667	0,5	-0,783850
21,192000	0,5	-0,768300
21,200333	0,5	-0,769500
21,208667	0,5	-0,766850
21,217000	0,5	-0,764500
21,225333	0,5	-0,765500
21,233667	0,5	-0,775500
21,242000	0,5	-0,783300
21,250333	0,5	-0,781200
21,258667	0,5	-0,764250
21,267000	0,5	-0,756300
21,275333	0,5	-0,753450
21,283667	0,5	-0,747800
21,292000	0,5	-0,736700
21,300333	0,5	-0,728600
21,308667	0,5	-0,715250
21,317000	0,5	-0,704700
21,325333	0,5	-0,682400
21,333667	0,5	-0,656600
21,342000	0,5	-0,639400
21,350333	0,5	-0,634400
21,358667	0,5	-0,616350
21,367000	0,5	-0,602550
21,375333	0,5	-0,588900
21,383667	0,5	-0,573300
21,392000	0,5	-0,558750
21,400333	0,5	-0,521400
21,408667	0,5	-0,511550
21,417000	0,5	-0,500650
21,425333	0,5	-0,508950
21,433667	0,5	-0,507900
21,442000	0,5	-0,515550
21,450333	0,5	-0,512300
21,458667	0,5	-0,507300
21,467000	0,5	-0,501450
21,475333	0,5	-0,474650
21,483667	0,5	-0,453400
21,492000	0,5	-0,459550
21,500333	0,5	-0,458600
21,508667	0,5	-0,459300
21,517000	0,5	-0,466900
21,525333	0,5	-0,475150
21,533667	0,5	-0,477450
21,542000	0,5	-0,470150
21,550333	0,5	-0,462050
21,558667	0,5	-0,446300
21,567000	0,5	-0,438650
21,575333	0,5	-0,423400
21,583667	0,5	-0,405200
21,592000	0,5	-0,387250
21,600333	0,5	-0,375700
21,608667	0,5	-0,358150
21,617000	0,5	-0,338250
21,625333	0,5	-0,304550
21,633667	0,5	-0,296100
21,642000	0,5	-0,289700
21,650333	0,5	-0,282150
21,658667	0,5	-0,272050
21,667000	0,5	-0,264100
21,675333	0,5	-0,266750
21,683667	0,5	-0,247450
21,692000	0,5	-0,238200
21,700333	0,5	-0,215400
21,708667	0,5	-0,207750
21,717000	0,5	-0,185900
21,725333	0,5	-0,173350
21,733667	0,5	-0,160400
21,742000	0,5	-0,144150
21,750333	0,5	-0,126100
21,758667	0,5	-0,112650
21,767000	0,5	-0,079100
21,775333	0,5	-0,062700
21,783667	0,5	-0,056900
21,792000	0,5	-0,035850
21,800333	0,5	-0,025650
21,808667	0,5	-0,013400
21,817000	0,5	-0,004500
21,825333	0,5	0,001350
21,833667	0,5	0,020650
21,842000	0,5	0,048600
21,850333	0,5	0,063400
21,858667	0,5	0,088850
21,867000	0,5	0,106850
21,875333	0,5	0,135950
21,883667	0,5	0,158400
21,892000	0,5	0,184650
21,900333	0,5	0,209450
21,908667	0,5	0,241000
21,917000	0,5	0,278500
21,925333	0,5	0,302450
21,933667	0,5	0,323950
21,942000	0,5	0,361450
21,950333	0,5	0,392300
21,958667	0,5	0,412650
21,967000	0,5	0,427900
21,975333	0,5	0,447800
21,983667	0,5	0,477300
21,992000	0,5	0,495500
22,000333	0,5	0,519100
22,008667	0,5	0,530950
22,017000	0,5	0,552050
22,025333	0,5	0,565250
22,033667	0,5	0,594950
22,042000	0,5	0,612400
22,050333	0,5	0,637050
22,058667	0,5	0,664450
22,067000	0,5	0,692200
22,075333	0,5	0,707400
22,083667	0,5	0,747100
22,092000	0,5	0,773800
22,100333	0,5	0,801400
22,108667	0,5	0,822300
22,117000	0,5	0,840400
22,125333	0,5	0,873350
22,133667	0,5	0,903500
22,142000	0,5	0,943700
22,150333	0,5	0,977900
22,158667	0,5	1,018100
22,167000	0,5	1,051700
22,175333	0,5	1,096150
22,183667	0,5	1,121800
22,192000	0,5	1,162200
22,200333	0,5	1,191400
22,208667	0,5	1,216400
22,217000	0,5	1,255600
22,225333	0,5	1,303050
22,233667	0,5	1,361900
22,242000	0,5	1,406200
22,250333	0,5	1,445900
22,258667	0,5	1,484800
22,267000	0,5	1,524950
22,275333	0,5	1,568100
22,283667	0,5	1,619500
22,292000	0,5	1,655700
22,300333	0,5	1,699950
22,308667	0,5	1,737350
22,317000	0,5	1,787800
22,325333	0,5	1,824850
22,333667	0,5	1,877850
22,342000	0,5	1,917500
22,350333	0,5	1,955600
22,358667	0,5	1,996450
22,367000	0,5	2,053750
22,375333	0,5	2,120400
22,383667	0,5	2,181550
22,392000	0,5	2,234800
22,400333	0,5	2,280000
22,408667	0,5	2,331450
22,417000	0,5	2,379650
22,425333	0,5	2,445200
22,433667	0,5	2,501000
22,442000	0,5	2,565250
22,450333	0,5	2,619450
22,458667	0,5	2,678050
22,467000	0,5	2,730400
22,475333	0,5	2,790850
22,483667	0,5	2,838150
22,492000	0,5	2,884150
22,500333	0,5	2,911300
22,508667	0,5	2,962150
22,517000	0,5	3,026150
22,525333	0,5	3,089550
22,533667	0,5	3,139100
22,542000	0,5	3,181550
22,550333	0,5	3,212600
22,558667	0,5	3,260850
22,567000	0,5	3,314350
22,575333	0,5	3,363300
22,583667	0,5	3,407950
22,592000	0,5	3,446400
22,600333	0,5	3,485450
22,608667	0,5	3,512050
22,617000	0,5	3,534250
22,625333	0,5	3,545900
22,633667	0,5	3,555050
22,642000	0,5	3,513550
22,650333	0,5	3,496350
22,658667	0,5	3,463300
22,667000	0,5	3,457250
22,675333	0,5	3,407200
22,683667	0,5	3,344650
22,692000	0,5	3,272750
22,700333	0,5	3,175950
22,708667	0,5	3,101350
22,717000	0,5	3,016200
22,725333	0,5	2,927500
22,733667	0,5	2,833150
22,742000	0,5	2,737350
22,750333	0,5	2,640850
22,758667	0,5	2,541950
22,767000	0,5	2,440950
22,775333	0,5	2,330200
22,783667	0,5	2,215350
22,792000	0,5	2,046150
22,800333	0,5	1,937300
22,808667	0,5	1,828450
22,817000	0,5	1,708100
22,825333	0,5	1,570250
22,833667	0,5	1,431100
22,842000	0,5	1,296550
22,850333	0,5	1,161100
22,858667	0,5	1,022300
22,867000	0,5	0,884850
22,875333	0,5	0,759750
22,883667	0,5	0,633550
22,892000	0,5	0,522150
22,900333	0,5	0,399650
22,908667	0,5	0,284600
22,917000	0,5	0,161750
22,925333	0,5	0,056600
22,933667	0,5	-0,039900
22,942000	0,5	-0,166650
22,950333	0,5	-0,264350
22,958667	0,5	-0,398550
22,967000	0,5	-0,519800
22,975333	0,5	-0,618450
22,983667	0,5	-0,713000
22,992000	0,5	-0,796650
23,000333	0,5	-0,884200
23,008667	0,5	-0,976000
23,017000	0,5	-1,045800
23,025333	0,5	-1,116400
23,033667	0,5	-1,176300
23,042000	0,5	-1,239150
23,050333	0,5	-1,291650
23,058667	0,5	-1,359450
23,067000	0,5	-1,407450
23,075333	0,5	-1,461750
23,083667	0,5	-1,485500
23,092000	0,5	-1,536200
23,100333	0,5	-1,584950
23,108667	0,5	-1,671900
23,117000	0,5	-1,716450
23,125333	0,5	-1,757250
23,133667	0,5	-1,781150
23,142000	0,5	-1,806400
23,150333	0,5	-1,832800
23,158667	0,5	-1,860700
23,167000	0,5	-1,872700
23,175333	0,5	-1,887900
23,183667	0,5	-1,897700
23,192000	0,5	-1,900450
23,200333	0,5	-1,914050
23,208667	0,5	-1,913500
23,217000	0,5	-1,924100
23,225333	0,5	-1,913650
23,233667	0,5	-1,941350
23,242000	0,5	-1,927650
23,250333	0,5	-1,931150
23,258667	0,5	-1,971100
23,267000	0,5	-1,983500
23,275333	0,5	-1,987300
23,283667	0,5	-1,984850
23,292000	0,5	-1,981850
23,300333	0,5	-1,984500
23,308667	0,5	-1,981850
23,317000	0,5	-1,976300
23,325333	0,5	-1,963950
23,333667	0,5	-1,954750
23,342000	0,5	-1,941400
23,350333	0,5	-1,924500
23,358667	0,5	-1,916250
23,367000	0,5	-1,895200
23,375333	0,5	-1,885850
23,383667	0,5	-1,910550
23,392000	0,5	-1,861300
23,400333	0,5	-1,833700
23,408667	0,5	-1,847950
23,417000	0,5	-1,846600
23,425333	0,5	-1,842950
23,433667	0,5	-1,827350
23,442000	0,5	-1,822200
23,450333	0,5	-1,817650
23,458667	0,5	-1,808700
23,467000	0,5	-1,795050
23,475333	0,5	-1,785550
23,483667	0,5	-1,769250
23,492000	0,5	-1,759250
23,500333	0,5	-1,742250
23,508667	0,5	-1,726300
23,517000	0,5	-1,709600
23,525333	0,5	-1,779300
23,533667	0,5	-1,736350
23,542000	0,5	-1,693450
23,550333	0,5	-1,650350
23,558667	0,5	-1,640450
23,567000	0,5	-1,631000
23,575333	0,5	-1,617750
23,583667	0,5	-1,606550
23,592000	0,5	-1,594650
23,600333	0,5	-1,581600
23,608667	0,5	-1,567750
23,617000	0,5	-1,553400
23,625333	0,5	-1,540950
23,633667	0,5	-1,526400
23,642000	0,5	-1,510000
23,650333	0,5	-1,495700
23,658667	0,5	-1,481050
23,667000	0,5	-1,496100
23,675333	0,5	-1,561550
23,683667	0,5	-1,529300
23,692000	0,5	-1,477700
23,700333	0,5	-1,429750
23,708667	0,5	-1,412050
23,717000	0,5	-1,401500
23,725333	0,5	-1,389800
23,733667	0,5	-1,378600
23,742000	0,5	-1,359500
23,750333	0,5	-1,343600
23,758667	0,5	-1,321300
23,767000	0,5	-1,303600
23,775333	0,5	-1,290800
23,783667	0,5	-1,271250
23,792000	0,5	-1,251550
23,800333	0,5	-1,233200
23,808667	0,5	-1,217450
23,817000	0,5	-1,314450
23,825333	0,5	-1,294200
23,833667	0,5	-1,269800
23,842000	0,5	-1,201650
23,850333	0,5	-1,169750
23,858667	0,5	-1,152950
23,867000	0,5	-1,144900
23,875333	0,5	-1,150100
23,883667	0,5	-1,131450
23,892000	0,5	-1,120150
23,900333	0,5	-1,099400
23,908667	0,5	-1,083700
23,917000	0,5	-1,064350
23,925333	0,5	-1,050700
23,933667	0,5	-1,028000
23,942000	0,5	-1,012600
23,950333	0,5	-0,992600
23,958667	0,5	-0,984800
23,967000	0,5	-1,098500
23,975333	0,5	-1,049350
23,983667	0,5	-1,009200
23,992000	0,5	-0,951850
24,000333	0,5	-0,921300
24,008667	0,5	-0,904800
24,017000	0,5	-0,894150
24,025333	0,5	-0,892700
24,033667	0,5	-0,880250
24,042000	0,5	-0,855950
24,050333	0,5	-0,845250
24,058667	0,5	-0,828700
24,067000	0,5	-0,822650
24,075333	0,5	-0,803100
24,083667	0,5	-0,790100
24,092000	0,5	-0,771200
24,100333	0,5	-0,760200
24,108667	0,5	-0,786100
24,117000	0,5	-0,844650
24,125333	0,5	-0,796850
24,133667	0,5	-0,769550
24,142000	0,5	-0,718050
24,150333	0,5	-0,704300
24,158667	0,5	-0,684250
24,167000	0,5	-0,687550
24,175333	0,5	-0,687800
24,183667	0,5	-0,661750
24,192000	0,5	-0,643850
24,200333	0,5	-0,628700
24,208667	0,5	-0,613000
24,217000	0,5	-0,595800
24,225333	0,5	-0,580450
24,233667	0,5	-0,565700
24,242000	0,5	-0,554750
24,250333	0,5	-0,541700
24,258667	0,5	-0,617550
24,267000	0,5	-0,604100
24,275333	0,5	-0,583300
24,283667	0,5	-0,541350
24,292000	0,5	-0,514900
24,300333	0,5	-0,503350
24,308667	0,5	-0,497100
24,317000	0,5	-0,498700
24,325333	0,5	-0,496000
24,333667	0,5	-0,479550
24,342000	0,5	-0,468200
24,350333	0,5	-0,453750
24,358667	0,5	-0,447500
24,367000	0,5	-0,432900
24,375333	0,5	-0,419300
24,383667	0,5	-0,404700
24,392000	0,5	-0,392500
24,400333	0,5	-0,388550
24,408667	0,5	-0,436600
24,417000	0,5	-0,424700
24,425333	0,5	-0,401150
24,433667	0,5	-0,374850
24,442000	0,5	-0,349450
24,450333	0,5	-0,341200
24,458667	0,5	-0,341650
24,467000	0,5	-0,347850
24,475333	0,5	-0,331450
24,483667	0,5	-0,331550
24,492000	0,5	-0,319850
24,500333	0,5	-0,315150
24,508667	0,5	-0,307500
24,517000	0,5	-0,299550
24,525333	0,5	-0,288700
24,533667	0,5	-0,277600
24,542000	0,5	-0,275000
24,550333	0,5	-0,287600
24,558667	0,5	-0,312800
24,567000	0,5	-0,292050
24,575333	0,5	-0,274500
24,583667	0,5	-0,252100
24,592000	0,5	-0,236700
24,600333	0,5	-0,230550
24,608667	0,5	-0,234100
24,617000	0,5	-0,231950
24,625333	0,5	-0,223200
24,633667	0,5	-0,214250
24,642000	0,5	-0,210400
24,650333	0,5	-0,204800
24,658667	0,5	-0,202250
24,667000	0,5	-0,195550
24,675333	0,5	-0,189050
24,683667	0,5	-0,184650
24,692000	0,5	-0,180300
24,700333	0,5	-0,213600
24,708667	0,5	-0,199050
24,717000	0,5	-0,197750
24,725333	0,5	-0,179050
24,733667	0,5	-0,165750
24,742000	0,5	-0,158950
24,750333	0,5	-0,162550
24,758667	0,5	-0,162050
24,767000	0,5	-0,159950
24,775333	0,5	-0,148800
24,783667	0,5	-0,148650
24,792000	0,5	-0,142950
24,800333	0,5	-0,137350
24,808667	0,5	-0,127550
24,817000	0,5	-0,129350
24,825333	0,5	-0,120950
24,833667	0,5	-0,117000
24,842000	0,5	-0,117600
24,850333	0,5	-0,141600
24,858667	0,5	-0,126150
24,867000	0,5	-0,124900
24,875333	0,5	-0,112800
24,883667	0,5	-0,106900
24,892000	0,5	-0,101250
24,900333	0,5	-0,104650
24,908667	0,5	-0,111550
24,917000	0,5	-0,103600
24,925333	0,5	-0,101200
24,933667	0,5	-0,097150
24,942000	0,5	-0,098400
24,950333	0,5	-0,091200
24,958667	0,5	-0,088600
24,967000	0,5	-0,084450
24,975333	0,5	-0,078550
24,983667	0,5	-0,074700
24,992000	0,5	-0,080700
25,000333	0,5	-0,086950
25,008667	0,5	-0,077100
25,017000	0,5	-0,072450
25,025333	0,5	-0,065650
25,033667	0,5	-0,057300
25,042000	0,5	-0,063450
25,050333	0,5	-0,061850
25,058667	0,5	-0,065000
25,067000	0,5	-0,066000
25,075333	0,5	-0,061900
25,083667	0,5	-0,060850
25,092000	0,5	-0,060400
25,100333	0,5	-0,059250
25,108667	0,5	-0,057400
25,117000	0,5	-0,054200
25,125333	0,5	-0,051900
25,133667	0,5	-0,050450
25,142000	0,5	-0,054700
25,150333	0,5	-0,052350
25,158667	0,5	-0,047900
25,167000	0,5	-0,042950
25,175333	0,5	-0,039700
25,183667	0,5	-0,037150
25,192000	0,5	-0,037750
25,200333	0,5	-0,039700
25,208667	0,5	-0,041800
25,217000	0,5	-0,038900
25,225333	0,5	-0,039950
25,233667	0,5	-0,038250
25,242000	0,5	-0,039000
25,250333	0,5	-0,036600
25,258667	0,5	-0,037750
25,267000	0,5	-0,036750
25,275333	0,5	-0,036400
25,283667	0,5	-0,036250
25,292000	0,5	-0,037750
25,300333	0,5	-0,035200
25,308667	0,5	-0,031900
25,317000	0,5	-0,035600
25,325333	0,5	-0,030800
25,333667	0,5	-0,033200
25,342000	0,5	-0,032800
25,350333	0,5	-0,031650
25,358667	0,5	-0,028450
25,367000	0,5	-0,027550
25,375333	0,5	-0,026700
25,383667	0,5	-0,028400
25,392000	0,5	-0,028500
25,400333	0,5	-0,029650
25,408667	0,5	-0,028700
25,417000	0,5	-0,025500
25,425333	0,5	-0,027500
25,433667	0,5	-0,026700
25,442000	0,5	-0,027850
25,450333	0,5	-0,025700
25,458667	0,5	-0,029000
25,467000	0,5	-0,027600
25,475333	0,5	-0,027150
25,483667	0,5	-0,026300
25,492000	0,5	-0,023900
25,500333	0,5	-0,024750
25,508667	0,5	-0,022850
25,517000	0,5	-0,021100
25,525333	0,5	-0,019550
25,533667	0,5	-0,018100
25,542000	0,5	-0,019600
25,550333	0,5	-0,020700
25,558667	0,5	-0,019700
25,567000	0,5	-0,018100
25,575333	0,5	-0,018950
25,583667	0,5	-0,019200
25,592000	0,5	-0,016000
25,600333	0,5	-0,010200
25,608667	0,5	-0,017650
25,617000	0,5	-0,020950
25,625333	0,5	-0,022150
25,633667	0,5	-0,023500
25,642000	0,5	-0,021250
25,650333	0,5	-0,019250
25,658667	0,5	-0,019200
25,667000	0,5	-0,017500
25,675333	0,5	-0,017650
25,683667	0,5	-0,017600
25,692000	0,5	-0,019600
25,700333	0,5	-0,019750
25,708667	0,5	-0,019500
25,717000	0,5	-0,016650
25,725333	0,5	-0,016950
25,733667	0,5	-0,009700
25,742000	0,5	-0,018550
25,750333	0,5	-0,006600
25,758667	0,5	-0,015550
25,767000	0,5	-0,012950
25,775333	0,5	-0,017300
25,783667	0,5	-0,015150
25,792000	0,5	-0,011400
25,800333	0,5	-0,012050
25,808667	0,5	-0,013750
25,817000	0,5	-0,007800
25,825333	0,5	-0,011950
25,833667	0,5	-0,009100
25,842000	0,5	-0,010600
25,850333	0,5	-0,009050
25,858667	0,5	-0,011650
25,867000	0,5	-0,011050
25,875333	0,5	-0,007900
25,883667	0,5	-0,002550
25,892000	0,5	-0,006050
25,900333	0,5	0,001600
25,908667	0,5	-0,007300
25,917000	0,5	-0,004000
25,925333	0,5	-0,001750
25,933667	0,5	0,001000
25,942000	0,5	0,008150
25,950333	0,5	0,008350
25,958667	0,5	0,007500
25,967000	0,5	0,005350
25,975333	0,5	0,006800
25,983667	0,5	0,004750
25,992000	0,5	0,006050
26,000333	0,5	0,003650
