File Path	chrom://chromeleon01/ikbm_chromeleon/2022/ICS-5000/ED1/Esteban/20220612_Cell_7_4_eg.seq/406.smp/ED_1.channel/ED_1.chm
Channel	ED_1

Injection Information:
Data Vault	ikbm_chromeleon
Injection	CelS2_24h-NT_1
Injection Number	46
Position	RE7
Comment	
Processing Method	Stop sequence after Cell Death
Instrument Method	ICS5000_PA200_FullNative_Ox_26min_ED1
Type	Unknown
Status	Finished
Injection Date	13.06.2022
Injection Time	13:29:36
Injection Volume (µl)	5,0
Dilution Factor	1,0000
Weight	1,0000

Chromatogram Data Information:
Time Min. (min)	0,000167
Time Max. (min)	26,000167
Data Points	3121
Detector	EDet1
Generating Data System	Chromeleon 7.2.9.11323
Exporting Data System	Chromeleon 7.2.9.0
Operator	Instrument Controller
Signal Quantity	
Signal Unit	nC
Signal Min.	-1,993700
Signal Max.	117,904702
Channel	ED_1
Driver Name	DC-5000
Channel Type	Evaluation
Min. Step (s)	0,5
Max. Step (s)	0,5
Average Step (s)	0,5

Signal Parameter Information:
Signal Info	

Chromatogram Data:
Time (min)	Step (s)	Value (nC)
0,000167	n.a.	-0,040800
0,008500	0,5	-0,040200
0,016833	0,5	-0,042150
0,025167	0,5	-0,037200
0,033500	0,5	-0,034700
0,041833	0,5	-0,009850
0,050167	0,5	0,004050
0,058500	0,5	-0,001350
0,066833	0,5	0,001300
0,075167	0,5	-0,000650
0,083500	0,5	-0,001000
0,091833	0,5	-0,001100
0,100167	0,5	0,000050
0,108500	0,5	-0,008850
0,116833	0,5	-0,003650
0,125167	0,5	-0,002550
0,133500	0,5	-0,002900
0,141833	0,5	-0,016950
0,150167	0,5	0,012000
0,158500	0,5	-0,008950
0,166833	0,5	-0,017950
0,175167	0,5	-0,019550
0,183500	0,5	-0,013450
0,191833	0,5	0,015900
0,200167	0,5	0,011300
0,208500	0,5	0,001550
0,216833	0,5	0,000200
0,225167	0,5	-0,000200
0,233500	0,5	-0,000150
0,241833	0,5	-0,001200
0,250167	0,5	-0,000750
0,258500	0,5	-0,005900
0,266833	0,5	-0,009500
0,275167	0,5	-0,004300
0,283500	0,5	-0,015500
0,291833	0,5	-0,005650
0,300167	0,5	0,026650
0,308500	0,5	-0,005450
0,316833	0,5	-0,021900
0,325167	0,5	-0,024500
0,333500	0,5	-0,024850
0,341833	0,5	-0,002150
0,350167	0,5	-0,005850
0,358500	0,5	-0,008600
0,366833	0,5	-0,012750
0,375167	0,5	-0,004100
0,383500	0,5	-0,010250
0,391833	0,5	-0,012200
0,400167	0,5	-0,017450
0,408500	0,5	-0,016000
0,416833	0,5	-0,014500
0,425167	0,5	-0,017450
0,433500	0,5	-0,013600
0,441833	0,5	-0,023800
0,450167	0,5	-0,007150
0,458500	0,5	-0,033500
0,466833	0,5	-0,031500
0,475167	0,5	-0,027150
0,483500	0,5	-0,011750
0,491833	0,5	0,003550
0,500167	0,5	-0,006100
0,508500	0,5	-0,016800
0,516833	0,5	-0,009400
0,525167	0,5	-0,015550
0,533500	0,5	-0,011700
0,541833	0,5	-0,018450
0,550167	0,5	-0,016400
0,558500	0,5	-0,018350
0,566833	0,5	-0,014650
0,575167	0,5	-0,010650
0,583500	0,5	-0,031200
0,591833	0,5	-0,025150
0,600167	0,5	-0,020250
0,608500	0,5	-0,033450
0,616833	0,5	-0,030650
0,625167	0,5	-0,026000
0,633500	0,5	-0,015200
0,641833	0,5	0,007500
0,650167	0,5	-0,009400
0,658500	0,5	-0,001750
0,666833	0,5	-0,004500
0,675167	0,5	0,005750
0,683500	0,5	-0,004300
0,691833	0,5	-0,006150
0,700167	0,5	-0,014750
0,708500	0,5	-0,009000
0,716833	0,5	-0,006600
0,725167	0,5	-0,019450
0,733500	0,5	-0,021850
0,741833	0,5	-0,009700
0,750167	0,5	-0,016300
0,758500	0,5	-0,021550
0,766833	0,5	-0,016550
0,775167	0,5	-0,009600
0,783500	0,5	0,009950
0,791833	0,5	0,014200
0,800167	0,5	0,015800
0,808500	0,5	0,007600
0,816833	0,5	0,012450
0,825167	0,5	0,004700
0,833500	0,5	0,006800
0,841833	0,5	0,000950
0,850167	0,5	0,004850
0,858500	0,5	0,010350
0,866833	0,5	0,009500
0,875167	0,5	-0,001500
0,883500	0,5	0,004200
0,891833	0,5	0,003950
0,900167	0,5	-0,003450
0,908500	0,5	-0,009850
0,916833	0,5	-0,004250
0,925167	0,5	0,011700
0,933500	0,5	0,027550
0,941833	0,5	0,031650
0,950167	0,5	0,030050
0,958500	0,5	0,035150
0,966833	0,5	0,032050
0,975167	0,5	0,031600
0,983500	0,5	0,027000
0,991833	0,5	0,026000
1,000167	0,5	0,021000
1,008500	0,5	0,028600
1,016833	0,5	0,023500
1,025167	0,5	0,020550
1,033500	0,5	0,025850
1,041833	0,5	0,037000
1,050167	0,5	0,021200
1,058500	0,5	0,025600
1,066833	0,5	0,020100
1,075167	0,5	0,041650
1,083500	0,5	0,048400
1,091833	0,5	0,047550
1,100167	0,5	0,045900
1,108500	0,5	0,045800
1,116833	0,5	0,046550
1,125167	0,5	0,044700
1,133500	0,5	0,044400
1,141833	0,5	0,044850
1,150167	0,5	0,050050
1,158500	0,5	0,049150
1,166833	0,5	0,043300
1,175167	0,5	0,030850
1,183500	0,5	0,053250
1,191833	0,5	0,042000
1,200167	0,5	0,036000
1,208500	0,5	0,038350
1,216833	0,5	0,044850
1,225167	0,5	0,063900
1,233500	0,5	0,064100
1,241833	0,5	0,065150
1,250167	0,5	0,066650
1,258500	0,5	0,060350
1,266833	0,5	0,064250
1,275167	0,5	0,062150
1,283500	0,5	0,062450
1,291833	0,5	0,062400
1,300167	0,5	0,055150
1,308500	0,5	0,057250
1,316833	0,5	0,042600
1,325167	0,5	0,041700
1,333500	0,5	0,065550
1,341833	0,5	0,048650
1,350167	0,5	0,039250
1,358500	0,5	0,045000
1,366833	0,5	0,046350
1,375167	0,5	0,069500
1,383500	0,5	0,057800
1,391833	0,5	0,060850
1,400167	0,5	0,051550
1,408500	0,5	0,056050
1,416833	0,5	0,046800
1,425167	0,5	0,050850
1,433500	0,5	0,044100
1,441833	0,5	0,040400
1,450167	0,5	0,041500
1,458500	0,5	0,041000
1,466833	0,5	0,030850
1,475167	0,5	0,026150
1,483500	0,5	0,031650
1,491833	0,5	0,010150
1,500167	0,5	0,006400
1,508500	0,5	-0,001000
1,516833	0,5	0,005600
1,525167	0,5	0,025050
1,533500	0,5	0,017500
1,541833	0,5	-0,000200
1,550167	0,5	-0,014650
1,558500	0,5	-0,096350
1,566833	0,5	-0,338650
1,575167	0,5	-0,860500
1,583500	0,5	-1,386150
1,591833	0,5	-1,443900
1,600167	0,5	-0,719600
1,608500	0,5	0,780850
1,616833	0,5	3,048350
1,625167	0,5	5,701700
1,633500	0,5	7,745150
1,641833	0,5	8,353250
1,650167	0,5	7,691550
1,658500	0,5	6,521050
1,666833	0,5	5,477300
1,675167	0,5	4,822150
1,683500	0,5	4,517000
1,691833	0,5	4,542150
1,700167	0,5	4,857200
1,708500	0,5	5,321950
1,716833	0,5	5,552850
1,725167	0,5	5,368950
1,733500	0,5	4,913500
1,741833	0,5	4,506200
1,750167	0,5	4,343100
1,758500	0,5	4,552450
1,766833	0,5	5,042250
1,775167	0,5	5,577700
1,783500	0,5	5,881250
1,791833	0,5	5,904450
1,800167	0,5	5,705950
1,808500	0,5	5,404050
1,816833	0,5	5,059700
1,825167	0,5	4,713250
1,833500	0,5	4,370950
1,841833	0,5	4,062550
1,850167	0,5	3,810950
1,858500	0,5	3,633150
1,866833	0,5	3,549650
1,875167	0,5	3,522000
1,883500	0,5	3,481000
1,891833	0,5	3,375750
1,900167	0,5	3,305950
1,908500	0,5	3,429250
1,916833	0,5	4,078300
1,925167	0,5	5,694350
1,933500	0,5	8,556600
1,941833	0,5	11,899150
1,950167	0,5	13,967900
1,958500	0,5	13,792850
1,966833	0,5	12,045750
1,975167	0,5	9,819000
1,983500	0,5	7,808950
1,991833	0,5	6,312000
2,000167	0,5	5,378950
2,008500	0,5	4,869900
2,016833	0,5	4,684450
2,025167	0,5	4,744200
2,033500	0,5	5,036750
2,041833	0,5	5,421350
2,050167	0,5	5,600750
2,058500	0,5	5,493150
2,066833	0,5	5,242300
2,075167	0,5	4,916700
2,083500	0,5	4,531600
2,091833	0,5	4,171400
2,100167	0,5	3,875100
2,108500	0,5	3,672150
2,116833	0,5	3,521250
2,125167	0,5	3,426800
2,133500	0,5	3,375650
2,141833	0,5	3,396650
2,150167	0,5	3,454250
2,158500	0,5	3,507550
2,166833	0,5	3,493200
2,175167	0,5	3,428700
2,183500	0,5	3,365950
2,191833	0,5	3,329850
2,200167	0,5	3,335800
2,208500	0,5	3,366750
2,216833	0,5	3,450350
2,225167	0,5	3,530050
2,233500	0,5	3,636050
2,241833	0,5	3,771500
2,250167	0,5	3,958150
2,258500	0,5	4,220750
2,266833	0,5	4,513900
2,275167	0,5	4,748500
2,283500	0,5	4,849000
2,291833	0,5	4,772400
2,300167	0,5	4,644650
2,308500	0,5	4,579350
2,316833	0,5	4,608650
2,325167	0,5	4,676000
2,333500	0,5	4,756950
2,341833	0,5	4,835650
2,350167	0,5	4,937800
2,358500	0,5	5,108800
2,366833	0,5	5,422850
2,375167	0,5	5,924850
2,383500	0,5	6,833750
2,391833	0,5	8,304700
2,400167	0,5	10,196000
2,408500	0,5	11,945600
2,416833	0,5	12,879900
2,425167	0,5	12,891250
2,433500	0,5	12,325850
2,441833	0,5	11,776550
2,450167	0,5	11,671400
2,458500	0,5	12,333150
2,466833	0,5	14,107450
2,475167	0,5	17,893700
2,483500	0,5	25,512950
2,491833	0,5	39,452101
2,500167	0,5	60,254401
2,508500	0,5	83,135851
2,516833	0,5	98,678251
2,525167	0,5	99,939451
2,533500	0,5	88,121151
2,541833	0,5	70,164751
2,550167	0,5	52,905101
2,558500	0,5	39,881151
2,566833	0,5	31,533300
2,575167	0,5	26,772350
2,583500	0,5	24,030800
2,591833	0,5	21,902000
2,600167	0,5	19,637850
2,608500	0,5	17,166850
2,616833	0,5	14,800350
2,625167	0,5	12,813000
2,633500	0,5	11,294850
2,641833	0,5	10,175900
2,650167	0,5	9,368300
2,658500	0,5	8,774300
2,666833	0,5	8,335450
2,675167	0,5	7,980450
2,683500	0,5	7,708700
2,691833	0,5	7,482250
2,700167	0,5	7,293550
2,708500	0,5	7,146650
2,716833	0,5	7,044750
2,725167	0,5	7,013700
2,733500	0,5	7,039500
2,741833	0,5	7,059850
2,750167	0,5	7,011850
2,758500	0,5	6,852250
2,766833	0,5	6,583650
2,775167	0,5	6,280500
2,783500	0,5	5,989050
2,791833	0,5	5,747750
2,800167	0,5	5,565700
2,808500	0,5	5,463900
2,816833	0,5	5,415400
2,825167	0,5	5,471600
2,833500	0,5	5,684850
2,841833	0,5	6,088750
2,850167	0,5	6,624300
2,858500	0,5	7,113850
2,866833	0,5	7,336750
2,875167	0,5	7,199450
2,883500	0,5	6,731300
2,891833	0,5	6,114450
2,900167	0,5	5,501550
2,908500	0,5	4,999050
2,916833	0,5	4,617250
2,925167	0,5	4,329550
2,933500	0,5	4,107250
2,941833	0,5	3,907200
2,950167	0,5	3,745700
2,958500	0,5	3,600900
2,966833	0,5	3,457000
2,975167	0,5	3,325900
2,983500	0,5	3,217350
2,991833	0,5	3,121400
3,000167	0,5	3,040750
3,008500	0,5	2,949150
3,016833	0,5	2,868550
3,025167	0,5	2,778200
3,033500	0,5	2,702450
3,041833	0,5	2,624650
3,050167	0,5	2,561850
3,058500	0,5	2,492400
3,066833	0,5	2,425200
3,075167	0,5	2,364950
3,083500	0,5	2,290750
3,091833	0,5	2,214450
3,100167	0,5	2,151050
3,108500	0,5	2,080400
3,116833	0,5	2,006550
3,125167	0,5	1,943500
3,133500	0,5	1,896700
3,141833	0,5	1,866100
3,150167	0,5	1,821150
3,158500	0,5	1,779850
3,166833	0,5	1,737800
3,175167	0,5	1,714050
3,183500	0,5	1,688700
3,191833	0,5	1,685800
3,200167	0,5	1,698950
3,208500	0,5	1,753100
3,216833	0,5	1,871850
3,225167	0,5	2,091050
3,233500	0,5	2,451900
3,241833	0,5	2,935500
3,250167	0,5	3,535750
3,258500	0,5	4,084600
3,266833	0,5	4,460650
3,275167	0,5	4,557000
3,283500	0,5	4,329300
3,291833	0,5	3,864000
3,300167	0,5	3,264650
3,308500	0,5	2,663500
3,316833	0,5	2,164650
3,325167	0,5	1,777800
3,333500	0,5	1,504750
3,341833	0,5	1,311600
3,350167	0,5	1,181000
3,358500	0,5	1,083350
3,366833	0,5	1,015300
3,375167	0,5	0,965000
3,383500	0,5	0,922350
3,391833	0,5	0,879950
3,400167	0,5	0,873250
3,408500	0,5	0,830450
3,416833	0,5	0,806150
3,425167	0,5	0,780400
3,433500	0,5	0,762350
3,441833	0,5	0,746150
3,450167	0,5	0,712050
3,458500	0,5	0,685450
3,466833	0,5	0,653700
3,475167	0,5	0,635450
3,483500	0,5	0,610950
3,491833	0,5	0,599700
3,500167	0,5	0,589100
3,508500	0,5	0,595050
3,516833	0,5	0,603800
3,525167	0,5	0,627650
3,533500	0,5	0,642650
3,541833	0,5	0,682550
3,550167	0,5	0,744550
3,558500	0,5	0,825550
3,566833	0,5	0,958100
3,575167	0,5	1,160900
3,583500	0,5	1,446450
3,591833	0,5	1,828950
3,600167	0,5	2,287250
3,608500	0,5	2,844350
3,616833	0,5	3,502250
3,625167	0,5	4,311600
3,633500	0,5	5,349500
3,641833	0,5	6,775550
3,650167	0,5	8,752600
3,658500	0,5	11,391000
3,666833	0,5	14,641250
3,675167	0,5	18,190150
3,683500	0,5	21,529400
3,691833	0,5	24,048750
3,700167	0,5	25,237550
3,708500	0,5	24,851050
3,716833	0,5	23,047650
3,725167	0,5	20,196750
3,733500	0,5	16,834350
3,741833	0,5	13,437650
3,750167	0,5	10,363850
3,758500	0,5	7,819050
3,766833	0,5	5,859250
3,775167	0,5	4,428850
3,783500	0,5	3,431950
3,791833	0,5	2,753400
3,800167	0,5	2,297150
3,808500	0,5	1,994100
3,816833	0,5	1,795600
3,825167	0,5	1,672500
3,833500	0,5	1,599650
3,841833	0,5	1,603050
3,850167	0,5	1,646950
3,858500	0,5	1,745550
3,866833	0,5	1,896150
3,875167	0,5	2,077150
3,883500	0,5	2,241400
3,891833	0,5	2,363350
3,900167	0,5	2,387550
3,908500	0,5	2,336450
3,916833	0,5	2,183150
3,925167	0,5	1,966550
3,933500	0,5	1,707200
3,941833	0,5	1,448850
3,950167	0,5	1,206850
3,958500	0,5	1,004250
3,966833	0,5	0,835600
3,975167	0,5	0,698650
3,983500	0,5	0,596400
3,991833	0,5	0,521700
4,000167	0,5	0,447900
4,008500	0,5	0,393500
4,016833	0,5	0,354750
4,025167	0,5	0,325650
4,033500	0,5	0,306700
4,041833	0,5	0,282450
4,050167	0,5	0,267150
4,058500	0,5	0,247450
4,066833	0,5	0,240700
4,075167	0,5	0,230300
4,083500	0,5	0,225400
4,091833	0,5	0,220400
4,100167	0,5	0,219750
4,108500	0,5	0,218850
4,116833	0,5	0,208350
4,125167	0,5	0,199000
4,133500	0,5	0,204550
4,141833	0,5	0,200200
4,150167	0,5	0,191600
4,158500	0,5	0,184200
4,166833	0,5	0,188300
4,175167	0,5	0,198450
4,183500	0,5	0,201100
4,191833	0,5	0,205000
4,200167	0,5	0,206550
4,208500	0,5	0,211700
4,216833	0,5	0,205800
4,225167	0,5	0,207900
4,233500	0,5	0,206000
4,241833	0,5	0,210600
4,250167	0,5	0,213800
4,258500	0,5	0,232000
4,266833	0,5	0,247350
4,275167	0,5	0,268050
4,283500	0,5	0,305800
4,291833	0,5	0,328300
4,300167	0,5	0,359250
4,308500	0,5	0,399550
4,316833	0,5	0,439200
4,325167	0,5	0,498500
4,333500	0,5	0,542950
4,341833	0,5	0,592800
4,350167	0,5	0,661300
4,358500	0,5	0,749900
4,366833	0,5	0,868600
4,375167	0,5	1,044200
4,383500	0,5	1,296050
4,391833	0,5	1,650550
4,400167	0,5	2,131750
4,408500	0,5	2,725100
4,416833	0,5	3,421700
4,425167	0,5	4,144300
4,433500	0,5	4,858200
4,441833	0,5	5,400800
4,450167	0,5	5,749600
4,458500	0,5	5,843300
4,466833	0,5	5,682600
4,475167	0,5	5,311100
4,483500	0,5	4,766650
4,491833	0,5	4,145050
4,500167	0,5	3,519600
4,508500	0,5	2,931050
4,516833	0,5	2,416850
4,525167	0,5	1,983950
4,533500	0,5	1,634600
4,541833	0,5	1,365050
4,550167	0,5	1,161150
4,558500	0,5	1,010400
4,566833	0,5	0,884300
4,575167	0,5	0,798900
4,583500	0,5	0,738750
4,591833	0,5	0,681700
4,600167	0,5	0,640800
4,608500	0,5	0,616500
4,616833	0,5	0,607900
4,625167	0,5	0,615100
4,633500	0,5	0,608450
4,641833	0,5	0,614550
4,650167	0,5	0,613300
4,658500	0,5	0,615950
4,666833	0,5	0,604800
4,675167	0,5	0,595000
4,683500	0,5	0,572050
4,691833	0,5	0,548200
4,700167	0,5	0,511700
4,708500	0,5	0,467150
4,716833	0,5	0,423600
4,725167	0,5	0,391350
4,733500	0,5	0,354400
4,741833	0,5	0,317150
4,750167	0,5	0,291150
4,758500	0,5	0,274700
4,766833	0,5	0,267800
4,775167	0,5	0,262000
4,783500	0,5	0,260500
4,791833	0,5	0,247750
4,800167	0,5	0,248750
4,808500	0,5	0,239900
4,816833	0,5	0,239500
4,825167	0,5	0,237700
4,833500	0,5	0,236050
4,841833	0,5	0,231800
4,850167	0,5	0,231900
4,858500	0,5	0,222750
4,866833	0,5	0,218350
4,875167	0,5	0,217650
4,883500	0,5	0,211350
4,891833	0,5	0,193000
4,900167	0,5	0,186950
4,908500	0,5	0,183800
4,916833	0,5	0,183950
4,925167	0,5	0,187350
4,933500	0,5	0,179700
4,941833	0,5	0,177850
4,950167	0,5	0,172750
4,958500	0,5	0,169650
4,966833	0,5	0,169050
4,975167	0,5	0,168400
4,983500	0,5	0,170400
4,991833	0,5	0,175250
5,000167	0,5	0,177050
5,008500	0,5	0,178550
5,016833	0,5	0,185700
5,025167	0,5	0,195250
5,033500	0,5	0,195800
5,041833	0,5	0,206450
5,050167	0,5	0,229550
5,058500	0,5	0,261700
5,066833	0,5	0,303450
5,075167	0,5	0,342350
5,083500	0,5	0,379550
5,091833	0,5	0,418050
5,100167	0,5	0,448450
5,108500	0,5	0,467600
5,116833	0,5	0,488150
5,125167	0,5	0,487050
5,133500	0,5	0,489050
5,141833	0,5	0,479000
5,150167	0,5	0,476350
5,158500	0,5	0,455700
5,166833	0,5	0,460050
5,175167	0,5	0,449150
5,183500	0,5	0,435850
5,191833	0,5	0,420000
5,200167	0,5	0,402100
5,208500	0,5	0,386950
5,216833	0,5	0,365500
5,225167	0,5	0,338500
5,233500	0,5	0,321100
5,241833	0,5	0,295800
5,250167	0,5	0,276500
5,258500	0,5	0,253950
5,266833	0,5	0,238950
5,275167	0,5	0,223850
5,283500	0,5	0,204500
5,291833	0,5	0,194400
5,300167	0,5	0,175700
5,308500	0,5	0,164300
5,316833	0,5	0,163650
5,325167	0,5	0,160850
5,333500	0,5	0,153850
5,341833	0,5	0,155150
5,350167	0,5	0,159100
5,358500	0,5	0,176000
5,366833	0,5	0,179200
5,375167	0,5	0,184650
5,383500	0,5	0,183250
5,391833	0,5	0,187300
5,400167	0,5	0,179500
5,408500	0,5	0,176600
5,416833	0,5	0,166550
5,425167	0,5	0,155850
5,433500	0,5	0,152200
5,441833	0,5	0,144550
5,450167	0,5	0,137950
5,458500	0,5	0,126600
5,466833	0,5	0,130900
5,475167	0,5	0,114350
5,483500	0,5	0,109500
5,491833	0,5	0,102000
5,500167	0,5	0,103700
5,508500	0,5	0,110500
5,516833	0,5	0,101300
5,525167	0,5	0,094300
5,533500	0,5	0,093050
5,541833	0,5	0,088400
5,550167	0,5	0,087650
5,558500	0,5	0,087400
5,566833	0,5	0,085450
5,575167	0,5	0,084300
5,583500	0,5	0,085400
5,591833	0,5	0,084550
5,600167	0,5	0,086050
5,608500	0,5	0,085700
5,616833	0,5	0,103800
5,625167	0,5	0,094550
5,633500	0,5	0,104350
5,641833	0,5	0,121200
5,650167	0,5	0,141650
5,658500	0,5	0,179500
5,666833	0,5	0,202400
5,675167	0,5	0,230000
5,683500	0,5	0,250650
5,691833	0,5	0,272850
5,700167	0,5	0,280250
5,708500	0,5	0,281600
5,716833	0,5	0,274300
5,725167	0,5	0,256850
5,733500	0,5	0,241650
5,741833	0,5	0,217350
5,750167	0,5	0,202650
5,758500	0,5	0,199800
5,766833	0,5	0,196900
5,775167	0,5	0,194300
5,783500	0,5	0,203050
5,791833	0,5	0,222650
5,800167	0,5	0,254450
5,808500	0,5	0,297050
5,816833	0,5	0,353700
5,825167	0,5	0,434650
5,833500	0,5	0,558950
5,841833	0,5	0,725400
5,850167	0,5	0,937550
5,858500	0,5	1,176650
5,866833	0,5	1,430250
5,875167	0,5	1,654200
5,883500	0,5	1,824950
5,891833	0,5	1,903500
5,900167	0,5	1,888750
5,908500	0,5	1,788200
5,916833	0,5	1,605550
5,925167	0,5	1,379000
5,933500	0,5	1,150150
5,941833	0,5	0,936850
5,950167	0,5	0,767150
5,958500	0,5	0,639450
5,966833	0,5	0,555500
5,975167	0,5	0,518050
5,983500	0,5	0,529100
5,991833	0,5	0,581200
6,000167	0,5	0,674600
6,008500	0,5	0,789350
6,016833	0,5	0,925800
6,025167	0,5	1,058750
6,033500	0,5	1,167350
6,041833	0,5	1,257900
6,050167	0,5	1,322200
6,058500	0,5	1,368500
6,066833	0,5	1,388450
6,075167	0,5	1,408650
6,083500	0,5	1,433800
6,091833	0,5	1,460800
6,100167	0,5	1,467050
6,108500	0,5	1,445750
6,116833	0,5	1,384600
6,125167	0,5	1,285500
6,133500	0,5	1,152400
6,141833	0,5	1,002000
6,150167	0,5	0,848000
6,158500	0,5	0,705350
6,166833	0,5	0,571150
6,175167	0,5	0,460050
6,183500	0,5	0,369150
6,191833	0,5	0,296500
6,200167	0,5	0,247250
6,208500	0,5	0,208050
6,216833	0,5	0,174000
6,225167	0,5	0,145800
6,233500	0,5	0,127650
6,241833	0,5	0,120750
6,250167	0,5	0,111800
6,258500	0,5	0,098600
6,266833	0,5	0,092350
6,275167	0,5	0,083900
6,283500	0,5	0,084150
6,291833	0,5	0,077100
6,300167	0,5	0,075250
6,308500	0,5	0,070150
6,316833	0,5	0,071050
6,325167	0,5	0,072850
6,333500	0,5	0,067850
6,341833	0,5	0,069550
6,350167	0,5	0,082350
6,358500	0,5	0,084000
6,366833	0,5	0,093450
6,375167	0,5	0,109000
6,383500	0,5	0,130000
6,391833	0,5	0,167500
6,400167	0,5	0,205500
6,408500	0,5	0,253200
6,416833	0,5	0,298550
6,425167	0,5	0,354600
6,433500	0,5	0,395400
6,441833	0,5	0,428750
6,450167	0,5	0,447900
6,458500	0,5	0,448450
6,466833	0,5	0,435950
6,475167	0,5	0,410400
6,483500	0,5	0,377000
6,491833	0,5	0,347250
6,500167	0,5	0,330250
6,508500	0,5	0,307400
6,516833	0,5	0,300200
6,525167	0,5	0,302900
6,533500	0,5	0,317650
6,541833	0,5	0,346550
6,550167	0,5	0,373400
6,558500	0,5	0,396200
6,566833	0,5	0,434200
6,575167	0,5	0,470150
6,583500	0,5	0,511750
6,591833	0,5	0,549800
6,600167	0,5	0,597200
6,608500	0,5	0,642750
6,616833	0,5	0,699800
6,625167	0,5	0,760000
6,633500	0,5	0,826850
6,641833	0,5	0,903600
6,650167	0,5	0,990100
6,658500	0,5	1,077950
6,666833	0,5	1,188150
6,675167	0,5	1,317650
6,683500	0,5	1,474650
6,691833	0,5	1,652450
6,700167	0,5	1,854650
6,708500	0,5	2,096200
6,716833	0,5	2,389650
6,725167	0,5	2,779600
6,733500	0,5	3,317100
6,741833	0,5	4,097100
6,750167	0,5	5,244100
6,758500	0,5	6,919850
6,766833	0,5	9,289050
6,775167	0,5	12,464950
6,783500	0,5	16,431850
6,791833	0,5	21,016700
6,800167	0,5	25,779100
6,808500	0,5	30,166300
6,816833	0,5	33,599701
6,825167	0,5	35,587051
6,833500	0,5	35,864701
6,841833	0,5	34,427101
6,850167	0,5	31,529000
6,858500	0,5	27,622100
6,866833	0,5	23,227350
6,875167	0,5	18,826800
6,883500	0,5	14,801050
6,891833	0,5	11,360300
6,900167	0,5	8,593550
6,908500	0,5	6,471350
6,916833	0,5	4,915000
6,925167	0,5	3,799550
6,933500	0,5	3,017050
6,941833	0,5	2,472400
6,950167	0,5	2,074600
6,958500	0,5	1,779200
6,966833	0,5	1,557350
6,975167	0,5	1,387100
6,983500	0,5	1,253700
6,991833	0,5	1,136900
7,000167	0,5	1,038750
7,008500	0,5	0,951400
7,016833	0,5	0,880350
7,025167	0,5	0,819200
7,033500	0,5	0,769150
7,041833	0,5	0,721150
7,050167	0,5	0,686450
7,058500	0,5	0,659450
7,066833	0,5	0,628200
7,075167	0,5	0,606750
7,083500	0,5	0,593900
7,091833	0,5	0,584800
7,100167	0,5	0,572600
7,108500	0,5	0,573900
7,116833	0,5	0,578100
7,125167	0,5	0,596050
7,133500	0,5	0,624550
7,141833	0,5	0,653850
7,150167	0,5	0,681050
7,158500	0,5	0,708000
7,166833	0,5	0,736950
7,175167	0,5	0,759350
7,183500	0,5	0,770700
7,191833	0,5	0,784900
7,200167	0,5	0,804400
7,208500	0,5	0,827100
7,216833	0,5	0,862550
7,225167	0,5	0,889000
7,233500	0,5	0,916200
7,241833	0,5	0,918550
7,250167	0,5	0,893400
7,258500	0,5	0,847450
7,266833	0,5	0,783650
7,275167	0,5	0,713950
7,283500	0,5	0,640650
7,291833	0,5	0,568100
7,300167	0,5	0,508750
7,308500	0,5	0,460250
7,316833	0,5	0,423050
7,325167	0,5	0,393450
7,333500	0,5	0,380050
7,341833	0,5	0,364750
7,350167	0,5	0,358250
7,358500	0,5	0,359400
7,366833	0,5	0,365650
7,375167	0,5	0,378050
7,383500	0,5	0,409100
7,391833	0,5	0,435900
7,400167	0,5	0,473800
7,408500	0,5	0,515600
7,416833	0,5	0,563500
7,425167	0,5	0,609400
7,433500	0,5	0,642050
7,441833	0,5	0,665850
7,450167	0,5	0,693000
7,458500	0,5	0,731950
7,466833	0,5	0,775200
7,475167	0,5	0,834050
7,483500	0,5	0,891750
7,491833	0,5	0,937600
7,500167	0,5	0,959300
7,508500	0,5	0,969750
7,516833	0,5	0,963750
7,525167	0,5	0,958800
7,533500	0,5	0,947600
7,541833	0,5	0,909100
7,550167	0,5	0,851700
7,558500	0,5	0,775050
7,566833	0,5	0,694350
7,575167	0,5	0,627050
7,583500	0,5	0,572500
7,591833	0,5	0,534950
7,600167	0,5	0,522900
7,608500	0,5	0,530400
7,616833	0,5	0,555000
7,625167	0,5	0,588450
7,633500	0,5	0,627700
7,641833	0,5	0,662500
7,650167	0,5	0,704800
7,658500	0,5	0,749100
7,666833	0,5	0,801500
7,675167	0,5	0,851550
7,683500	0,5	0,896150
7,691833	0,5	0,916000
7,700167	0,5	0,913500
7,708500	0,5	0,886850
7,716833	0,5	0,846550
7,725167	0,5	0,798750
7,733500	0,5	0,759500
7,741833	0,5	0,737400
7,750167	0,5	0,736200
7,758500	0,5	0,756050
7,766833	0,5	0,786150
7,775167	0,5	0,808400
7,783500	0,5	0,811800
7,791833	0,5	0,799900
7,800167	0,5	0,765300
7,808500	0,5	0,722300
7,816833	0,5	0,682600
7,825167	0,5	0,653200
7,833500	0,5	0,634850
7,841833	0,5	0,623500
7,850167	0,5	0,630350
7,858500	0,5	0,639750
7,866833	0,5	0,651550
7,875167	0,5	0,658200
7,883500	0,5	0,657600
7,891833	0,5	0,655450
7,900167	0,5	0,651550
7,908500	0,5	0,660000
7,916833	0,5	0,686600
7,925167	0,5	0,745400
7,933500	0,5	0,849650
7,941833	0,5	1,003250
7,950167	0,5	1,201700
7,958500	0,5	1,426600
7,966833	0,5	1,644650
7,975167	0,5	1,819900
7,983500	0,5	1,911300
7,991833	0,5	1,906000
8,000167	0,5	1,811450
8,008500	0,5	1,659900
8,016833	0,5	1,480050
8,025167	0,5	1,295000
8,033500	0,5	1,131350
8,041833	0,5	0,993550
8,050167	0,5	0,890900
8,058500	0,5	0,816350
8,066833	0,5	0,762200
8,075167	0,5	0,731350
8,083500	0,5	0,711300
8,091833	0,5	0,710450
8,100167	0,5	0,727100
8,108500	0,5	0,764650
8,116833	0,5	0,819600
8,125167	0,5	0,900500
8,133500	0,5	0,979700
8,141833	0,5	1,044950
8,150167	0,5	1,084600
8,158500	0,5	1,083150
8,166833	0,5	1,056300
8,175167	0,5	1,008300
8,183500	0,5	0,954400
8,191833	0,5	0,916050
8,200167	0,5	0,889550
8,208500	0,5	0,872250
8,216833	0,5	0,865000
8,225167	0,5	0,862600
8,233500	0,5	0,867000
8,241833	0,5	0,870950
8,250167	0,5	0,876300
8,258500	0,5	0,881550
8,266833	0,5	0,884900
8,275167	0,5	0,883150
8,283500	0,5	0,872350
8,291833	0,5	0,866450
8,300167	0,5	0,865050
8,308500	0,5	0,881100
8,316833	0,5	0,912750
8,325167	0,5	0,958700
8,333500	0,5	1,008450
8,341833	0,5	1,071450
8,350167	0,5	1,117600
8,358500	0,5	1,153550
8,366833	0,5	1,178150
8,375167	0,5	1,206300
8,383500	0,5	1,257550
8,391833	0,5	1,362750
8,400167	0,5	1,541850
8,408500	0,5	1,822300
8,416833	0,5	2,207250
8,425167	0,5	2,688800
8,433500	0,5	3,258650
8,441833	0,5	3,892450
8,450167	0,5	4,604000
8,458500	0,5	5,430550
8,466833	0,5	6,495100
8,475167	0,5	8,042150
8,483500	0,5	10,553800
8,491833	0,5	14,760800
8,500167	0,5	21,504100
8,508500	0,5	31,276800
8,516833	0,5	43,677801
8,525167	0,5	57,111251
8,533500	0,5	69,149651
8,541833	0,5	77,413551
8,550167	0,5	80,303451
8,558500	0,5	77,586901
8,566833	0,5	70,126551
8,575167	0,5	59,518751
8,583500	0,5	47,697301
8,591833	0,5	36,358701
8,600167	0,5	26,605050
8,608500	0,5	18,955700
8,616833	0,5	13,389700
8,625167	0,5	9,578350
8,633500	0,5	7,087550
8,641833	0,5	5,505200
8,650167	0,5	4,503100
8,658500	0,5	3,859550
8,666833	0,5	3,429800
8,675167	0,5	3,128050
8,683500	0,5	2,901850
8,691833	0,5	2,724400
8,700167	0,5	2,577200
8,708500	0,5	2,461900
8,716833	0,5	2,368000
8,725167	0,5	2,291900
8,733500	0,5	2,232150
8,741833	0,5	2,169750
8,750167	0,5	2,116300
8,758500	0,5	2,061150
8,766833	0,5	2,010900
8,775167	0,5	1,970750
8,783500	0,5	1,949850
8,791833	0,5	1,956050
8,800167	0,5	1,991150
8,808500	0,5	2,038750
8,816833	0,5	2,092350
8,825167	0,5	2,134900
8,833500	0,5	2,156000
8,841833	0,5	2,151550
8,850167	0,5	2,116400
8,858500	0,5	2,060200
8,866833	0,5	1,986000
8,875167	0,5	1,897050
8,883500	0,5	1,804650
8,891833	0,5	1,713550
8,900167	0,5	1,631950
8,908500	0,5	1,558250
8,916833	0,5	1,490000
8,925167	0,5	1,428500
8,933500	0,5	1,376000
8,941833	0,5	1,339200
8,950167	0,5	1,311850
8,958500	0,5	1,297400
8,966833	0,5	1,282150
8,975167	0,5	1,269950
8,983500	0,5	1,252500
8,991833	0,5	1,227850
9,000167	0,5	1,199550
9,008500	0,5	1,173200
9,016833	0,5	1,150050
9,025167	0,5	1,129700
9,033500	0,5	1,113300
9,041833	0,5	1,101050
9,050167	0,5	1,090950
9,058500	0,5	1,083400
9,066833	0,5	1,077550
9,075167	0,5	1,074400
9,083500	0,5	1,073650
9,091833	0,5	1,082050
9,100167	0,5	1,096550
9,108500	0,5	1,119150
9,116833	0,5	1,140250
9,125167	0,5	1,162550
9,133500	0,5	1,167850
9,141833	0,5	1,174100
9,150167	0,5	1,174000
9,158500	0,5	1,180150
9,166833	0,5	1,194300
9,175167	0,5	1,218300
9,183500	0,5	1,245950
9,191833	0,5	1,270300
9,200167	0,5	1,290650
9,208500	0,5	1,294050
9,216833	0,5	1,283950
9,225167	0,5	1,268600
9,233500	0,5	1,244800
9,241833	0,5	1,220350
9,250167	0,5	1,196800
9,258500	0,5	1,167350
9,266833	0,5	1,146400
9,275167	0,5	1,120450
9,283500	0,5	1,096750
9,291833	0,5	1,074600
9,300167	0,5	1,053200
9,308500	0,5	1,038900
9,316833	0,5	1,027300
9,325167	0,5	1,011500
9,333500	0,5	1,002850
9,341833	0,5	0,991700
9,350167	0,5	0,990250
9,358500	0,5	0,989850
9,366833	0,5	0,992200
9,375167	0,5	0,996050
9,383500	0,5	1,012950
9,391833	0,5	1,025550
9,400167	0,5	1,043200
9,408500	0,5	1,067250
9,416833	0,5	1,083750
9,425167	0,5	1,100650
9,433500	0,5	1,108000
9,441833	0,5	1,112600
9,450167	0,5	1,115000
9,458500	0,5	1,121200
9,466833	0,5	1,121850
9,475167	0,5	1,126200
9,483500	0,5	1,129850
9,491833	0,5	1,134650
9,500167	0,5	1,144150
9,508500	0,5	1,150800
9,516833	0,5	1,157450
9,525167	0,5	1,163800
9,533500	0,5	1,165700
9,541833	0,5	1,162400
9,550167	0,5	1,155000
9,558500	0,5	1,145950
9,566833	0,5	1,128550
9,575167	0,5	1,115850
9,583500	0,5	1,103450
9,591833	0,5	1,098450
9,600167	0,5	1,107350
9,608500	0,5	1,133100
9,616833	0,5	1,168000
9,625167	0,5	1,215000
9,633500	0,5	1,276750
9,641833	0,5	1,362900
9,650167	0,5	1,496200
9,658500	0,5	1,690100
9,666833	0,5	1,988700
9,675167	0,5	2,414800
9,683500	0,5	2,976250
9,691833	0,5	3,673200
9,700167	0,5	4,478800
9,708500	0,5	5,377300
9,716833	0,5	6,384550
9,725167	0,5	7,578100
9,733500	0,5	9,179900
9,741833	0,5	11,660750
9,750167	0,5	15,868250
9,758500	0,5	23,004800
9,766833	0,5	34,286451
9,775167	0,5	50,136651
9,783500	0,5	69,425201
9,791833	0,5	89,253051
9,800167	0,5	105,848702
9,808500	0,5	115,936002
9,816833	0,5	117,904702
9,825167	0,5	111,968202
9,833500	0,5	99,914901
9,841833	0,5	84,259851
9,850167	0,5	67,527301
9,858500	0,5	51,731901
9,866833	0,5	38,141451
9,875167	0,5	27,309750
9,883500	0,5	19,224800
9,891833	0,5	13,514700
9,900167	0,5	9,674000
9,908500	0,5	7,165400
9,916833	0,5	5,568200
9,925167	0,5	4,558300
9,933500	0,5	3,909850
9,941833	0,5	3,489200
9,950167	0,5	3,203800
9,958500	0,5	3,004400
9,966833	0,5	2,849650
9,975167	0,5	2,718150
9,983500	0,5	2,604950
9,991833	0,5	2,489400
10,000167	0,5	2,379950
10,008500	0,5	2,273400
10,016833	0,5	2,169550
10,025167	0,5	2,076500
10,033500	0,5	1,990050
10,041833	0,5	1,917200
10,050167	0,5	1,854550
10,058500	0,5	1,790300
10,066833	0,5	1,736350
10,075167	0,5	1,687850
10,083500	0,5	1,642650
10,091833	0,5	1,599850
10,100167	0,5	1,562100
10,108500	0,5	1,526400
10,116833	0,5	1,489450
10,125167	0,5	1,462000
10,133500	0,5	1,440900
10,141833	0,5	1,426550
10,150167	0,5	1,420200
10,158500	0,5	1,409350
10,166833	0,5	1,394800
10,175167	0,5	1,380150
10,183500	0,5	1,350550
10,191833	0,5	1,326000
10,200167	0,5	1,298100
10,208500	0,5	1,270000
10,216833	0,5	1,245200
10,225167	0,5	1,221700
10,233500	0,5	1,202500
10,241833	0,5	1,176550
10,250167	0,5	1,158100
10,258500	0,5	1,139150
10,266833	0,5	1,123500
10,275167	0,5	1,126700
10,283500	0,5	1,147650
10,291833	0,5	1,203750
10,300167	0,5	1,291450
10,308500	0,5	1,399350
10,316833	0,5	1,515350
10,325167	0,5	1,614300
10,333500	0,5	1,668200
10,341833	0,5	1,670700
10,350167	0,5	1,625000
10,358500	0,5	1,544000
10,366833	0,5	1,464200
10,375167	0,5	1,392000
10,383500	0,5	1,352650
10,391833	0,5	1,343000
10,400167	0,5	1,354850
10,408500	0,5	1,388750
10,416833	0,5	1,438550
10,425167	0,5	1,496050
10,433500	0,5	1,561800
10,441833	0,5	1,628600
10,450167	0,5	1,687700
10,458500	0,5	1,724050
10,466833	0,5	1,737850
10,475167	0,5	1,722600
10,483500	0,5	1,672850
10,491833	0,5	1,611800
10,500167	0,5	1,540700
10,508500	0,5	1,466700
10,516833	0,5	1,399050
10,525167	0,5	1,340800
10,533500	0,5	1,292550
10,541833	0,5	1,246850
10,550167	0,5	1,195000
10,558500	0,5	1,144450
10,566833	0,5	1,091100
10,575167	0,5	1,040150
10,583500	0,5	0,992600
10,591833	0,5	0,953100
10,600167	0,5	0,921350
10,608500	0,5	0,896300
10,616833	0,5	0,874700
10,625167	0,5	0,854250
10,633500	0,5	0,835150
10,641833	0,5	0,823450
10,650167	0,5	0,812750
10,658500	0,5	0,813600
10,666833	0,5	0,830550
10,675167	0,5	0,866450
10,683500	0,5	0,942300
10,691833	0,5	1,049850
10,700167	0,5	1,201750
10,708500	0,5	1,382200
10,716833	0,5	1,585900
10,725167	0,5	1,784850
10,733500	0,5	1,973400
10,741833	0,5	2,159300
10,750167	0,5	2,381600
10,758500	0,5	2,727100
10,766833	0,5	3,328600
10,775167	0,5	4,367050
10,783500	0,5	6,038600
10,791833	0,5	8,436450
10,800167	0,5	11,460700
10,808500	0,5	14,775950
10,816833	0,5	17,819950
10,825167	0,5	19,981850
10,833500	0,5	20,812450
10,841833	0,5	20,177550
10,850167	0,5	18,279100
10,858500	0,5	15,547200
10,866833	0,5	12,503850
10,875167	0,5	9,590650
10,883500	0,5	7,098950
10,891833	0,5	5,155400
10,900167	0,5	3,739600
10,908500	0,5	2,767700
10,916833	0,5	2,120850
10,925167	0,5	1,700150
10,933500	0,5	1,432350
10,941833	0,5	1,257000
10,950167	0,5	1,140100
10,958500	0,5	1,060700
10,966833	0,5	1,010400
10,975167	0,5	0,974250
10,983500	0,5	0,956600
10,991833	0,5	0,942250
11,000167	0,5	0,935550
11,008500	0,5	0,937500
11,016833	0,5	0,950000
11,025167	0,5	0,975300
11,033500	0,5	1,029800
11,041833	0,5	1,108150
11,050167	0,5	1,208550
11,058500	0,5	1,315000
11,066833	0,5	1,402300
11,075167	0,5	1,447250
11,083500	0,5	1,442950
11,091833	0,5	1,381750
11,100167	0,5	1,279050
11,108500	0,5	1,157400
11,116833	0,5	1,044600
11,125167	0,5	0,955950
11,133500	0,5	0,886850
11,141833	0,5	0,848350
11,150167	0,5	0,825550
11,158500	0,5	0,809500
11,166833	0,5	0,796850
11,175167	0,5	0,784400
11,183500	0,5	0,764400
11,191833	0,5	0,743250
11,200167	0,5	0,721250
11,208500	0,5	0,704050
11,216833	0,5	0,683400
11,225167	0,5	0,682500
11,233500	0,5	0,681800
11,241833	0,5	0,692100
11,250167	0,5	0,704700
11,258500	0,5	0,718800
11,266833	0,5	0,735250
11,275167	0,5	0,745200
11,283500	0,5	0,748500
11,291833	0,5	0,743550
11,300167	0,5	0,727000
11,308500	0,5	0,708850
11,316833	0,5	0,693800
11,325167	0,5	0,688050
11,333500	0,5	0,691550
11,341833	0,5	0,709300
11,350167	0,5	0,740100
11,358500	0,5	0,769950
11,366833	0,5	0,784800
11,375167	0,5	0,789200
11,383500	0,5	0,774500
11,391833	0,5	0,748550
11,400167	0,5	0,725850
11,408500	0,5	0,710300
11,416833	0,5	0,729300
11,425167	0,5	0,768450
11,433500	0,5	0,828650
11,441833	0,5	0,907500
11,450167	0,5	1,008150
11,458500	0,5	1,118450
11,466833	0,5	1,250800
11,475167	0,5	1,407150
11,483500	0,5	1,615150
11,491833	0,5	1,920900
11,500167	0,5	2,385500
11,508500	0,5	3,103200
11,516833	0,5	4,175350
11,525167	0,5	5,659550
11,533500	0,5	7,499300
11,541833	0,5	9,498950
11,550167	0,5	11,326200
11,558500	0,5	12,612150
11,566833	0,5	13,071250
11,575167	0,5	12,619800
11,583500	0,5	11,381700
11,591833	0,5	9,646950
11,600167	0,5	7,738400
11,608500	0,5	5,955100
11,616833	0,5	4,462450
11,625167	0,5	3,321350
11,633500	0,5	2,500600
11,641833	0,5	1,931750
11,650167	0,5	1,545650
11,658500	0,5	1,276250
11,666833	0,5	1,089950
11,675167	0,5	0,954500
11,683500	0,5	0,856300
11,691833	0,5	0,780950
11,700167	0,5	0,730100
11,708500	0,5	0,693200
11,716833	0,5	0,676000
11,725167	0,5	0,657650
11,733500	0,5	0,647550
11,741833	0,5	0,636700
11,750167	0,5	0,630200
11,758500	0,5	0,620350
11,766833	0,5	0,603350
11,775167	0,5	0,591400
11,783500	0,5	0,577000
11,791833	0,5	0,569750
11,800167	0,5	0,568100
11,808500	0,5	0,565400
11,816833	0,5	0,575800
11,825167	0,5	0,589150
11,833500	0,5	0,598750
11,841833	0,5	0,608600
11,850167	0,5	0,607600
11,858500	0,5	0,606350
11,866833	0,5	0,591950
11,875167	0,5	0,577050
11,883500	0,5	0,555600
11,891833	0,5	0,533950
11,900167	0,5	0,513200
11,908500	0,5	0,500900
11,916833	0,5	0,488200
11,925167	0,5	0,475100
11,933500	0,5	0,468500
11,941833	0,5	0,468150
11,950167	0,5	0,462650
11,958500	0,5	0,469200
11,966833	0,5	0,477850
11,975167	0,5	0,487750
11,983500	0,5	0,493100
11,991833	0,5	0,496550
12,000167	0,5	0,499900
12,008500	0,5	0,499200
12,016833	0,5	0,498900
12,025167	0,5	0,490650
12,033500	0,5	0,488900
12,041833	0,5	0,481850
12,050167	0,5	0,484000
12,058500	0,5	0,496300
12,066833	0,5	0,512850
12,075167	0,5	0,537500
12,083500	0,5	0,569350
12,091833	0,5	0,613100
12,100167	0,5	0,673650
12,108500	0,5	0,761850
12,116833	0,5	0,877250
12,125167	0,5	1,016650
12,133500	0,5	1,186950
12,141833	0,5	1,360700
12,150167	0,5	1,523850
12,158500	0,5	1,627100
12,166833	0,5	1,640850
12,175167	0,5	1,582700
12,183500	0,5	1,440950
12,191833	0,5	1,205850
12,200167	0,5	0,883900
12,208500	0,5	0,555400
12,216833	0,5	0,287450
12,225167	0,5	0,092350
12,233500	0,5	-0,039000
12,241833	0,5	-0,117850
12,250167	0,5	-0,180350
12,258500	0,5	-0,205800
12,266833	0,5	-0,233000
12,275167	0,5	-0,253700
12,283500	0,5	-0,263950
12,291833	0,5	-0,280350
12,300167	0,5	-0,281650
12,308500	0,5	-0,287200
12,316833	0,5	-0,288350
12,325167	0,5	-0,289500
12,333500	0,5	-0,288350
12,341833	0,5	-0,290550
12,350167	0,5	-0,289700
12,358500	0,5	-0,291550
12,366833	0,5	-0,291550
12,375167	0,5	-0,291250
12,383500	0,5	-0,280350
12,391833	0,5	-0,280550
12,400167	0,5	-0,276650
12,408500	0,5	-0,266350
12,416833	0,5	-0,258600
12,425167	0,5	-0,254100
12,433500	0,5	-0,250800
12,441833	0,5	-0,247600
12,450167	0,5	-0,238600
12,458500	0,5	-0,232150
12,466833	0,5	-0,228350
12,475167	0,5	-0,224750
12,483500	0,5	-0,227500
12,491833	0,5	-0,223800
12,500167	0,5	-0,227250
12,508500	0,5	-0,226950
12,516833	0,5	-0,233550
12,525167	0,5	-0,233350
12,533500	0,5	-0,237700
12,541833	0,5	-0,239400
12,550167	0,5	-0,248200
12,558500	0,5	-0,249150
12,566833	0,5	-0,257450
12,575167	0,5	-0,260100
12,583500	0,5	-0,269800
12,591833	0,5	-0,276850
12,600167	0,5	-0,281100
12,608500	0,5	-0,280700
12,616833	0,5	-0,287850
12,625167	0,5	-0,289300
12,633500	0,5	-0,292950
12,641833	0,5	-0,293300
12,650167	0,5	-0,294500
12,658500	0,5	-0,299450
12,666833	0,5	-0,298450
12,675167	0,5	-0,301250
12,683500	0,5	-0,297300
12,691833	0,5	-0,298550
12,700167	0,5	-0,297200
12,708500	0,5	-0,293500
12,716833	0,5	-0,298400
12,725167	0,5	-0,298150
12,733500	0,5	-0,296650
12,741833	0,5	-0,290400
12,750167	0,5	-0,280600
12,758500	0,5	-0,277100
12,766833	0,5	-0,267550
12,775167	0,5	-0,257900
12,783500	0,5	-0,246100
12,791833	0,5	-0,237550
12,800167	0,5	-0,226700
12,808500	0,5	-0,220900
12,816833	0,5	-0,211450
12,825167	0,5	-0,198000
12,833500	0,5	-0,188600
12,841833	0,5	-0,184200
12,850167	0,5	-0,163250
12,858500	0,5	-0,160400
12,866833	0,5	-0,156550
12,875167	0,5	-0,152400
12,883500	0,5	-0,148800
12,891833	0,5	-0,139600
12,900167	0,5	-0,131200
12,908500	0,5	-0,117000
12,916833	0,5	-0,110300
12,925167	0,5	-0,097900
12,933500	0,5	-0,092600
12,941833	0,5	-0,076600
12,950167	0,5	-0,067900
12,958500	0,5	-0,062050
12,966833	0,5	-0,051200
12,975167	0,5	-0,042400
12,983500	0,5	-0,042850
12,991833	0,5	-0,029050
13,000167	0,5	-0,020200
13,008500	0,5	-0,006700
13,016833	0,5	0,004150
13,025167	0,5	0,008250
13,033500	0,5	0,018400
13,041833	0,5	0,026350
13,050167	0,5	0,032800
13,058500	0,5	0,033850
13,066833	0,5	0,042000
13,075167	0,5	0,046000
13,083500	0,5	0,055700
13,091833	0,5	0,063250
13,100167	0,5	0,075350
13,108500	0,5	0,085800
13,116833	0,5	0,102100
13,125167	0,5	0,114800
13,133500	0,5	0,119900
13,141833	0,5	0,132850
13,150167	0,5	0,142350
13,158500	0,5	0,139450
13,166833	0,5	0,144950
13,175167	0,5	0,140350
13,183500	0,5	0,142550
13,191833	0,5	0,146350
13,200167	0,5	0,145250
13,208500	0,5	0,144550
13,216833	0,5	0,140250
13,225167	0,5	0,139200
13,233500	0,5	0,133700
13,241833	0,5	0,131800
13,250167	0,5	0,125500
13,258500	0,5	0,118600
13,266833	0,5	0,112200
13,275167	0,5	0,115450
13,283500	0,5	0,105000
13,291833	0,5	0,122300
13,300167	0,5	0,140000
13,308500	0,5	0,165900
13,316833	0,5	0,201000
13,325167	0,5	0,243000
13,333500	0,5	0,303000
13,341833	0,5	0,354750
13,350167	0,5	0,385000
13,358500	0,5	0,398150
13,366833	0,5	0,390700
13,375167	0,5	0,362700
13,383500	0,5	0,323100
13,391833	0,5	0,274400
13,400167	0,5	0,233450
13,408500	0,5	0,195850
13,416833	0,5	0,173050
13,425167	0,5	0,153400
13,433500	0,5	0,142150
13,441833	0,5	0,144600
13,450167	0,5	0,138600
13,458500	0,5	0,131650
13,466833	0,5	0,127100
13,475167	0,5	0,128250
13,483500	0,5	0,140350
13,491833	0,5	0,153750
13,500167	0,5	0,177950
13,508500	0,5	0,207850
13,516833	0,5	0,246750
13,525167	0,5	0,288300
13,533500	0,5	0,324250
13,541833	0,5	0,355300
13,550167	0,5	0,365050
13,558500	0,5	0,363800
13,566833	0,5	0,340650
13,575167	0,5	0,301950
13,583500	0,5	0,263500
13,591833	0,5	0,229900
13,600167	0,5	0,189050
13,608500	0,5	0,163200
13,616833	0,5	0,136900
13,625167	0,5	0,127350
13,633500	0,5	0,125800
13,641833	0,5	0,142400
13,650167	0,5	0,161300
13,658500	0,5	0,188200
13,666833	0,5	0,226800
13,675167	0,5	0,268200
13,683500	0,5	0,308950
13,691833	0,5	0,345850
13,700167	0,5	0,379400
13,708500	0,5	0,407200
13,716833	0,5	0,419200
13,725167	0,5	0,412450
13,733500	0,5	0,408750
13,741833	0,5	0,383200
13,750167	0,5	0,350450
13,758500	0,5	0,317500
13,766833	0,5	0,295450
13,775167	0,5	0,284450
13,783500	0,5	0,292700
13,791833	0,5	0,298700
13,800167	0,5	0,307200
13,808500	0,5	0,309450
13,816833	0,5	0,309650
13,825167	0,5	0,308700
13,833500	0,5	0,313200
13,841833	0,5	0,321800
13,850167	0,5	0,338450
13,858500	0,5	0,348000
13,866833	0,5	0,347100
13,875167	0,5	0,331200
13,883500	0,5	0,312200
13,891833	0,5	0,278650
13,900167	0,5	0,240400
13,908500	0,5	0,198750
13,916833	0,5	0,158950
13,925167	0,5	0,130100
13,933500	0,5	0,101200
13,941833	0,5	0,082500
13,950167	0,5	0,073450
13,958500	0,5	0,082700
13,966833	0,5	0,101750
13,975167	0,5	0,135500
13,983500	0,5	0,170050
13,991833	0,5	0,193600
14,000167	0,5	0,214100
14,008500	0,5	0,224600
14,016833	0,5	0,202900
14,025167	0,5	0,189050
14,033500	0,5	0,158550
14,041833	0,5	0,122650
14,050167	0,5	0,084550
14,058500	0,5	0,048150
14,066833	0,5	0,032350
14,075167	0,5	0,021800
14,083500	0,5	0,026750
14,091833	0,5	0,037550
14,100167	0,5	0,055900
14,108500	0,5	0,071050
14,116833	0,5	0,087800
14,125167	0,5	0,095100
14,133500	0,5	0,102650
14,141833	0,5	0,096300
14,150167	0,5	0,087350
14,158500	0,5	0,078450
14,166833	0,5	0,060700
14,175167	0,5	0,056400
14,183500	0,5	0,046700
14,191833	0,5	0,041850
14,200167	0,5	0,039150
14,208500	0,5	0,034300
14,216833	0,5	0,038550
14,225167	0,5	0,036100
14,233500	0,5	0,023900
14,241833	0,5	0,002500
14,250167	0,5	-0,012250
14,258500	0,5	-0,031250
14,266833	0,5	-0,045850
14,275167	0,5	-0,056300
14,283500	0,5	-0,074100
14,291833	0,5	-0,082550
14,300167	0,5	-0,090350
14,308500	0,5	-0,093950
14,316833	0,5	-0,098400
14,325167	0,5	-0,092050
14,333500	0,5	-0,100800
14,341833	0,5	-0,110950
14,350167	0,5	-0,122750
14,358500	0,5	-0,132400
14,366833	0,5	-0,130400
14,375167	0,5	-0,134350
14,383500	0,5	-0,140600
14,391833	0,5	-0,141200
14,400167	0,5	-0,141950
14,408500	0,5	-0,134050
14,416833	0,5	-0,126450
14,425167	0,5	-0,113500
14,433500	0,5	-0,091250
14,441833	0,5	-0,072750
14,450167	0,5	-0,034400
14,458500	0,5	-0,019300
14,466833	0,5	0,001450
14,475167	0,5	0,005400
14,483500	0,5	-0,011100
14,491833	0,5	-0,043000
14,500167	0,5	-0,079200
14,508500	0,5	-0,112150
14,516833	0,5	-0,135600
14,525167	0,5	-0,159600
14,533500	0,5	-0,174950
14,541833	0,5	-0,189200
14,550167	0,5	-0,192550
14,558500	0,5	-0,199150
14,566833	0,5	-0,193500
14,575167	0,5	-0,194800
14,583500	0,5	-0,193750
14,591833	0,5	-0,187150
14,600167	0,5	-0,186850
14,608500	0,5	-0,187800
14,616833	0,5	-0,183100
14,625167	0,5	-0,182400
14,633500	0,5	-0,184750
14,641833	0,5	-0,191950
14,650167	0,5	-0,201000
14,658500	0,5	-0,194650
14,666833	0,5	-0,196050
14,675167	0,5	-0,187350
14,683500	0,5	-0,185550
14,691833	0,5	-0,187500
14,700167	0,5	-0,191950
14,708500	0,5	-0,194900
14,716833	0,5	-0,203800
14,725167	0,5	-0,218450
14,733500	0,5	-0,228500
14,741833	0,5	-0,243450
14,750167	0,5	-0,253650
14,758500	0,5	-0,262000
14,766833	0,5	-0,256500
14,775167	0,5	-0,264200
14,783500	0,5	-0,268350
14,791833	0,5	-0,280650
14,800167	0,5	-0,284850
14,808500	0,5	-0,287250
14,816833	0,5	-0,275400
14,825167	0,5	-0,276700
14,833500	0,5	-0,269900
14,841833	0,5	-0,266550
14,850167	0,5	-0,251650
14,858500	0,5	-0,243300
14,866833	0,5	-0,231900
14,875167	0,5	-0,232850
14,883500	0,5	-0,229600
14,891833	0,5	-0,228750
14,900167	0,5	-0,241300
14,908500	0,5	-0,239350
14,916833	0,5	-0,238250
14,925167	0,5	-0,237550
14,933500	0,5	-0,244000
14,941833	0,5	-0,251600
14,950167	0,5	-0,248050
14,958500	0,5	-0,239350
14,966833	0,5	-0,240750
14,975167	0,5	-0,240400
14,983500	0,5	-0,247000
14,991833	0,5	-0,254400
15,000167	0,5	-0,267650
15,008500	0,5	-0,276050
15,016833	0,5	-0,284150
15,025167	0,5	-0,290800
15,033500	0,5	-0,295850
15,041833	0,5	-0,295200
15,050167	0,5	-0,310800
15,058500	0,5	-0,298000
15,066833	0,5	-0,299050
15,075167	0,5	-0,301600
15,083500	0,5	-0,305100
15,091833	0,5	-0,315100
15,100167	0,5	-0,309050
15,108500	0,5	-0,317850
15,116833	0,5	-0,314500
15,125167	0,5	-0,320450
15,133500	0,5	-0,324450
15,141833	0,5	-0,327250
15,150167	0,5	-0,329050
15,158500	0,5	-0,333150
15,166833	0,5	-0,336100
15,175167	0,5	-0,339200
15,183500	0,5	-0,333700
15,191833	0,5	-0,342600
15,200167	0,5	-0,350000
15,208500	0,5	-0,344200
15,216833	0,5	-0,345750
15,225167	0,5	-0,356200
15,233500	0,5	-0,367200
15,241833	0,5	-0,369800
15,250167	0,5	-0,366950
15,258500	0,5	-0,364450
15,266833	0,5	-0,369900
15,275167	0,5	-0,366150
15,283500	0,5	-0,366550
15,291833	0,5	-0,363800
15,300167	0,5	-0,363100
15,308500	0,5	-0,356150
15,316833	0,5	-0,351650
15,325167	0,5	-0,335500
15,333500	0,5	-0,321250
15,341833	0,5	-0,311600
15,350167	0,5	-0,292850
15,358500	0,5	-0,274450
15,366833	0,5	-0,272850
15,375167	0,5	-0,272050
15,383500	0,5	-0,291100
15,391833	0,5	-0,307500
15,400167	0,5	-0,316400
15,408500	0,5	-0,326700
15,416833	0,5	-0,333350
15,425167	0,5	-0,335150
15,433500	0,5	-0,334000
15,441833	0,5	-0,332650
15,450167	0,5	-0,327800
15,458500	0,5	-0,326050
15,466833	0,5	-0,325150
15,475167	0,5	-0,331450
15,483500	0,5	-0,324400
15,491833	0,5	-0,335400
15,500167	0,5	-0,324600
15,508500	0,5	-0,321000
15,516833	0,5	-0,320250
15,525167	0,5	-0,327050
15,533500	0,5	-0,336350
15,541833	0,5	-0,334400
15,550167	0,5	-0,334400
15,558500	0,5	-0,343150
15,566833	0,5	-0,349400
15,575167	0,5	-0,360800
15,583500	0,5	-0,367300
15,591833	0,5	-0,377000
15,600167	0,5	-0,385850
15,608500	0,5	-0,385900
15,616833	0,5	-0,392650
15,625167	0,5	-0,391650
15,633500	0,5	-0,396350
15,641833	0,5	-0,400500
15,650167	0,5	-0,397300
15,658500	0,5	-0,403400
15,666833	0,5	-0,407700
15,675167	0,5	-0,415450
15,683500	0,5	-0,420600
15,691833	0,5	-0,414250
15,700167	0,5	-0,411250
15,708500	0,5	-0,406150
15,716833	0,5	-0,407650
15,725167	0,5	-0,407500
15,733500	0,5	-0,404800
15,741833	0,5	-0,400500
15,750167	0,5	-0,403900
15,758500	0,5	-0,402800
15,766833	0,5	-0,403350
15,775167	0,5	-0,402500
15,783500	0,5	-0,403700
15,791833	0,5	-0,400150
15,800167	0,5	-0,394900
15,808500	0,5	-0,399600
15,816833	0,5	-0,407150
15,825167	0,5	-0,433700
15,833500	0,5	-0,443550
15,841833	0,5	-0,460100
15,850167	0,5	-0,457650
15,858500	0,5	-0,467100
15,866833	0,5	-0,467700
15,875167	0,5	-0,474300
15,883500	0,5	-0,476700
15,891833	0,5	-0,478750
15,900167	0,5	-0,484850
15,908500	0,5	-0,484400
15,916833	0,5	-0,493400
15,925167	0,5	-0,500250
15,933500	0,5	-0,508200
15,941833	0,5	-0,498100
15,950167	0,5	-0,500500
15,958500	0,5	-0,506400
15,966833	0,5	-0,515300
15,975167	0,5	-0,522050
15,983500	0,5	-0,522400
15,991833	0,5	-0,515050
16,000167	0,5	-0,513950
16,008500	0,5	-0,506900
16,016833	0,5	-0,504400
16,025167	0,5	-0,498100
16,033500	0,5	-0,492500
16,041833	0,5	-0,481950
16,050167	0,5	-0,482700
16,058500	0,5	-0,481900
16,066833	0,5	-0,479500
16,075167	0,5	-0,486600
16,083500	0,5	-0,490950
16,091833	0,5	-0,480900
16,100167	0,5	-0,484850
16,108500	0,5	-0,490200
16,116833	0,5	-0,505850
16,125167	0,5	-0,516900
16,133500	0,5	-0,514450
16,141833	0,5	-0,520450
16,150167	0,5	-0,521200
16,158500	0,5	-0,526000
16,166833	0,5	-0,520400
16,175167	0,5	-0,521600
16,183500	0,5	-0,518500
16,191833	0,5	-0,518850
16,200167	0,5	-0,522700
16,208500	0,5	-0,518450
16,216833	0,5	-0,516600
16,225167	0,5	-0,528700
16,233500	0,5	-0,518100
16,241833	0,5	-0,515250
16,250167	0,5	-0,512300
16,258500	0,5	-0,521200
16,266833	0,5	-0,533250
16,275167	0,5	-0,531200
16,283500	0,5	-0,530200
16,291833	0,5	-0,528900
16,300167	0,5	-0,532500
16,308500	0,5	-0,533900
16,316833	0,5	-0,541300
16,325167	0,5	-0,540850
16,333500	0,5	-0,543500
16,341833	0,5	-0,538350
16,350167	0,5	-0,540400
16,358500	0,5	-0,537800
16,366833	0,5	-0,532500
16,375167	0,5	-0,540450
16,383500	0,5	-0,533700
16,391833	0,5	-0,529700
16,400167	0,5	-0,534750
16,408500	0,5	-0,538300
16,416833	0,5	-0,554400
16,425167	0,5	-0,549000
16,433500	0,5	-0,546350
16,441833	0,5	-0,545350
16,450167	0,5	-0,542150
16,458500	0,5	-0,541350
16,466833	0,5	-0,535900
16,475167	0,5	-0,533500
16,483500	0,5	-0,530300
16,491833	0,5	-0,533100
16,500167	0,5	-0,527250
16,508500	0,5	-0,531400
16,516833	0,5	-0,527000
16,525167	0,5	-0,531050
16,533500	0,5	-0,515550
16,541833	0,5	-0,516150
16,550167	0,5	-0,515450
16,558500	0,5	-0,523400
16,566833	0,5	-0,531850
16,575167	0,5	-0,525150
16,583500	0,5	-0,518800
16,591833	0,5	-0,519800
16,600167	0,5	-0,512750
16,608500	0,5	-0,509050
16,616833	0,5	-0,513000
16,625167	0,5	-0,504250
16,633500	0,5	-0,502100
16,641833	0,5	-0,497550
16,650167	0,5	-0,490000
16,658500	0,5	-0,481250
16,666833	0,5	-0,486950
16,675167	0,5	-0,477150
16,683500	0,5	-0,471550
16,691833	0,5	-0,472750
16,700167	0,5	-0,474900
16,708500	0,5	-0,481350
16,716833	0,5	-0,491900
16,725167	0,5	-0,487100
16,733500	0,5	-0,487950
16,741833	0,5	-0,485000
16,750167	0,5	-0,481150
16,758500	0,5	-0,478050
16,766833	0,5	-0,479250
16,775167	0,5	-0,476450
16,783500	0,5	-0,474650
16,791833	0,5	-0,475500
16,800167	0,5	-0,461950
16,808500	0,5	-0,466600
16,816833	0,5	-0,477000
16,825167	0,5	-0,464500
16,833500	0,5	-0,454550
16,841833	0,5	-0,453000
16,850167	0,5	-0,450950
16,858500	0,5	-0,458650
16,866833	0,5	-0,449350
16,875167	0,5	-0,445850
16,883500	0,5	-0,436600
16,891833	0,5	-0,438850
16,900167	0,5	-0,433600
16,908500	0,5	-0,435750
16,916833	0,5	-0,432550
16,925167	0,5	-0,433700
16,933500	0,5	-0,435850
16,941833	0,5	-0,429500
16,950167	0,5	-0,423150
16,958500	0,5	-0,424250
16,966833	0,5	-0,419500
16,975167	0,5	-0,407250
16,983500	0,5	-0,404950
16,991833	0,5	-0,400200
17,000167	0,5	-0,413100
17,008500	0,5	-0,415800
17,016833	0,5	-0,412600
17,025167	0,5	-0,397000
17,033500	0,5	-0,402550
17,041833	0,5	-0,397900
17,050167	0,5	-0,398350
17,058500	0,5	-0,391700
17,066833	0,5	-0,385400
17,075167	0,5	-0,385500
17,083500	0,5	-0,385500
17,091833	0,5	-0,381450
17,100167	0,5	-0,374900
17,108500	0,5	-0,387450
17,116833	0,5	-0,376800
17,125167	0,5	-0,366650
17,133500	0,5	-0,362000
17,141833	0,5	-0,366800
17,150167	0,5	-0,375400
17,158500	0,5	-0,375950
17,166833	0,5	-0,367000
17,175167	0,5	-0,369300
17,183500	0,5	-0,367550
17,191833	0,5	-0,372900
17,200167	0,5	-0,365550
17,208500	0,5	-0,368550
17,216833	0,5	-0,362600
17,225167	0,5	-0,362450
17,233500	0,5	-0,360050
17,241833	0,5	-0,353950
17,250167	0,5	-0,344600
17,258500	0,5	-0,360050
17,266833	0,5	-0,345250
17,275167	0,5	-0,346750
17,283500	0,5	-0,349950
17,291833	0,5	-0,358400
17,300167	0,5	-0,371400
17,308500	0,5	-0,367550
17,316833	0,5	-0,368250
17,325167	0,5	-0,366800
17,333500	0,5	-0,369850
17,341833	0,5	-0,371200
17,350167	0,5	-0,371500
17,358500	0,5	-0,367150
17,366833	0,5	-0,371600
17,375167	0,5	-0,368500
17,383500	0,5	-0,370450
17,391833	0,5	-0,363300
17,400167	0,5	-0,368500
17,408500	0,5	-0,379700
17,416833	0,5	-0,370800
17,425167	0,5	-0,372500
17,433500	0,5	-0,379200
17,441833	0,5	-0,386250
17,450167	0,5	-0,397850
17,458500	0,5	-0,399550
17,466833	0,5	-0,397950
17,475167	0,5	-0,400350
17,483500	0,5	-0,399650
17,491833	0,5	-0,400200
17,500167	0,5	-0,401250
17,508500	0,5	-0,407400
17,516833	0,5	-0,404050
17,525167	0,5	-0,412800
17,533500	0,5	-0,405900
17,541833	0,5	-0,404800
17,550167	0,5	-0,411850
17,558500	0,5	-0,416850
17,566833	0,5	-0,412750
17,575167	0,5	-0,421350
17,583500	0,5	-0,426750
17,591833	0,5	-0,444350
17,600167	0,5	-0,456400
17,608500	0,5	-0,458650
17,616833	0,5	-0,456100
17,625167	0,5	-0,457750
17,633500	0,5	-0,457900
17,641833	0,5	-0,462500
17,650167	0,5	-0,463250
17,658500	0,5	-0,465100
17,666833	0,5	-0,470300
17,675167	0,5	-0,471050
17,683500	0,5	-0,469700
17,691833	0,5	-0,473300
17,700167	0,5	-0,485750
17,708500	0,5	-0,482400
17,716833	0,5	-0,482400
17,725167	0,5	-0,489150
17,733500	0,5	-0,503600
17,741833	0,5	-0,512550
17,750167	0,5	-0,513400
17,758500	0,5	-0,517400
17,766833	0,5	-0,522300
17,775167	0,5	-0,521700
17,783500	0,5	-0,527400
17,791833	0,5	-0,528450
17,800167	0,5	-0,531650
17,808500	0,5	-0,537500
17,816833	0,5	-0,539300
17,825167	0,5	-0,540350
17,833500	0,5	-0,534850
17,841833	0,5	-0,549250
17,850167	0,5	-0,553350
17,858500	0,5	-0,555700
17,866833	0,5	-0,559850
17,875167	0,5	-0,570000
17,883500	0,5	-0,586200
17,891833	0,5	-0,596700
17,900167	0,5	-0,597000
17,908500	0,5	-0,604400
17,916833	0,5	-0,600650
17,925167	0,5	-0,606150
17,933500	0,5	-0,605250
17,941833	0,5	-0,605300
17,950167	0,5	-0,609450
17,958500	0,5	-0,611100
17,966833	0,5	-0,620600
17,975167	0,5	-0,615000
17,983500	0,5	-0,615200
17,991833	0,5	-0,630250
18,000167	0,5	-0,628350
18,008500	0,5	-0,627300
18,016833	0,5	-0,633400
18,025167	0,5	-0,635850
18,033500	0,5	-0,651250
18,041833	0,5	-0,648000
18,050167	0,5	-0,649050
18,058500	0,5	-0,648250
18,066833	0,5	-0,654900
18,075167	0,5	-0,649900
18,083500	0,5	-0,654250
18,091833	0,5	-0,652100
18,100167	0,5	-0,656500
18,108500	0,5	-0,657700
18,116833	0,5	-0,653800
18,125167	0,5	-0,653300
18,133500	0,5	-0,654600
18,141833	0,5	-0,672350
18,150167	0,5	-0,660250
18,158500	0,5	-0,664200
18,166833	0,5	-0,668100
18,175167	0,5	-0,678850
18,183500	0,5	-0,688850
18,191833	0,5	-0,690300
18,200167	0,5	-0,692350
18,208500	0,5	-0,696850
18,216833	0,5	-0,693650
18,225167	0,5	-0,702200
18,233500	0,5	-0,700350
18,241833	0,5	-0,702100
18,250167	0,5	-0,703350
18,258500	0,5	-0,707350
18,266833	0,5	-0,710300
18,275167	0,5	-0,699050
18,283500	0,5	-0,707600
18,291833	0,5	-0,716800
18,300167	0,5	-0,714650
18,308500	0,5	-0,713450
18,316833	0,5	-0,723700
18,325167	0,5	-0,732600
18,333500	0,5	-0,747950
18,341833	0,5	-0,748050
18,350167	0,5	-0,749150
18,358500	0,5	-0,748750
18,366833	0,5	-0,756800
18,375167	0,5	-0,758500
18,383500	0,5	-0,763650
18,391833	0,5	-0,771200
18,400167	0,5	-0,779300
18,408500	0,5	-0,778350
18,416833	0,5	-0,774250
18,425167	0,5	-0,773550
18,433500	0,5	-0,789950
18,441833	0,5	-0,786950
18,450167	0,5	-0,791950
18,458500	0,5	-0,791950
18,466833	0,5	-0,802400
18,475167	0,5	-0,818650
18,483500	0,5	-0,820850
18,491833	0,5	-0,831950
18,500167	0,5	-0,822450
18,508500	0,5	-0,825900
18,516833	0,5	-0,822350
18,525167	0,5	-0,824600
18,533500	0,5	-0,818550
18,541833	0,5	-0,820000
18,550167	0,5	-0,823550
18,558500	0,5	-0,820450
18,566833	0,5	-0,810300
18,575167	0,5	-0,810550
18,583500	0,5	-0,812500
18,591833	0,5	-0,810150
18,600167	0,5	-0,801100
18,608500	0,5	-0,801900
18,616833	0,5	-0,806850
18,625167	0,5	-0,809150
18,633500	0,5	-0,801600
18,641833	0,5	-0,790250
18,650167	0,5	-0,782800
18,658500	0,5	-0,780950
18,666833	0,5	-0,783400
18,675167	0,5	-0,782600
18,683500	0,5	-0,789100
18,691833	0,5	-0,796550
18,700167	0,5	-0,803300
18,708500	0,5	-0,794550
18,716833	0,5	-0,793500
18,725167	0,5	-0,805100
18,733500	0,5	-0,814700
18,741833	0,5	-0,809000
18,750167	0,5	-0,819050
18,758500	0,5	-0,823650
18,766833	0,5	-0,839400
18,775167	0,5	-0,843950
18,783500	0,5	-0,840300
18,791833	0,5	-0,843150
18,800167	0,5	-0,845250
18,808500	0,5	-0,843800
18,816833	0,5	-0,840500
18,825167	0,5	-0,845900
18,833500	0,5	-0,840650
18,841833	0,5	-0,843850
18,850167	0,5	-0,843350
18,858500	0,5	-0,838400
18,866833	0,5	-0,834650
18,875167	0,5	-0,848000
18,883500	0,5	-0,836850
18,891833	0,5	-0,836700
18,900167	0,5	-0,838850
18,908500	0,5	-0,840950
18,916833	0,5	-0,856300
18,925167	0,5	-0,854700
18,933500	0,5	-0,856850
18,941833	0,5	-0,860750
18,950167	0,5	-0,861050
18,958500	0,5	-0,860800
18,966833	0,5	-0,854500
18,975167	0,5	-0,853600
18,983500	0,5	-0,853600
18,991833	0,5	-0,850100
19,000167	0,5	-0,848350
19,008500	0,5	-0,839450
19,016833	0,5	-0,850300
19,025167	0,5	-0,852100
19,033500	0,5	-0,851900
19,041833	0,5	-0,854650
19,050167	0,5	-0,865900
19,058500	0,5	-0,879100
19,066833	0,5	-0,895750
19,075167	0,5	-0,896200
19,083500	0,5	-0,900900
19,091833	0,5	-0,902100
19,100167	0,5	-0,906600
19,108500	0,5	-0,902350
19,116833	0,5	-0,900750
19,125167	0,5	-0,893450
19,133500	0,5	-0,891850
19,141833	0,5	-0,895000
19,150167	0,5	-0,888950
19,158500	0,5	-0,889550
19,166833	0,5	-0,900950
19,175167	0,5	-0,900000
19,183500	0,5	-0,903750
19,191833	0,5	-0,902750
19,200167	0,5	-0,911800
19,208500	0,5	-0,926300
19,216833	0,5	-0,923350
19,225167	0,5	-0,919650
19,233500	0,5	-0,911150
19,241833	0,5	-0,904150
19,250167	0,5	-0,884200
19,258500	0,5	-0,869200
19,266833	0,5	-0,843500
19,275167	0,5	-0,833550
19,283500	0,5	-0,837650
19,291833	0,5	-0,841000
19,300167	0,5	-0,856250
19,308500	0,5	-0,857450
19,316833	0,5	-0,875100
19,325167	0,5	-0,858650
19,333500	0,5	-0,862200
19,341833	0,5	-0,875500
19,350167	0,5	-0,902800
19,358500	0,5	-0,929400
19,366833	0,5	-0,944300
19,375167	0,5	-0,947050
19,383500	0,5	-0,964450
19,391833	0,5	-0,959250
19,400167	0,5	-0,960650
19,408500	0,5	-0,950100
19,416833	0,5	-0,939600
19,425167	0,5	-0,913500
19,433500	0,5	-0,892850
19,441833	0,5	-0,871950
19,450167	0,5	-0,850050
19,458500	0,5	-0,848750
19,466833	0,5	-0,863550
19,475167	0,5	-0,874850
19,483500	0,5	-0,903900
19,491833	0,5	-0,931850
19,500167	0,5	-0,957950
19,508500	0,5	-0,987400
19,516833	0,5	-0,990800
19,525167	0,5	-1,005800
19,533500	0,5	-1,002100
19,541833	0,5	-1,006050
19,550167	0,5	-1,002850
19,558500	0,5	-1,003250
19,566833	0,5	-1,000550
19,575167	0,5	-1,006150
19,583500	0,5	-1,008500
19,591833	0,5	-0,998350
19,600167	0,5	-0,996950
19,608500	0,5	-1,006700
19,616833	0,5	-1,001050
19,625167	0,5	-0,992800
19,633500	0,5	-0,990650
19,641833	0,5	-0,981950
19,650167	0,5	-0,991550
19,658500	0,5	-0,974050
19,666833	0,5	-0,965350
19,675167	0,5	-0,951950
19,683500	0,5	-0,951050
19,691833	0,5	-0,950850
19,700167	0,5	-0,962350
19,708500	0,5	-0,975800
19,716833	0,5	-0,985650
19,725167	0,5	-0,995400
19,733500	0,5	-1,007150
19,741833	0,5	-0,999750
19,750167	0,5	-1,007950
19,758500	0,5	-1,013950
19,766833	0,5	-1,010800
19,775167	0,5	-1,014650
19,783500	0,5	-1,019950
19,791833	0,5	-1,031700
19,800167	0,5	-1,031000
19,808500	0,5	-1,032350
19,816833	0,5	-1,024900
19,825167	0,5	-1,028750
19,833500	0,5	-1,020700
19,841833	0,5	-1,024300
19,850167	0,5	-1,022800
19,858500	0,5	-1,020350
19,866833	0,5	-1,017100
19,875167	0,5	-1,020200
19,883500	0,5	-1,013850
19,891833	0,5	-1,009000
19,900167	0,5	-1,012800
19,908500	0,5	-1,010350
19,916833	0,5	-1,005650
19,925167	0,5	-1,003950
19,933500	0,5	-1,011100
19,941833	0,5	-1,025200
19,950167	0,5	-1,024750
19,958500	0,5	-1,013150
19,966833	0,5	-1,019900
19,975167	0,5	-1,020300
19,983500	0,5	-1,020000
19,991833	0,5	-1,008600
20,000167	0,5	-1,013400
20,008500	0,5	-1,005950
20,016833	0,5	-1,004100
20,025167	0,5	-1,006850
20,033500	0,5	-0,991950
20,041833	0,5	-0,983300
20,050167	0,5	-0,996850
20,058500	0,5	-0,986100
20,066833	0,5	-0,986700
20,075167	0,5	-0,991950
20,083500	0,5	-0,991950
20,091833	0,5	-1,007300
20,100167	0,5	-0,994950
20,108500	0,5	-0,991050
20,116833	0,5	-0,985750
20,125167	0,5	-0,986000
20,133500	0,5	-0,984300
20,141833	0,5	-0,986600
20,150167	0,5	-0,976900
20,158500	0,5	-0,978050
20,166833	0,5	-0,979300
20,175167	0,5	-0,982100
20,183500	0,5	-0,966750
20,191833	0,5	-0,970800
20,200167	0,5	-0,978300
20,208500	0,5	-0,976100
20,216833	0,5	-0,975150
20,225167	0,5	-0,985500
20,233500	0,5	-0,999050
20,241833	0,5	-1,001900
20,250167	0,5	-1,003700
20,258500	0,5	-1,001450
20,266833	0,5	-1,004150
20,275167	0,5	-1,003850
20,283500	0,5	-1,006450
20,291833	0,5	-0,999500
20,300167	0,5	-1,002300
20,308500	0,5	-1,005300
20,316833	0,5	-1,007900
20,325167	0,5	-0,998200
20,333500	0,5	-0,996750
20,341833	0,5	-1,002000
20,350167	0,5	-0,998050
20,358500	0,5	-0,996950
20,366833	0,5	-1,003500
20,375167	0,5	-1,016150
20,383500	0,5	-1,025100
20,391833	0,5	-1,031250
20,400167	0,5	-1,025900
20,408500	0,5	-1,022700
20,416833	0,5	-1,022850
20,425167	0,5	-1,022900
20,433500	0,5	-1,021900
20,441833	0,5	-1,026100
20,450167	0,5	-1,021650
20,458500	0,5	-1,028550
20,466833	0,5	-1,027800
20,475167	0,5	-1,012450
20,483500	0,5	-1,007800
20,491833	0,5	-1,014650
20,500167	0,5	-1,012250
20,508500	0,5	-1,014300
20,516833	0,5	-1,015500
20,525167	0,5	-1,029900
20,533500	0,5	-1,038250
20,541833	0,5	-1,035600
20,550167	0,5	-1,032150
20,558500	0,5	-1,029300
20,566833	0,5	-1,036600
20,575167	0,5	-1,028400
20,583500	0,5	-1,026800
20,591833	0,5	-1,017350
20,600167	0,5	-1,023200
20,608500	0,5	-1,017350
20,616833	0,5	-1,010600
20,625167	0,5	-0,996450
20,633500	0,5	-0,995150
20,641833	0,5	-0,998400
20,650167	0,5	-0,992000
20,658500	0,5	-0,995650
20,666833	0,5	-1,008100
20,675167	0,5	-1,020100
20,683500	0,5	-1,020700
20,691833	0,5	-1,018650
20,700167	0,5	-1,015700
20,708500	0,5	-1,010300
20,716833	0,5	-1,009550
20,725167	0,5	-1,003400
20,733500	0,5	-1,000300
20,741833	0,5	-0,998000
20,750167	0,5	-0,995400
20,758500	0,5	-0,998300
20,766833	0,5	-0,977050
20,775167	0,5	-0,968350
20,783500	0,5	-0,967550
20,791833	0,5	-0,968000
20,800167	0,5	-0,960350
20,808500	0,5	-0,969900
20,816833	0,5	-0,974700
20,825167	0,5	-0,981200
20,833500	0,5	-0,972400
20,841833	0,5	-0,970150
20,850167	0,5	-0,961100
20,858500	0,5	-0,970850
20,866833	0,5	-0,960050
20,875167	0,5	-0,956350
20,883500	0,5	-0,949450
20,891833	0,5	-0,943000
20,900167	0,5	-0,938300
20,908500	0,5	-0,926900
20,916833	0,5	-0,907700
20,925167	0,5	-0,897850
20,933500	0,5	-0,898800
20,941833	0,5	-0,894150
20,950167	0,5	-0,895950
20,958500	0,5	-0,899300
20,966833	0,5	-0,911400
20,975167	0,5	-0,903850
20,983500	0,5	-0,896100
20,991833	0,5	-0,890350
21,000167	0,5	-0,888200
21,008500	0,5	-0,883350
21,016833	0,5	-0,878950
21,025167	0,5	-0,873550
21,033500	0,5	-0,865900
21,041833	0,5	-0,865150
21,050167	0,5	-0,862400
21,058500	0,5	-0,848150
21,066833	0,5	-0,827650
21,075167	0,5	-0,824150
21,083500	0,5	-0,825650
21,091833	0,5	-0,825300
21,100167	0,5	-0,822300
21,108500	0,5	-0,831500
21,116833	0,5	-0,840700
21,125167	0,5	-0,833350
21,133500	0,5	-0,825950
21,141833	0,5	-0,823250
21,150167	0,5	-0,815500
21,158500	0,5	-0,815300
21,166833	0,5	-0,809150
21,175167	0,5	-0,801300
21,183500	0,5	-0,796150
21,191833	0,5	-0,787150
21,200167	0,5	-0,783050
21,208500	0,5	-0,753700
21,216833	0,5	-0,737800
21,225167	0,5	-0,741300
21,233500	0,5	-0,735500
21,241833	0,5	-0,735450
21,250167	0,5	-0,745950
21,258500	0,5	-0,751450
21,266833	0,5	-0,753850
21,275167	0,5	-0,740600
21,283500	0,5	-0,734500
21,291833	0,5	-0,723950
21,300167	0,5	-0,718100
21,308500	0,5	-0,706600
21,316833	0,5	-0,693400
21,325167	0,5	-0,677300
21,333500	0,5	-0,663150
21,341833	0,5	-0,655100
21,350167	0,5	-0,615500
21,358500	0,5	-0,584000
21,366833	0,5	-0,553700
21,375167	0,5	-0,536900
21,383500	0,5	-0,508700
21,391833	0,5	-0,496950
21,400167	0,5	-0,498150
21,408500	0,5	-0,509400
21,416833	0,5	-0,518200
21,425167	0,5	-0,519800
21,433500	0,5	-0,516900
21,441833	0,5	-0,511500
21,450167	0,5	-0,506000
21,458500	0,5	-0,499950
21,466833	0,5	-0,491550
21,475167	0,5	-0,479050
21,483500	0,5	-0,479300
21,491833	0,5	-0,474700
21,500167	0,5	-0,452650
21,508500	0,5	-0,439700
21,516833	0,5	-0,436650
21,525167	0,5	-0,435100
21,533500	0,5	-0,436700
21,541833	0,5	-0,431100
21,550167	0,5	-0,444100
21,558500	0,5	-0,438150
21,566833	0,5	-0,418050
21,575167	0,5	-0,403200
21,583500	0,5	-0,386250
21,591833	0,5	-0,366650
21,600167	0,5	-0,353850
21,608500	0,5	-0,338550
21,616833	0,5	-0,322100
21,625167	0,5	-0,307650
21,633500	0,5	-0,291750
21,641833	0,5	-0,268100
21,650167	0,5	-0,240750
21,658500	0,5	-0,229300
21,666833	0,5	-0,222400
21,675167	0,5	-0,209450
21,683500	0,5	-0,200950
21,691833	0,5	-0,198950
21,700167	0,5	-0,192600
21,708500	0,5	-0,181250
21,716833	0,5	-0,165450
21,725167	0,5	-0,147250
21,733500	0,5	-0,127650
21,741833	0,5	-0,111950
21,750167	0,5	-0,098050
21,758500	0,5	-0,077500
21,766833	0,5	-0,063900
21,775167	0,5	-0,045150
21,783500	0,5	-0,035800
21,791833	0,5	0,005300
21,800167	0,5	0,026400
21,808500	0,5	0,033100
21,816833	0,5	0,050650
21,825167	0,5	0,070950
21,833500	0,5	0,081700
21,841833	0,5	0,089750
21,850167	0,5	0,104900
21,858500	0,5	0,137300
21,866833	0,5	0,163050
21,875167	0,5	0,190400
21,883500	0,5	0,217350
21,891833	0,5	0,243400
21,900167	0,5	0,272150
21,908500	0,5	0,301700
21,916833	0,5	0,333500
21,925167	0,5	0,360600
21,933500	0,5	0,396400
21,941833	0,5	0,431650
21,950167	0,5	0,445400
21,958500	0,5	0,476550
21,966833	0,5	0,501950
21,975167	0,5	0,518050
21,983500	0,5	0,532450
21,991833	0,5	0,530800
22,000167	0,5	0,556150
22,008500	0,5	0,573600
22,016833	0,5	0,595700
22,025167	0,5	0,615800
22,033500	0,5	0,637200
22,041833	0,5	0,658400
22,050167	0,5	0,683100
22,058500	0,5	0,711150
22,066833	0,5	0,734200
22,075167	0,5	0,762600
22,083500	0,5	0,790300
22,091833	0,5	0,824650
22,100167	0,5	0,838250
22,108500	0,5	0,883700
22,116833	0,5	0,911700
22,125167	0,5	0,938750
22,133500	0,5	0,954900
22,141833	0,5	0,974650
22,150167	0,5	1,025350
22,158500	0,5	1,063050
22,166833	0,5	1,096450
22,175167	0,5	1,128250
22,183500	0,5	1,159250
22,191833	0,5	1,191050
22,200167	0,5	1,224450
22,208500	0,5	1,262250
22,216833	0,5	1,306400
22,225167	0,5	1,343400
22,233500	0,5	1,384550
22,241833	0,5	1,424000
22,250167	0,5	1,487450
22,258500	0,5	1,533850
22,266833	0,5	1,580000
22,275167	0,5	1,614050
22,283500	0,5	1,647150
22,291833	0,5	1,685350
22,300167	0,5	1,733800
22,308500	0,5	1,776100
22,316833	0,5	1,821000
22,325167	0,5	1,863450
22,333500	0,5	1,905600
22,341833	0,5	1,958550
22,350167	0,5	2,002250
22,358500	0,5	2,058400
22,366833	0,5	2,104650
22,375167	0,5	2,144900
22,383500	0,5	2,199200
22,391833	0,5	2,262250
22,400167	0,5	2,337000
22,408500	0,5	2,392700
22,416833	0,5	2,444050
22,425167	0,5	2,496800
22,433500	0,5	2,541650
22,441833	0,5	2,606700
22,450167	0,5	2,667700
22,458500	0,5	2,733600
22,466833	0,5	2,792400
22,475167	0,5	2,856450
22,483500	0,5	2,914550
22,491833	0,5	2,968050
22,500167	0,5	3,028250
22,508500	0,5	3,082100
22,516833	0,5	3,138500
22,525167	0,5	3,165850
22,533500	0,5	3,241400
22,541833	0,5	3,309400
22,550167	0,5	3,377550
22,558500	0,5	3,425550
22,566833	0,5	3,481550
22,575167	0,5	3,517600
22,583500	0,5	3,563550
22,591833	0,5	3,615600
22,600167	0,5	3,663350
22,608500	0,5	3,700250
22,616833	0,5	3,740650
22,625167	0,5	3,766950
22,633500	0,5	3,794100
22,641833	0,5	3,806250
22,650167	0,5	3,811650
22,658500	0,5	3,814500
22,666833	0,5	3,763650
22,675167	0,5	3,743150
22,683500	0,5	3,715800
22,691833	0,5	3,697250
22,700167	0,5	3,645750
22,708500	0,5	3,580700
22,716833	0,5	3,499600
22,725167	0,5	3,414350
22,733500	0,5	3,338000
22,741833	0,5	3,252300
22,750167	0,5	3,161750
22,758500	0,5	3,067900
22,766833	0,5	2,967900
22,775167	0,5	2,870600
22,783500	0,5	2,768450
22,791833	0,5	2,657900
22,800167	0,5	2,546900
22,808500	0,5	2,428200
22,816833	0,5	2,267300
22,825167	0,5	2,149250
22,833500	0,5	2,046650
22,841833	0,5	1,918350
22,850167	0,5	1,782050
22,858500	0,5	1,651700
22,866833	0,5	1,513800
22,875167	0,5	1,374200
22,883500	0,5	1,230400
22,891833	0,5	1,093350
22,900167	0,5	0,955300
22,908500	0,5	0,823850
22,916833	0,5	0,688850
22,925167	0,5	0,559550
22,933500	0,5	0,424800
22,941833	0,5	0,293250
22,950167	0,5	0,170800
22,958500	0,5	0,065200
22,966833	0,5	-0,062500
22,975167	0,5	-0,182750
22,983500	0,5	-0,322950
22,991833	0,5	-0,448500
23,000167	0,5	-0,547750
23,008500	0,5	-0,651350
23,016833	0,5	-0,734700
23,025167	0,5	-0,838350
23,033500	0,5	-0,921850
23,041833	0,5	-1,001650
23,050167	0,5	-1,066700
23,058500	0,5	-1,139350
23,066833	0,5	-1,197350
23,075167	0,5	-1,263350
23,083500	0,5	-1,320800
23,091833	0,5	-1,369850
23,100167	0,5	-1,425000
23,108500	0,5	-1,462350
23,116833	0,5	-1,504750
23,125167	0,5	-1,568100
23,133500	0,5	-1,648600
23,141833	0,5	-1,692800
23,150167	0,5	-1,735500
23,158500	0,5	-1,762250
23,166833	0,5	-1,787250
23,175167	0,5	-1,816600
23,183500	0,5	-1,848550
23,191833	0,5	-1,859750
23,200167	0,5	-1,875250
23,208500	0,5	-1,880750
23,216833	0,5	-1,895400
23,225167	0,5	-1,903300
23,233500	0,5	-1,909050
23,241833	0,5	-1,913700
23,250167	0,5	-1,904750
23,258500	0,5	-1,933400
23,266833	0,5	-1,913950
23,275167	0,5	-1,934700
23,283500	0,5	-1,969000
23,291833	0,5	-1,979150
23,300167	0,5	-1,980950
23,308500	0,5	-1,983050
23,316833	0,5	-1,979350
23,325167	0,5	-1,993700
23,333500	0,5	-1,979450
23,341833	0,5	-1,979700
23,350167	0,5	-1,967900
23,358500	0,5	-1,956550
23,366833	0,5	-1,944850
23,375167	0,5	-1,934350
23,383500	0,5	-1,914100
23,391833	0,5	-1,900850
23,400167	0,5	-1,910500
23,408500	0,5	-1,899700
23,416833	0,5	-1,865900
23,425167	0,5	-1,847950
23,433500	0,5	-1,858550
23,441833	0,5	-1,858350
23,450167	0,5	-1,849450
23,458500	0,5	-1,840800
23,466833	0,5	-1,833050
23,475167	0,5	-1,826200
23,483500	0,5	-1,820250
23,491833	0,5	-1,807550
23,500167	0,5	-1,800350
23,508500	0,5	-1,784900
23,516833	0,5	-1,773250
23,525167	0,5	-1,754100
23,533500	0,5	-1,740750
23,541833	0,5	-1,725900
23,550167	0,5	-1,791200
23,558500	0,5	-1,750550
23,566833	0,5	-1,687900
23,575167	0,5	-1,667700
23,583500	0,5	-1,662900
23,591833	0,5	-1,654000
23,600167	0,5	-1,639100
23,608500	0,5	-1,624900
23,616833	0,5	-1,614000
23,625167	0,5	-1,600050
23,633500	0,5	-1,591750
23,641833	0,5	-1,574250
23,650167	0,5	-1,559200
23,658500	0,5	-1,548350
23,666833	0,5	-1,533650
23,675167	0,5	-1,517700
23,683500	0,5	-1,506100
23,691833	0,5	-1,524950
23,700167	0,5	-1,582700
23,708500	0,5	-1,545450
23,716833	0,5	-1,492600
23,725167	0,5	-1,451800
23,733500	0,5	-1,439200
23,741833	0,5	-1,424950
23,750167	0,5	-1,417300
23,758500	0,5	-1,403700
23,766833	0,5	-1,386850
23,775167	0,5	-1,369150
23,783500	0,5	-1,352300
23,791833	0,5	-1,333550
23,800167	0,5	-1,316650
23,808500	0,5	-1,299050
23,816833	0,5	-1,278150
23,825167	0,5	-1,264050
23,833500	0,5	-1,250150
23,841833	0,5	-1,340200
23,850167	0,5	-1,315500
23,858500	0,5	-1,297750
23,866833	0,5	-1,225650
23,875167	0,5	-1,201400
23,883500	0,5	-1,187600
23,891833	0,5	-1,180750
23,900167	0,5	-1,178300
23,908500	0,5	-1,162900
23,916833	0,5	-1,143800
23,925167	0,5	-1,129050
23,933500	0,5	-1,112800
23,941833	0,5	-1,097350
23,950167	0,5	-1,081900
23,958500	0,5	-1,065050
23,966833	0,5	-1,044250
23,975167	0,5	-1,031000
23,983500	0,5	-1,032550
23,991833	0,5	-1,114350
24,000167	0,5	-1,076200
24,008500	0,5	-1,040050
24,016833	0,5	-0,987350
24,025167	0,5	-0,958700
24,033500	0,5	-0,945950
24,041833	0,5	-0,933150
24,050167	0,5	-0,935450
24,058500	0,5	-0,911850
24,066833	0,5	-0,898000
24,075167	0,5	-0,889200
24,083500	0,5	-0,875950
24,091833	0,5	-0,856150
24,100167	0,5	-0,847850
24,108500	0,5	-0,831750
24,116833	0,5	-0,818500
24,125167	0,5	-0,808950
24,133500	0,5	-0,849100
24,141833	0,5	-0,887800
24,150167	0,5	-0,845600
24,158500	0,5	-0,811350
24,166833	0,5	-0,767400
24,175167	0,5	-0,755250
24,183500	0,5	-0,737600
24,191833	0,5	-0,734850
24,200167	0,5	-0,727450
24,208500	0,5	-0,710500
24,216833	0,5	-0,689600
24,225167	0,5	-0,680300
24,233500	0,5	-0,663750
24,241833	0,5	-0,649500
24,250167	0,5	-0,632800
24,258500	0,5	-0,622350
24,266833	0,5	-0,616250
24,275167	0,5	-0,608500
24,283500	0,5	-0,678250
24,291833	0,5	-0,655100
24,300167	0,5	-0,635900
24,308500	0,5	-0,599500
24,316833	0,5	-0,574300
24,325167	0,5	-0,567850
24,333500	0,5	-0,563450
24,341833	0,5	-0,564950
24,350167	0,5	-0,562050
24,358500	0,5	-0,540500
24,366833	0,5	-0,540500
24,375167	0,5	-0,523000
24,383500	0,5	-0,511800
24,391833	0,5	-0,496950
24,400167	0,5	-0,488650
24,408500	0,5	-0,473800
24,416833	0,5	-0,465400
24,425167	0,5	-0,462550
24,433500	0,5	-0,513100
24,441833	0,5	-0,488650
24,450167	0,5	-0,471100
24,458500	0,5	-0,440300
24,466833	0,5	-0,430550
24,475167	0,5	-0,422750
24,483500	0,5	-0,420200
24,491833	0,5	-0,421750
24,500167	0,5	-0,419050
24,508500	0,5	-0,411650
24,516833	0,5	-0,399450
24,525167	0,5	-0,397050
24,533500	0,5	-0,384300
24,541833	0,5	-0,378450
24,550167	0,5	-0,369550
24,558500	0,5	-0,371200
24,566833	0,5	-0,363500
24,575167	0,5	-0,378600
24,583500	0,5	-0,391150
24,591833	0,5	-0,379150
24,600167	0,5	-0,353050
24,608500	0,5	-0,337250
24,616833	0,5	-0,324100
24,625167	0,5	-0,321500
24,633500	0,5	-0,325100
24,641833	0,5	-0,320950
24,650167	0,5	-0,319350
24,658500	0,5	-0,312500
24,666833	0,5	-0,308400
24,675167	0,5	-0,299000
24,683500	0,5	-0,294550
24,691833	0,5	-0,288450
24,700167	0,5	-0,283650
24,708500	0,5	-0,275700
24,716833	0,5	-0,276650
24,725167	0,5	-0,300750
24,733500	0,5	-0,294100
24,741833	0,5	-0,288050
24,750167	0,5	-0,274250
24,758500	0,5	-0,265100
24,766833	0,5	-0,259450
24,775167	0,5	-0,255700
24,783500	0,5	-0,259050
24,791833	0,5	-0,254750
24,800167	0,5	-0,246800
24,808500	0,5	-0,245200
24,816833	0,5	-0,238950
24,825167	0,5	-0,232650
24,833500	0,5	-0,229400
24,841833	0,5	-0,224150
24,850167	0,5	-0,219250
24,858500	0,5	-0,220900
24,866833	0,5	-0,217000
24,875167	0,5	-0,235750
24,883500	0,5	-0,224750
24,891833	0,5	-0,222150
24,900167	0,5	-0,210150
24,908500	0,5	-0,206750
24,916833	0,5	-0,204250
24,925167	0,5	-0,203400
24,933500	0,5	-0,208400
24,941833	0,5	-0,202500
24,950167	0,5	-0,201050
24,958500	0,5	-0,200550
24,966833	0,5	-0,195600
24,975167	0,5	-0,194750
24,983500	0,5	-0,190350
24,991833	0,5	-0,184250
25,000167	0,5	-0,182050
25,008500	0,5	-0,183350
25,016833	0,5	-0,186300
25,025167	0,5	-0,183050
25,033500	0,5	-0,182550
25,041833	0,5	-0,179650
25,050167	0,5	-0,172000
25,058500	0,5	-0,170450
25,066833	0,5	-0,171150
25,075167	0,5	-0,172850
25,083500	0,5	-0,172250
25,091833	0,5	-0,171050
25,100167	0,5	-0,172000
25,108500	0,5	-0,168650
25,116833	0,5	-0,169400
25,125167	0,5	-0,165400
25,133500	0,5	-0,164400
25,141833	0,5	-0,163350
25,150167	0,5	-0,162050
25,158500	0,5	-0,163250
25,166833	0,5	-0,164700
25,175167	0,5	-0,160900
25,183500	0,5	-0,159850
25,191833	0,5	-0,156200
25,200167	0,5	-0,153300
25,208500	0,5	-0,152550
25,216833	0,5	-0,151200
25,225167	0,5	-0,155050
25,233500	0,5	-0,153950
25,241833	0,5	-0,158050
25,250167	0,5	-0,151950
25,258500	0,5	-0,154650
25,266833	0,5	-0,153600
25,275167	0,5	-0,153500
25,283500	0,5	-0,152500
25,291833	0,5	-0,155600
25,300167	0,5	-0,154200
25,308500	0,5	-0,149200
25,316833	0,5	-0,152550
25,325167	0,5	-0,152350
25,333500	0,5	-0,150900
25,341833	0,5	-0,148450
25,350167	0,5	-0,147600
25,358500	0,5	-0,148300
25,366833	0,5	-0,150300
25,375167	0,5	-0,148350
25,383500	0,5	-0,147000
25,391833	0,5	-0,150050
25,400167	0,5	-0,149050
25,408500	0,5	-0,146000
25,416833	0,5	-0,149250
25,425167	0,5	-0,147700
25,433500	0,5	-0,149650
25,441833	0,5	-0,149950
25,450167	0,5	-0,149800
25,458500	0,5	-0,148000
25,466833	0,5	-0,150100
25,475167	0,5	-0,148950
25,483500	0,5	-0,148900
25,491833	0,5	-0,153400
25,500167	0,5	-0,150400
25,508500	0,5	-0,151350
25,516833	0,5	-0,152300
25,525167	0,5	-0,149250
25,533500	0,5	-0,146300
25,541833	0,5	-0,148900
25,550167	0,5	-0,148200
25,558500	0,5	-0,146750
25,566833	0,5	-0,149650
25,575167	0,5	-0,146600
25,583500	0,5	-0,147850
25,591833	0,5	-0,148050
25,600167	0,5	-0,147200
25,608500	0,5	-0,145850
25,616833	0,5	-0,147100
25,625167	0,5	-0,144150
25,633500	0,5	-0,149850
25,641833	0,5	-0,151450
25,650167	0,5	-0,150350
25,658500	0,5	-0,152850
25,666833	0,5	-0,147650
25,675167	0,5	-0,146850
25,683500	0,5	-0,145950
25,691833	0,5	-0,147700
25,700167	0,5	-0,148400
25,708500	0,5	-0,148950
25,716833	0,5	-0,147450
25,725167	0,5	-0,146950
25,733500	0,5	-0,149000
25,741833	0,5	-0,148850
25,750167	0,5	-0,147250
25,758500	0,5	-0,144050
25,766833	0,5	-0,148800
25,775167	0,5	-0,140650
25,783500	0,5	-0,144650
25,791833	0,5	-0,149500
25,800167	0,5	-0,149900
25,808500	0,5	-0,149750
25,816833	0,5	-0,143250
25,825167	0,5	-0,146200
25,833500	0,5	-0,148950
25,841833	0,5	-0,146300
25,850167	0,5	-0,145850
25,858500	0,5	-0,147550
25,866833	0,5	-0,144300
25,875167	0,5	-0,144700
25,883500	0,5	-0,144150
25,891833	0,5	-0,141800
25,900167	0,5	-0,140350
25,908500	0,5	-0,135700
25,916833	0,5	-0,136850
25,925167	0,5	-0,131400
25,933500	0,5	-0,140700
25,941833	0,5	-0,140100
25,950167	0,5	-0,141050
25,958500	0,5	-0,135800
25,966833	0,5	-0,129750
25,975167	0,5	-0,132900
25,983500	0,5	-0,131950
25,991833	0,5	-0,130900
26,000167	0,5	-0,131500
