File Path	chrom://chromeleon01/ikbm_chromeleon/2022/ICS-5000/ED1/Esteban/20220612_Cell_7_4_eg.seq/758.smp/ED_1.channel/ED_1.chm
Channel	ED_1

Injection Information:
Data Vault	ikbm_chromeleon
Injection	CelS2_06h-EGS_1
Injection Number	81
Position	GC7
Comment	
Processing Method	Stop sequence after Cell Death
Instrument Method	ICS5000_PA200_FullNative_Ox_26min_ED1
Type	Unknown
Status	Finished
Injection Date	14.06.2022
Injection Time	06:12:13
Injection Volume (µl)	5,0
Dilution Factor	1,0000
Weight	1,0000

Chromatogram Data Information:
Time Min. (min)	0,000333
Time Max. (min)	26,000333
Data Points	3121
Detector	EDet1
Generating Data System	Chromeleon 7.2.9.11323
Exporting Data System	Chromeleon 7.2.9.0
Operator	Instrument Controller
Signal Quantity	
Signal Unit	nC
Signal Min.	-3,005050
Signal Max.	193,976853
Channel	ED_1
Driver Name	DC-5000
Channel Type	Evaluation
Min. Step (s)	0,5
Max. Step (s)	0,5
Average Step (s)	0,5

Signal Parameter Information:
Signal Info	

Chromatogram Data:
Time (min)	Step (s)	Value (nC)
0,000333	n.a.	-0,034300
0,008667	0,5	-0,071850
0,017000	0,5	-0,062600
0,025333	0,5	-0,047500
0,033667	0,5	-0,012500
0,042000	0,5	-0,024550
0,050333	0,5	-0,009700
0,058667	0,5	-0,018700
0,067000	0,5	-0,014900
0,075333	0,5	-0,022300
0,083667	0,5	-0,018050
0,092000	0,5	-0,031850
0,100333	0,5	-0,028000
0,108667	0,5	-0,028350
0,117000	0,5	-0,041000
0,125333	0,5	-0,048600
0,133667	0,5	-0,019750
0,142000	0,5	-0,045950
0,150333	0,5	-0,057950
0,158667	0,5	-0,054350
0,167000	0,5	-0,039550
0,175333	0,5	-0,017800
0,183667	0,5	-0,020750
0,192000	0,5	-0,016400
0,200333	0,5	-0,028350
0,208667	0,5	-0,027500
0,217000	0,5	-0,038200
0,225333	0,5	-0,038450
0,233667	0,5	-0,046200
0,242000	0,5	-0,048450
0,250333	0,5	-0,054100
0,258667	0,5	-0,061500
0,267000	0,5	-0,086000
0,275333	0,5	-0,073950
0,283667	0,5	-0,064500
0,292000	0,5	-0,072550
0,300333	0,5	-0,074750
0,308667	0,5	-0,061550
0,317000	0,5	-0,051550
0,325333	0,5	-0,059350
0,333667	0,5	-0,066800
0,342000	0,5	-0,071600
0,350333	0,5	-0,071200
0,358667	0,5	-0,069600
0,367000	0,5	-0,073800
0,375333	0,5	-0,078200
0,383667	0,5	-0,086000
0,392000	0,5	-0,093750
0,400333	0,5	-0,088950
0,408667	0,5	-0,104900
0,417000	0,5	-0,114550
0,425333	0,5	-0,100400
0,433667	0,5	-0,094750
0,442000	0,5	-0,118300
0,450333	0,5	-0,117900
0,458667	0,5	-0,116150
0,467000	0,5	-0,088500
0,475333	0,5	-0,087700
0,483667	0,5	-0,092950
0,492000	0,5	-0,100950
0,500333	0,5	-0,101150
0,508667	0,5	-0,108800
0,517000	0,5	-0,104850
0,525333	0,5	-0,107900
0,533667	0,5	-0,113350
0,542000	0,5	-0,112150
0,550333	0,5	-0,119900
0,558667	0,5	-0,118700
0,567000	0,5	-0,137450
0,575333	0,5	-0,105350
0,583667	0,5	-0,122700
0,592000	0,5	-0,132050
0,600333	0,5	-0,136950
0,608667	0,5	-0,128000
0,617000	0,5	-0,101800
0,625333	0,5	-0,107550
0,633667	0,5	-0,124100
0,642000	0,5	-0,108550
0,650333	0,5	-0,115250
0,658667	0,5	-0,108750
0,667000	0,5	-0,116500
0,675333	0,5	-0,118550
0,683667	0,5	-0,120100
0,692000	0,5	-0,122300
0,700333	0,5	-0,116850
0,708667	0,5	-0,136800
0,717000	0,5	-0,141150
0,725333	0,5	-0,106400
0,733667	0,5	-0,132900
0,742000	0,5	-0,137300
0,750333	0,5	-0,133400
0,758667	0,5	-0,128500
0,767000	0,5	-0,088600
0,775333	0,5	-0,111850
0,783667	0,5	-0,107450
0,792000	0,5	-0,117250
0,800333	0,5	-0,105100
0,808667	0,5	-0,115500
0,817000	0,5	-0,110600
0,825333	0,5	-0,116750
0,833667	0,5	-0,113850
0,842000	0,5	-0,111150
0,850333	0,5	-0,109300
0,858667	0,5	-0,113150
0,867000	0,5	-0,111450
0,875333	0,5	-0,100700
0,883667	0,5	-0,124950
0,892000	0,5	-0,120600
0,900333	0,5	-0,119850
0,908667	0,5	-0,102700
0,917000	0,5	-0,083700
0,925333	0,5	-0,085250
0,933667	0,5	-0,099250
0,942000	0,5	-0,091550
0,950333	0,5	-0,098350
0,958667	0,5	-0,091350
0,967000	0,5	-0,098700
0,975333	0,5	-0,096550
0,983667	0,5	-0,104750
0,992000	0,5	-0,098150
1,000333	0,5	-0,097350
1,008667	0,5	-0,090600
1,017000	0,5	-0,087450
1,025333	0,5	-0,087350
1,033667	0,5	-0,109950
1,042000	0,5	-0,105300
1,050333	0,5	-0,098300
1,058667	0,5	-0,082500
1,067000	0,5	-0,064600
1,075333	0,5	-0,078300
1,083667	0,5	-0,072650
1,092000	0,5	-0,075150
1,100333	0,5	-0,073450
1,108667	0,5	-0,081000
1,117000	0,5	-0,080700
1,125333	0,5	-0,087800
1,133667	0,5	-0,079750
1,142000	0,5	-0,083550
1,150333	0,5	-0,084950
1,158667	0,5	-0,094250
1,167000	0,5	-0,072600
1,175333	0,5	-0,089050
1,183667	0,5	-0,098300
1,192000	0,5	-0,095100
1,200333	0,5	-0,080200
1,208667	0,5	-0,061350
1,217000	0,5	-0,057650
1,225333	0,5	-0,060400
1,233667	0,5	-0,063700
1,242000	0,5	-0,069000
1,250333	0,5	-0,063200
1,258667	0,5	-0,062650
1,267000	0,5	-0,070000
1,275333	0,5	-0,069950
1,283667	0,5	-0,076100
1,292000	0,5	-0,074100
1,300333	0,5	-0,089000
1,308667	0,5	-0,078350
1,317000	0,5	-0,070950
1,325333	0,5	-0,085100
1,333667	0,5	-0,092400
1,342000	0,5	-0,082200
1,350333	0,5	-0,072550
1,358667	0,5	-0,053700
1,367000	0,5	-0,057150
1,375333	0,5	-0,051350
1,383667	0,5	-0,060850
1,392000	0,5	-0,055300
1,400333	0,5	-0,064500
1,408667	0,5	-0,066750
1,417000	0,5	-0,073350
1,425333	0,5	-0,075200
1,433667	0,5	-0,074700
1,442000	0,5	-0,079750
1,450333	0,5	-0,084700
1,458667	0,5	-0,068700
1,467000	0,5	-0,066600
1,475333	0,5	-0,090600
1,483667	0,5	-0,095700
1,492000	0,5	-0,094950
1,500333	0,5	-0,071500
1,508667	0,5	-0,073800
1,517000	0,5	-0,076300
1,525333	0,5	-0,090650
1,533667	0,5	-0,087900
1,542000	0,5	-0,101000
1,550333	0,5	-0,098250
1,558667	0,5	-0,129600
1,567000	0,5	-0,225650
1,575333	0,5	-0,526350
1,583667	0,5	-1,038100
1,592000	0,5	-1,336900
1,600333	0,5	-0,597650
1,608667	0,5	2,356600
1,617000	0,5	9,228300
1,625333	0,5	21,381450
1,633667	0,5	35,812801
1,642000	0,5	45,127701
1,650333	0,5	44,718551
1,658667	0,5	37,299601
1,667000	0,5	28,396050
1,675333	0,5	21,178300
1,683667	0,5	16,181300
1,692000	0,5	12,989600
1,700333	0,5	11,036450
1,708667	0,5	10,001250
1,717000	0,5	9,557000
1,725333	0,5	9,256250
1,733667	0,5	8,681050
1,742000	0,5	7,859200
1,750333	0,5	7,040700
1,758667	0,5	6,440100
1,767000	0,5	5,997150
1,775333	0,5	5,860400
1,783667	0,5	6,084250
1,792000	0,5	6,595700
1,800333	0,5	7,172950
1,808667	0,5	7,509650
1,817000	0,5	7,576850
1,825333	0,5	7,372600
1,833667	0,5	7,038400
1,842000	0,5	6,663450
1,850333	0,5	6,314700
1,858667	0,5	5,946350
1,867000	0,5	5,585450
1,875333	0,5	5,238600
1,883667	0,5	4,940650
1,892000	0,5	4,682900
1,900333	0,5	4,481500
1,908667	0,5	4,317950
1,917000	0,5	4,163750
1,925333	0,5	4,082000
1,933667	0,5	4,091100
1,942000	0,5	4,148500
1,950333	0,5	4,170250
1,958667	0,5	4,095550
1,967000	0,5	4,022250
1,975333	0,5	4,089500
1,983667	0,5	4,477250
1,992000	0,5	5,563300
2,000333	0,5	8,081950
2,008667	0,5	12,815150
2,017000	0,5	18,992000
2,025333	0,5	23,440350
2,033667	0,5	23,379200
2,042000	0,5	19,792650
2,050333	0,5	15,695700
2,058667	0,5	12,786300
2,067000	0,5	10,900400
2,075333	0,5	9,468500
2,083667	0,5	8,220200
2,092000	0,5	7,255800
2,100333	0,5	6,600150
2,108667	0,5	6,235700
2,117000	0,5	6,135100
2,125333	0,5	6,314900
2,133667	0,5	6,713100
2,142000	0,5	7,165200
2,150333	0,5	7,384150
2,158667	0,5	7,260950
2,167000	0,5	6,958900
2,175333	0,5	6,660050
2,183667	0,5	6,423200
2,192000	0,5	6,182250
2,200333	0,5	5,967450
2,208667	0,5	5,760400
2,217000	0,5	5,634200
2,225333	0,5	5,595550
2,233667	0,5	5,607600
2,242000	0,5	5,636950
2,250333	0,5	5,643600
2,258667	0,5	5,617150
2,267000	0,5	5,605850
2,275333	0,5	5,608450
2,283667	0,5	5,674300
2,292000	0,5	5,772900
2,300333	0,5	5,880350
2,308667	0,5	5,947050
2,317000	0,5	5,969450
2,325333	0,5	5,976150
2,333667	0,5	5,987600
2,342000	0,5	6,038700
2,350333	0,5	6,111350
2,358667	0,5	6,169650
2,367000	0,5	6,247100
2,375333	0,5	6,358900
2,383667	0,5	6,491750
2,392000	0,5	6,647800
2,400333	0,5	6,781850
2,408667	0,5	6,922000
2,417000	0,5	7,053100
2,425333	0,5	7,213950
2,433667	0,5	7,383850
2,442000	0,5	7,551950
2,450333	0,5	7,632750
2,458667	0,5	7,581750
2,467000	0,5	7,414300
2,475333	0,5	7,233800
2,483667	0,5	7,097950
2,492000	0,5	7,040000
2,500333	0,5	6,992300
2,508667	0,5	6,947900
2,517000	0,5	6,921000
2,525333	0,5	6,910100
2,533667	0,5	6,922800
2,542000	0,5	6,937750
2,550333	0,5	6,954000
2,558667	0,5	6,989950
2,567000	0,5	7,059050
2,575333	0,5	7,160850
2,583667	0,5	7,342350
2,592000	0,5	7,667700
2,600333	0,5	8,265050
2,608667	0,5	9,174150
2,617000	0,5	10,278750
2,625333	0,5	11,236500
2,633667	0,5	11,737400
2,642000	0,5	11,788450
2,650333	0,5	11,586600
2,658667	0,5	11,539550
2,667000	0,5	11,993350
2,675333	0,5	13,179850
2,683667	0,5	15,333500
2,692000	0,5	18,833000
2,700333	0,5	24,852600
2,708667	0,5	35,963551
2,717000	0,5	56,201551
2,725333	0,5	88,848251
2,733667	0,5	131,196202
2,742000	0,5	171,356103
2,750333	0,5	193,976853
2,758667	0,5	191,380803
2,767000	0,5	167,741502
2,775333	0,5	134,201952
2,783667	0,5	101,083702
2,792000	0,5	74,237351
2,800333	0,5	54,822901
2,808667	0,5	41,808851
2,817000	0,5	33,440700
2,825333	0,5	28,173150
2,833667	0,5	24,816400
2,842000	0,5	22,488350
2,850333	0,5	20,645450
2,858667	0,5	18,928450
2,867000	0,5	17,162050
2,875333	0,5	15,353850
2,883667	0,5	13,623750
2,892000	0,5	12,091700
2,900333	0,5	10,834950
2,908667	0,5	9,829250
2,917000	0,5	9,048650
2,925333	0,5	8,412450
2,933667	0,5	7,904500
2,942000	0,5	7,482700
2,950333	0,5	7,093250
2,958667	0,5	6,765900
2,967000	0,5	6,479850
2,975333	0,5	6,229100
2,983667	0,5	6,016300
2,992000	0,5	5,785500
3,000333	0,5	5,583700
3,008667	0,5	5,399300
3,017000	0,5	5,265200
3,025333	0,5	5,171400
3,033667	0,5	5,128950
3,042000	0,5	5,100250
3,050333	0,5	5,055200
3,058667	0,5	4,966850
3,067000	0,5	4,798200
3,075333	0,5	4,578600
3,083667	0,5	4,337150
3,092000	0,5	4,085550
3,100333	0,5	3,850250
3,108667	0,5	3,676700
3,117000	0,5	3,541350
3,125333	0,5	3,460400
3,133667	0,5	3,410050
3,142000	0,5	3,387750
3,150333	0,5	3,390850
3,158667	0,5	3,451050
3,167000	0,5	3,552850
3,175333	0,5	3,728800
3,183667	0,5	3,954450
3,192000	0,5	4,185950
3,200333	0,5	4,338300
3,208667	0,5	4,339650
3,217000	0,5	4,162600
3,225333	0,5	3,855950
3,233667	0,5	3,504650
3,242000	0,5	3,142350
3,250333	0,5	2,843250
3,258667	0,5	2,629400
3,267000	0,5	2,484400
3,275333	0,5	2,391300
3,283667	0,5	2,318900
3,292000	0,5	2,234700
3,300333	0,5	2,167400
3,308667	0,5	2,087550
3,317000	0,5	2,017400
3,325333	0,5	1,944350
3,333667	0,5	1,873250
3,342000	0,5	1,804550
3,350333	0,5	1,753700
3,358667	0,5	1,701400
3,367000	0,5	1,649150
3,375333	0,5	1,615750
3,383667	0,5	1,604950
3,392000	0,5	1,567400
3,400333	0,5	1,537150
3,408667	0,5	1,514050
3,417000	0,5	1,496400
3,425333	0,5	1,479700
3,433667	0,5	1,436050
3,442000	0,5	1,406450
3,450333	0,5	1,373850
3,458667	0,5	1,351650
3,467000	0,5	1,331250
3,475333	0,5	1,319700
3,483667	0,5	1,304350
3,492000	0,5	1,305150
3,500333	0,5	1,304700
3,508667	0,5	1,309700
3,517000	0,5	1,297100
3,525333	0,5	1,304800
3,533667	0,5	1,285650
3,542000	0,5	1,251900
3,550333	0,5	1,216350
3,558667	0,5	1,187650
3,567000	0,5	1,163500
3,575333	0,5	1,132950
3,583667	0,5	1,094200
3,592000	0,5	1,064450
3,600333	0,5	1,041800
3,608667	0,5	1,026950
3,617000	0,5	1,013950
3,625333	0,5	1,008950
3,633667	0,5	1,015700
3,642000	0,5	1,023650
3,650333	0,5	1,046350
3,658667	0,5	1,079550
3,667000	0,5	1,125500
3,675333	0,5	1,222350
3,683667	0,5	1,347200
3,692000	0,5	1,534100
3,700333	0,5	1,812100
3,708667	0,5	2,175100
3,717000	0,5	2,606050
3,725333	0,5	3,002400
3,733667	0,5	3,316050
3,742000	0,5	3,483250
3,750333	0,5	3,473700
3,758667	0,5	3,271700
3,767000	0,5	2,942650
3,775333	0,5	2,537350
3,783667	0,5	2,134900
3,792000	0,5	1,785900
3,800333	0,5	1,500300
3,808667	0,5	1,291200
3,817000	0,5	1,125600
3,825333	0,5	1,031800
3,833667	0,5	0,938800
3,842000	0,5	0,882350
3,850333	0,5	0,837750
3,858667	0,5	0,818900
3,867000	0,5	0,813150
3,875333	0,5	0,798000
3,883667	0,5	0,772600
3,892000	0,5	0,765300
3,900333	0,5	0,748250
3,908667	0,5	0,743400
3,917000	0,5	0,731550
3,925333	0,5	0,727000
3,933667	0,5	0,723200
3,942000	0,5	0,721100
3,950333	0,5	0,725700
3,958667	0,5	0,715700
3,967000	0,5	0,716450
3,975333	0,5	0,725150
3,983667	0,5	0,707000
3,992000	0,5	0,702350
4,000333	0,5	0,697650
4,008667	0,5	0,698800
4,017000	0,5	0,713000
4,025333	0,5	0,702500
4,033667	0,5	0,706250
4,042000	0,5	0,694850
4,050333	0,5	0,706600
4,058667	0,5	0,701450
4,067000	0,5	0,709800
4,075333	0,5	0,706500
4,083667	0,5	0,706200
4,092000	0,5	0,711150
4,100333	0,5	0,705200
4,108667	0,5	0,712150
4,117000	0,5	0,742550
4,125333	0,5	0,766000
4,133667	0,5	0,791850
4,142000	0,5	0,844350
4,150333	0,5	0,914750
4,158667	0,5	1,023350
4,167000	0,5	1,142250
4,175333	0,5	1,294750
4,183667	0,5	1,473450
4,192000	0,5	1,705900
4,200333	0,5	1,973800
4,208667	0,5	2,300500
4,217000	0,5	2,679750
4,225333	0,5	3,133300
4,233667	0,5	3,665550
4,242000	0,5	4,305850
4,250333	0,5	5,037300
4,258667	0,5	5,885500
4,267000	0,5	6,826300
4,275333	0,5	7,774650
4,283667	0,5	8,634750
4,292000	0,5	9,325150
4,300333	0,5	9,720550
4,308667	0,5	9,766800
4,317000	0,5	9,420600
4,325333	0,5	8,722200
4,333667	0,5	7,783400
4,342000	0,5	6,710000
4,350333	0,5	5,622500
4,358667	0,5	4,605800
4,367000	0,5	3,724350
4,375333	0,5	2,994300
4,383667	0,5	2,436450
4,392000	0,5	2,015050
4,400333	0,5	1,709250
4,408667	0,5	1,504150
4,417000	0,5	1,386600
4,425333	0,5	1,289000
4,433667	0,5	1,240150
4,442000	0,5	1,220050
4,450333	0,5	1,221950
4,458667	0,5	1,236000
4,467000	0,5	1,231100
4,475333	0,5	1,241900
4,483667	0,5	1,265450
4,492000	0,5	1,304000
4,500333	0,5	1,364450
4,508667	0,5	1,453050
4,517000	0,5	1,571100
4,525333	0,5	1,719050
4,533667	0,5	1,870200
4,542000	0,5	2,021500
4,550333	0,5	2,126450
4,558667	0,5	2,206450
4,567000	0,5	2,219250
4,575333	0,5	2,149300
4,583667	0,5	2,028500
4,592000	0,5	1,878600
4,600333	0,5	1,716850
4,608667	0,5	1,547450
4,617000	0,5	1,371100
4,625333	0,5	1,228300
4,633667	0,5	1,104900
4,642000	0,5	1,014700
4,650333	0,5	0,937700
4,658667	0,5	0,885350
4,667000	0,5	0,841550
4,675333	0,5	0,805550
4,683667	0,5	0,786500
4,692000	0,5	0,757850
4,700333	0,5	0,731200
4,708667	0,5	0,726850
4,717000	0,5	0,714250
4,725333	0,5	0,698750
4,733667	0,5	0,692750
4,742000	0,5	0,691800
4,750333	0,5	0,706400
4,758667	0,5	0,701350
4,767000	0,5	0,696400
4,775333	0,5	0,688050
4,783667	0,5	0,690100
4,792000	0,5	0,689650
4,800333	0,5	0,692400
4,808667	0,5	0,688550
4,817000	0,5	0,684750
4,825333	0,5	0,684850
4,833667	0,5	0,683650
4,842000	0,5	0,682750
4,850333	0,5	0,676100
4,858667	0,5	0,691650
4,867000	0,5	0,683200
4,875333	0,5	0,678450
4,883667	0,5	0,682650
4,892000	0,5	0,697000
4,900333	0,5	0,720200
4,908667	0,5	0,739900
4,917000	0,5	0,747350
4,925333	0,5	0,773400
4,933667	0,5	0,797450
4,942000	0,5	0,831450
4,950333	0,5	0,864150
4,958667	0,5	0,918700
4,967000	0,5	0,981000
4,975333	0,5	1,074600
4,983667	0,5	1,195350
4,992000	0,5	1,364200
5,000333	0,5	1,601450
5,008667	0,5	1,936550
5,017000	0,5	2,334900
5,025333	0,5	2,829700
5,033667	0,5	3,382550
5,042000	0,5	3,961650
5,050333	0,5	4,498800
5,058667	0,5	4,908900
5,067000	0,5	5,162800
5,075333	0,5	5,220800
5,083667	0,5	5,094450
5,092000	0,5	4,798350
5,100333	0,5	4,387650
5,108667	0,5	3,901000
5,117000	0,5	3,411950
5,125333	0,5	2,943850
5,133667	0,5	2,524900
5,142000	0,5	2,168950
5,150333	0,5	1,896650
5,158667	0,5	1,666400
5,167000	0,5	1,479700
5,175333	0,5	1,343900
5,183667	0,5	1,236350
5,192000	0,5	1,163700
5,200333	0,5	1,096550
5,208667	0,5	1,038100
5,217000	0,5	0,985350
5,225333	0,5	0,943050
5,233667	0,5	0,912000
5,242000	0,5	0,888250
5,250333	0,5	0,873100
5,258667	0,5	0,867150
5,267000	0,5	0,868300
5,275333	0,5	0,879100
5,283667	0,5	0,882500
5,292000	0,5	0,899200
5,300333	0,5	0,917000
5,308667	0,5	0,920100
5,317000	0,5	0,909250
5,325333	0,5	0,900250
5,333667	0,5	0,889500
5,342000	0,5	0,882200
5,350333	0,5	0,858050
5,358667	0,5	0,833800
5,367000	0,5	0,805750
5,375333	0,5	0,782500
5,383667	0,5	0,753650
5,392000	0,5	0,726500
5,400333	0,5	0,698650
5,408667	0,5	0,666800
5,417000	0,5	0,636250
5,425333	0,5	0,607300
5,433667	0,5	0,577550
5,442000	0,5	0,552950
5,450333	0,5	0,541450
5,458667	0,5	0,510800
5,467000	0,5	0,491900
5,475333	0,5	0,480250
5,483667	0,5	0,481400
5,492000	0,5	0,484400
5,500333	0,5	0,475000
5,508667	0,5	0,467600
5,517000	0,5	0,470900
5,525333	0,5	0,467700
5,533667	0,5	0,474450
5,542000	0,5	0,470500
5,550333	0,5	0,470450
5,558667	0,5	0,467400
5,567000	0,5	0,464900
5,575333	0,5	0,465500
5,583667	0,5	0,450300
5,592000	0,5	0,443250
5,600333	0,5	0,437450
5,608667	0,5	0,414800
5,617000	0,5	0,397150
5,625333	0,5	0,390950
5,633667	0,5	0,385250
5,642000	0,5	0,385900
5,650333	0,5	0,365850
5,658667	0,5	0,360200
5,667000	0,5	0,357500
5,675333	0,5	0,355450
5,683667	0,5	0,357000
5,692000	0,5	0,370000
5,700333	0,5	0,387300
5,708667	0,5	0,414000
5,717000	0,5	0,448250
5,725333	0,5	0,488100
5,733667	0,5	0,514750
5,742000	0,5	0,544150
5,750333	0,5	0,553250
5,758667	0,5	0,540000
5,767000	0,5	0,516550
5,775333	0,5	0,487600
5,783667	0,5	0,461450
5,792000	0,5	0,434900
5,800333	0,5	0,409400
5,808667	0,5	0,396700
5,817000	0,5	0,401000
5,825333	0,5	0,411100
5,833667	0,5	0,431500
5,842000	0,5	0,448450
5,850333	0,5	0,462250
5,858667	0,5	0,463050
5,867000	0,5	0,458400
5,875333	0,5	0,439050
5,883667	0,5	0,417700
5,892000	0,5	0,405300
5,900333	0,5	0,382300
5,908667	0,5	0,363000
5,917000	0,5	0,343350
5,925333	0,5	0,332350
5,933667	0,5	0,328900
5,942000	0,5	0,311450
5,950333	0,5	0,284200
5,958667	0,5	0,260800
5,967000	0,5	0,239550
5,975333	0,5	0,219550
5,983667	0,5	0,196650
5,992000	0,5	0,179600
6,000333	0,5	0,162700
6,008667	0,5	0,153950
6,017000	0,5	0,138800
6,025333	0,5	0,123350
6,033667	0,5	0,105800
6,042000	0,5	0,092500
6,050333	0,5	0,067100
6,058667	0,5	0,050400
6,067000	0,5	0,032750
6,075333	0,5	0,027650
6,083667	0,5	0,031550
6,092000	0,5	0,028000
6,100333	0,5	0,017750
6,108667	0,5	0,013150
6,117000	0,5	0,008750
6,125333	0,5	0,006550
6,133667	0,5	0,001900
6,142000	0,5	-0,004550
6,150333	0,5	-0,007200
6,158667	0,5	-0,013950
6,167000	0,5	-0,018900
6,175333	0,5	-0,026200
6,183667	0,5	-0,022550
6,192000	0,5	-0,022100
6,200333	0,5	-0,028050
6,208667	0,5	-0,022350
6,217000	0,5	-0,007050
6,225333	0,5	0,021850
6,233667	0,5	0,055450
6,242000	0,5	0,086200
6,250333	0,5	0,120300
6,258667	0,5	0,144000
6,267000	0,5	0,163250
6,275333	0,5	0,170650
6,283667	0,5	0,162950
6,292000	0,5	0,149750
6,300333	0,5	0,125450
6,308667	0,5	0,102000
6,317000	0,5	0,068300
6,325333	0,5	0,041650
6,333667	0,5	0,030400
6,342000	0,5	0,008000
6,350333	0,5	-0,013400
6,358667	0,5	-0,026350
6,367000	0,5	-0,033350
6,375333	0,5	-0,025400
6,383667	0,5	-0,031200
6,392000	0,5	-0,030700
6,400333	0,5	-0,033600
6,408667	0,5	-0,031100
6,417000	0,5	-0,029850
6,425333	0,5	-0,020000
6,433667	0,5	-0,016900
6,442000	0,5	-0,010050
6,450333	0,5	0,001400
6,458667	0,5	0,015100
6,467000	0,5	0,023750
6,475333	0,5	0,033350
6,483667	0,5	0,051000
6,492000	0,5	0,041100
6,500333	0,5	0,034100
6,508667	0,5	0,029050
6,517000	0,5	0,028050
6,525333	0,5	0,027000
6,533667	0,5	0,020450
6,542000	0,5	0,006500
6,550333	0,5	0,005050
6,558667	0,5	0,001000
6,567000	0,5	0,004050
6,575333	0,5	0,002200
6,583667	0,5	0,009100
6,592000	0,5	0,014950
6,600333	0,5	0,029350
6,608667	0,5	0,048250
6,617000	0,5	0,068550
6,625333	0,5	0,089400
6,633667	0,5	0,126400
6,642000	0,5	0,137300
6,650333	0,5	0,159050
6,658667	0,5	0,189500
6,667000	0,5	0,233400
6,675333	0,5	0,297000
6,683667	0,5	0,363050
6,692000	0,5	0,465750
6,700333	0,5	0,583500
6,708667	0,5	0,721650
6,717000	0,5	0,856900
6,725333	0,5	0,975500
6,733667	0,5	1,052850
6,742000	0,5	1,084700
6,750333	0,5	1,057350
6,758667	0,5	0,989850
6,767000	0,5	0,867100
6,775333	0,5	0,746050
6,783667	0,5	0,612050
6,792000	0,5	0,489950
6,800333	0,5	0,390550
6,808667	0,5	0,320100
6,817000	0,5	0,284550
6,825333	0,5	0,264800
6,833667	0,5	0,262350
6,842000	0,5	0,279150
6,850333	0,5	0,313050
6,858667	0,5	0,350850
6,867000	0,5	0,381050
6,875333	0,5	0,397700
6,883667	0,5	0,393400
6,892000	0,5	0,369650
6,900333	0,5	0,338650
6,908667	0,5	0,298150
6,917000	0,5	0,266600
6,925333	0,5	0,249100
6,933667	0,5	0,242050
6,942000	0,5	0,240300
6,950333	0,5	0,253550
6,958667	0,5	0,269550
6,967000	0,5	0,291250
6,975333	0,5	0,295250
6,983667	0,5	0,292200
6,992000	0,5	0,275900
7,000333	0,5	0,259950
7,008667	0,5	0,236650
7,017000	0,5	0,222500
7,025333	0,5	0,207000
7,033667	0,5	0,202500
7,042000	0,5	0,209300
7,050333	0,5	0,218700
7,058667	0,5	0,241450
7,067000	0,5	0,274600
7,075333	0,5	0,321950
7,083667	0,5	0,371450
7,092000	0,5	0,430100
7,100333	0,5	0,488700
7,108667	0,5	0,546150
7,117000	0,5	0,581350
7,125333	0,5	0,595250
7,133667	0,5	0,585300
7,142000	0,5	0,574150
7,150333	0,5	0,567700
7,158667	0,5	0,569850
7,167000	0,5	0,585350
7,175333	0,5	0,608100
7,183667	0,5	0,628300
7,192000	0,5	0,643250
7,200333	0,5	0,637050
7,208667	0,5	0,609400
7,217000	0,5	0,579800
7,225333	0,5	0,549000
7,233667	0,5	0,526850
7,242000	0,5	0,556300
7,250333	0,5	0,644200
7,258667	0,5	0,822550
7,267000	0,5	1,093200
7,275333	0,5	1,446700
7,283667	0,5	1,897500
7,292000	0,5	2,402900
7,300333	0,5	2,971000
7,308667	0,5	3,572100
7,317000	0,5	4,232500
7,325333	0,5	4,968050
7,333667	0,5	5,867000
7,342000	0,5	7,065350
7,350333	0,5	8,824950
7,358667	0,5	11,608950
7,367000	0,5	16,139700
7,375333	0,5	23,251250
7,383667	0,5	33,673601
7,392000	0,5	47,311351
7,400333	0,5	62,793951
7,408667	0,5	77,468901
7,417000	0,5	88,220651
7,425333	0,5	92,892251
7,433667	0,5	90,916451
7,442000	0,5	83,383851
7,450333	0,5	72,252251
7,458667	0,5	59,602351
7,467000	0,5	47,072551
7,475333	0,5	35,763851
7,483667	0,5	26,271950
7,492000	0,5	18,848500
7,500333	0,5	13,394400
7,508667	0,5	9,585200
7,517000	0,5	7,025450
7,525333	0,5	5,330300
7,533667	0,5	4,219500
7,542000	0,5	3,510950
7,550333	0,5	3,060000
7,558667	0,5	2,777000
7,567000	0,5	2,577850
7,575333	0,5	2,417800
7,583667	0,5	2,274150
7,592000	0,5	2,129650
7,600333	0,5	1,992550
7,608667	0,5	1,868050
7,617000	0,5	1,775950
7,625333	0,5	1,714000
7,633667	0,5	1,661300
7,642000	0,5	1,612500
7,650333	0,5	1,542650
7,658667	0,5	1,444700
7,667000	0,5	1,345350
7,675333	0,5	1,234950
7,683667	0,5	1,147400
7,692000	0,5	1,085950
7,700333	0,5	1,049250
7,708667	0,5	1,024700
7,717000	0,5	0,993800
7,725333	0,5	0,967750
7,733667	0,5	0,956750
7,742000	0,5	0,965500
7,750333	0,5	0,988500
7,758667	0,5	1,019050
7,767000	0,5	1,045950
7,775333	0,5	1,050350
7,783667	0,5	1,028200
7,792000	0,5	0,989300
7,800333	0,5	0,925950
7,808667	0,5	0,856200
7,817000	0,5	0,787250
7,825333	0,5	0,718050
7,833667	0,5	0,660100
7,842000	0,5	0,614450
7,850333	0,5	0,575250
7,858667	0,5	0,542600
7,867000	0,5	0,508050
7,875333	0,5	0,495400
7,883667	0,5	0,499850
7,892000	0,5	0,529250
7,900333	0,5	0,567800
7,908667	0,5	0,599200
7,917000	0,5	0,615700
7,925333	0,5	0,605600
7,933667	0,5	0,568550
7,942000	0,5	0,520800
7,950333	0,5	0,466550
7,958667	0,5	0,418750
7,967000	0,5	0,369950
7,975333	0,5	0,327900
7,983667	0,5	0,297000
7,992000	0,5	0,283150
8,000333	0,5	0,286700
8,008667	0,5	0,309000
8,017000	0,5	0,343550
8,025333	0,5	0,387700
8,033667	0,5	0,434400
8,042000	0,5	0,469000
8,050333	0,5	0,489800
8,058667	0,5	0,502950
8,067000	0,5	0,509400
8,075333	0,5	0,519250
8,083667	0,5	0,520100
8,092000	0,5	0,520900
8,100333	0,5	0,524850
8,108667	0,5	0,544700
8,117000	0,5	0,583400
8,125333	0,5	0,633650
8,133667	0,5	0,671900
8,142000	0,5	0,670850
8,150333	0,5	0,623000
8,158667	0,5	0,539150
8,167000	0,5	0,442300
8,175333	0,5	0,364900
8,183667	0,5	0,300500
8,192000	0,5	0,265750
8,200333	0,5	0,243100
8,208667	0,5	0,234650
8,217000	0,5	0,229950
8,225333	0,5	0,233900
8,233667	0,5	0,230250
8,242000	0,5	0,228050
8,250333	0,5	0,226200
8,258667	0,5	0,221350
8,267000	0,5	0,223450
8,275333	0,5	0,229400
8,283667	0,5	0,242950
8,292000	0,5	0,267550
8,300333	0,5	0,294900
8,308667	0,5	0,319900
8,317000	0,5	0,345800
8,325333	0,5	0,357600
8,333667	0,5	0,356200
8,342000	0,5	0,340800
8,350333	0,5	0,317950
8,358667	0,5	0,297850
8,367000	0,5	0,276200
8,375333	0,5	0,262600
8,383667	0,5	0,254950
8,392000	0,5	0,248150
8,400333	0,5	0,257750
8,408667	0,5	0,265750
8,417000	0,5	0,280850
8,425333	0,5	0,307000
8,433667	0,5	0,334200
8,442000	0,5	0,371150
8,450333	0,5	0,409700
8,458667	0,5	0,449550
8,467000	0,5	0,491300
8,475333	0,5	0,536150
8,483667	0,5	0,582000
8,492000	0,5	0,628800
8,500333	0,5	0,662550
8,508667	0,5	0,683550
8,517000	0,5	0,682150
8,525333	0,5	0,672400
8,533667	0,5	0,663400
8,542000	0,5	0,660300
8,550333	0,5	0,662350
8,558667	0,5	0,667650
8,567000	0,5	0,677450
8,575333	0,5	0,707150
8,583667	0,5	0,772350
8,592000	0,5	0,891650
8,600333	0,5	1,066250
8,608667	0,5	1,318400
8,617000	0,5	1,653200
8,625333	0,5	2,094900
8,633667	0,5	2,653050
8,642000	0,5	3,333250
8,650333	0,5	4,127250
8,658667	0,5	5,041650
8,667000	0,5	6,128050
8,675333	0,5	7,535000
8,683667	0,5	9,633400
8,692000	0,5	13,114000
8,700333	0,5	19,023000
8,708667	0,5	28,412700
8,717000	0,5	41,716801
8,725333	0,5	57,801851
8,733667	0,5	73,972651
8,742000	0,5	86,737151
8,750333	0,5	93,237601
8,758667	0,5	92,316901
8,767000	0,5	84,650601
8,775333	0,5	72,216201
8,783667	0,5	57,641501
8,792000	0,5	43,371801
8,800333	0,5	31,072150
8,808667	0,5	21,500400
8,817000	0,5	14,631600
8,825333	0,5	10,030450
8,833667	0,5	7,086350
8,842000	0,5	5,249000
8,850333	0,5	4,107800
8,858667	0,5	3,365700
8,867000	0,5	2,862650
8,875333	0,5	2,507950
8,883667	0,5	2,248450
8,892000	0,5	2,061900
8,900333	0,5	1,924100
8,908667	0,5	1,816950
8,917000	0,5	1,722600
8,925333	0,5	1,640500
8,933667	0,5	1,556950
8,942000	0,5	1,479050
8,950333	0,5	1,407100
8,958667	0,5	1,349500
8,967000	0,5	1,300650
8,975333	0,5	1,258100
8,983667	0,5	1,225600
8,992000	0,5	1,204450
9,000333	0,5	1,194300
9,008667	0,5	1,188150
9,017000	0,5	1,190850
9,025333	0,5	1,197000
9,033667	0,5	1,197150
9,042000	0,5	1,194400
9,050333	0,5	1,187100
9,058667	0,5	1,187750
9,067000	0,5	1,207650
9,075333	0,5	1,238900
9,083667	0,5	1,276250
9,092000	0,5	1,294100
9,100333	0,5	1,285650
9,108667	0,5	1,247700
9,117000	0,5	1,185000
9,125333	0,5	1,111850
9,133667	0,5	1,036700
9,142000	0,5	0,973250
9,150333	0,5	0,916350
9,158667	0,5	0,873350
9,167000	0,5	0,834250
9,175333	0,5	0,810650
9,183667	0,5	0,801200
9,192000	0,5	0,802800
9,200333	0,5	0,822450
9,208667	0,5	0,850600
9,217000	0,5	0,888100
9,225333	0,5	0,920400
9,233667	0,5	0,936650
9,242000	0,5	0,932700
9,250333	0,5	0,902750
9,258667	0,5	0,858100
9,267000	0,5	0,808450
9,275333	0,5	0,759350
9,283667	0,5	0,720700
9,292000	0,5	0,697850
9,300333	0,5	0,682800
9,308667	0,5	0,674950
9,317000	0,5	0,679350
9,325333	0,5	0,688750
9,333667	0,5	0,701650
9,342000	0,5	0,714750
9,350333	0,5	0,726400
9,358667	0,5	0,729000
9,367000	0,5	0,728100
9,375333	0,5	0,720300
9,383667	0,5	0,706650
9,392000	0,5	0,697500
9,400333	0,5	0,687100
9,408667	0,5	0,681300
9,417000	0,5	0,674750
9,425333	0,5	0,676400
9,433667	0,5	0,678650
9,442000	0,5	0,690250
9,450333	0,5	0,703400
9,458667	0,5	0,718550
9,467000	0,5	0,734500
9,475333	0,5	0,756550
9,483667	0,5	0,775050
9,492000	0,5	0,790100
9,500333	0,5	0,799200
9,508667	0,5	0,809200
9,517000	0,5	0,813700
9,525333	0,5	0,818050
9,533667	0,5	0,821350
9,542000	0,5	0,821250
9,550333	0,5	0,822050
9,558667	0,5	0,819150
9,567000	0,5	0,809550
9,575333	0,5	0,797300
9,583667	0,5	0,790250
9,592000	0,5	0,790650
9,600333	0,5	0,791350
9,608667	0,5	0,805950
9,617000	0,5	0,830900
9,625333	0,5	0,870300
9,633667	0,5	0,923350
9,642000	0,5	0,982800
9,650333	0,5	1,048150
9,658667	0,5	1,105200
9,667000	0,5	1,154000
9,675333	0,5	1,188350
9,683667	0,5	1,205400
9,692000	0,5	1,213000
9,700333	0,5	1,217900
9,708667	0,5	1,223400
9,717000	0,5	1,234400
9,725333	0,5	1,237600
9,733667	0,5	1,225600
9,742000	0,5	1,191100
9,750333	0,5	1,131600
9,758667	0,5	1,052350
9,767000	0,5	0,974250
9,775333	0,5	0,914850
9,783667	0,5	0,869450
9,792000	0,5	0,835900
9,800333	0,5	0,811350
9,808667	0,5	0,793550
9,817000	0,5	0,779600
9,825333	0,5	0,763700
9,833667	0,5	0,747900
9,842000	0,5	0,732800
9,850333	0,5	0,715650
9,858667	0,5	0,696550
9,867000	0,5	0,675100
9,875333	0,5	0,660950
9,883667	0,5	0,647350
9,892000	0,5	0,639650
9,900333	0,5	0,632700
9,908667	0,5	0,622700
9,917000	0,5	0,619550
9,925333	0,5	0,614600
9,933667	0,5	0,610100
9,942000	0,5	0,612150
9,950333	0,5	0,612650
9,958667	0,5	0,612350
9,967000	0,5	0,621950
9,975333	0,5	0,631600
9,983667	0,5	0,641700
9,992000	0,5	0,650150
10,000333	0,5	0,659600
10,008667	0,5	0,669550
10,017000	0,5	0,677550
10,025333	0,5	0,680400
10,033667	0,5	0,685150
10,042000	0,5	0,686350
10,050333	0,5	0,682650
10,058667	0,5	0,667900
10,067000	0,5	0,657100
10,075333	0,5	0,648700
10,083667	0,5	0,647700
10,092000	0,5	0,651600
10,100333	0,5	0,660500
10,108667	0,5	0,690450
10,117000	0,5	0,738500
10,125333	0,5	0,819300
10,133667	0,5	0,932550
10,142000	0,5	1,066300
10,150333	0,5	1,207100
10,158667	0,5	1,330800
10,167000	0,5	1,397150
10,175333	0,5	1,411550
10,183667	0,5	1,353650
10,192000	0,5	1,247900
10,200333	0,5	1,122100
10,208667	0,5	0,995050
10,217000	0,5	0,886900
10,225333	0,5	0,796500
10,233667	0,5	0,731800
10,242000	0,5	0,682850
10,250333	0,5	0,645050
10,258667	0,5	0,618350
10,267000	0,5	0,597450
10,275333	0,5	0,584400
10,283667	0,5	0,571900
10,292000	0,5	0,566250
10,300333	0,5	0,563400
10,308667	0,5	0,559550
10,317000	0,5	0,556900
10,325333	0,5	0,557500
10,333667	0,5	0,559850
10,342000	0,5	0,559850
10,350333	0,5	0,563500
10,358667	0,5	0,569300
10,367000	0,5	0,575800
10,375333	0,5	0,585550
10,383667	0,5	0,594000
10,392000	0,5	0,594300
10,400333	0,5	0,598700
10,408667	0,5	0,595150
10,417000	0,5	0,593550
10,425333	0,5	0,592300
10,433667	0,5	0,589900
10,442000	0,5	0,591900
10,450333	0,5	0,591150
10,458667	0,5	0,593300
10,467000	0,5	0,593350
10,475333	0,5	0,605850
10,483667	0,5	0,626350
10,492000	0,5	0,663850
10,500333	0,5	0,727050
10,508667	0,5	0,815250
10,517000	0,5	0,917050
10,525333	0,5	1,009850
10,533667	0,5	1,068650
10,542000	0,5	1,084550
10,550333	0,5	1,049050
10,558667	0,5	0,983350
10,567000	0,5	0,896650
10,575333	0,5	0,809350
10,583667	0,5	0,729300
10,592000	0,5	0,664900
10,600333	0,5	0,607750
10,608667	0,5	0,558950
10,617000	0,5	0,520200
10,625333	0,5	0,490050
10,633667	0,5	0,464350
10,642000	0,5	0,441700
10,650333	0,5	0,430950
10,658667	0,5	0,419850
10,667000	0,5	0,426700
10,675333	0,5	0,427800
10,683667	0,5	0,435750
10,692000	0,5	0,448200
10,700333	0,5	0,462750
10,708667	0,5	0,474800
10,717000	0,5	0,492700
10,725333	0,5	0,505900
10,733667	0,5	0,524350
10,742000	0,5	0,540950
10,750333	0,5	0,555900
10,758667	0,5	0,571050
10,767000	0,5	0,585950
10,775333	0,5	0,608000
10,783667	0,5	0,629350
10,792000	0,5	0,660300
10,800333	0,5	0,711250
10,808667	0,5	0,772100
10,817000	0,5	0,853900
10,825333	0,5	0,955350
10,833667	0,5	1,055700
10,842000	0,5	1,141800
10,850333	0,5	1,191950
10,858667	0,5	1,194850
10,867000	0,5	1,137350
10,875333	0,5	1,045450
10,883667	0,5	0,923150
10,892000	0,5	0,806350
10,900333	0,5	0,705550
10,908667	0,5	0,633100
10,917000	0,5	0,582400
10,925333	0,5	0,561400
10,933667	0,5	0,548950
10,942000	0,5	0,557800
10,950333	0,5	0,577950
10,958667	0,5	0,616300
10,967000	0,5	0,674350
10,975333	0,5	0,737700
10,983667	0,5	0,813600
10,992000	0,5	0,877450
11,000333	0,5	0,927900
11,008667	0,5	0,948050
11,017000	0,5	0,942000
11,025333	0,5	0,904000
11,033667	0,5	0,852350
11,042000	0,5	0,797500
11,050333	0,5	0,745800
11,058667	0,5	0,701350
11,067000	0,5	0,677800
11,075333	0,5	0,665700
11,083667	0,5	0,666200
11,092000	0,5	0,669250
11,100333	0,5	0,685000
11,108667	0,5	0,711650
11,117000	0,5	0,736950
11,125333	0,5	0,748200
11,133667	0,5	0,739300
11,142000	0,5	0,703450
11,150333	0,5	0,649250
11,158667	0,5	0,587350
11,167000	0,5	0,523900
11,175333	0,5	0,471350
11,183667	0,5	0,425250
11,192000	0,5	0,395600
11,200333	0,5	0,371200
11,208667	0,5	0,356400
11,217000	0,5	0,353650
11,225333	0,5	0,351450
11,233667	0,5	0,358450
11,242000	0,5	0,356550
11,250333	0,5	0,363200
11,258667	0,5	0,380050
11,267000	0,5	0,392750
11,275333	0,5	0,409650
11,283667	0,5	0,423600
11,292000	0,5	0,443850
11,300333	0,5	0,468050
11,308667	0,5	0,497650
11,317000	0,5	0,527100
11,325333	0,5	0,562650
11,333667	0,5	0,614100
11,342000	0,5	0,679850
11,350333	0,5	0,755300
11,358667	0,5	0,852200
11,367000	0,5	0,947800
11,375333	0,5	1,027850
11,383667	0,5	1,082650
11,392000	0,5	1,095750
11,400333	0,5	1,083050
11,408667	0,5	1,035450
11,417000	0,5	0,969700
11,425333	0,5	0,894550
11,433667	0,5	0,819450
11,442000	0,5	0,744950
11,450333	0,5	0,687200
11,458667	0,5	0,641400
11,467000	0,5	0,609950
11,475333	0,5	0,585400
11,483667	0,5	0,572250
11,492000	0,5	0,563750
11,500333	0,5	0,551700
11,508667	0,5	0,551950
11,517000	0,5	0,546000
11,525333	0,5	0,529050
11,533667	0,5	0,511450
11,542000	0,5	0,484700
11,550333	0,5	0,459450
11,558667	0,5	0,431450
11,567000	0,5	0,407600
11,575333	0,5	0,391850
11,583667	0,5	0,382400
11,592000	0,5	0,375300
11,600333	0,5	0,368250
11,608667	0,5	0,361600
11,617000	0,5	0,348150
11,625333	0,5	0,343500
11,633667	0,5	0,341100
11,642000	0,5	0,340700
11,650333	0,5	0,346100
11,658667	0,5	0,368500
11,667000	0,5	0,387050
11,675333	0,5	0,406700
11,683667	0,5	0,418800
11,692000	0,5	0,425600
11,700333	0,5	0,431450
11,708667	0,5	0,425400
11,717000	0,5	0,413100
11,725333	0,5	0,397050
11,733667	0,5	0,375250
11,742000	0,5	0,357450
11,750333	0,5	0,343450
11,758667	0,5	0,328700
11,767000	0,5	0,316550
11,775333	0,5	0,307700
11,783667	0,5	0,299400
11,792000	0,5	0,292250
11,800333	0,5	0,285550
11,808667	0,5	0,285750
11,817000	0,5	0,279500
11,825333	0,5	0,277550
11,833667	0,5	0,272350
11,842000	0,5	0,273450
11,850333	0,5	0,271450
11,858667	0,5	0,272100
11,867000	0,5	0,266850
11,875333	0,5	0,272350
11,883667	0,5	0,275800
11,892000	0,5	0,286550
11,900333	0,5	0,304250
11,908667	0,5	0,333100
11,917000	0,5	0,377950
11,925333	0,5	0,440250
11,933667	0,5	0,503300
11,942000	0,5	0,562950
11,950333	0,5	0,613600
11,958667	0,5	0,647400
11,967000	0,5	0,645300
11,975333	0,5	0,617250
11,983667	0,5	0,559750
11,992000	0,5	0,497000
12,000333	0,5	0,428850
12,008667	0,5	0,365800
12,017000	0,5	0,307850
12,025333	0,5	0,266950
12,033667	0,5	0,234950
12,042000	0,5	0,213600
12,050333	0,5	0,203300
12,058667	0,5	0,194200
12,067000	0,5	0,193600
12,075333	0,5	0,197450
12,083667	0,5	0,200800
12,092000	0,5	0,204150
12,100333	0,5	0,225650
12,108667	0,5	0,242250
12,117000	0,5	0,259000
12,125333	0,5	0,273300
12,133667	0,5	0,291950
12,142000	0,5	0,303400
12,150333	0,5	0,309150
12,158667	0,5	0,303800
12,167000	0,5	0,295200
12,175333	0,5	0,280350
12,183667	0,5	0,263850
12,192000	0,5	0,247050
12,200333	0,5	0,231850
12,208667	0,5	0,219150
12,217000	0,5	0,206000
12,225333	0,5	0,203250
12,233667	0,5	0,186050
12,242000	0,5	0,179400
12,250333	0,5	0,177050
12,258667	0,5	0,174850
12,267000	0,5	0,166900
12,275333	0,5	0,158400
12,283667	0,5	0,157000
12,292000	0,5	0,158950
12,300333	0,5	0,159200
12,308667	0,5	0,165950
12,317000	0,5	0,165250
12,325333	0,5	0,178300
12,333667	0,5	0,191500
12,342000	0,5	0,211900
12,350333	0,5	0,228950
12,358667	0,5	0,251850
12,367000	0,5	0,268600
12,375333	0,5	0,270150
12,383667	0,5	0,258500
12,392000	0,5	0,251800
12,400333	0,5	0,229850
12,408667	0,5	0,195850
12,417000	0,5	0,170300
12,425333	0,5	0,131150
12,433667	0,5	0,115450
12,442000	0,5	0,096900
12,450333	0,5	0,089750
12,458667	0,5	0,075350
12,467000	0,5	0,073950
12,475333	0,5	0,066000
12,483667	0,5	0,063700
12,492000	0,5	0,060850
12,500333	0,5	0,056850
12,508667	0,5	0,052200
12,517000	0,5	0,050350
12,525333	0,5	0,049600
12,533667	0,5	0,046750
12,542000	0,5	0,057350
12,550333	0,5	0,064150
12,558667	0,5	0,073000
12,567000	0,5	0,082850
12,575333	0,5	0,090000
12,583667	0,5	0,102700
12,592000	0,5	0,116900
12,600333	0,5	0,119850
12,608667	0,5	0,118850
12,617000	0,5	0,107550
12,625333	0,5	0,097750
12,633667	0,5	0,082050
12,642000	0,5	0,066400
12,650333	0,5	0,047300
12,658667	0,5	0,034900
12,667000	0,5	0,028400
12,675333	0,5	0,016800
12,683667	0,5	0,004850
12,692000	0,5	0,004700
12,700333	0,5	0,000250
12,708667	0,5	-0,006650
12,717000	0,5	-0,012150
12,725333	0,5	-0,019200
12,733667	0,5	-0,017700
12,742000	0,5	-0,021350
12,750333	0,5	-0,022600
12,758667	0,5	-0,020200
12,767000	0,5	-0,015750
12,775333	0,5	-0,012350
12,783667	0,5	-0,004750
12,792000	0,5	0,007750
12,800333	0,5	0,018800
12,808667	0,5	0,031050
12,817000	0,5	0,037300
12,825333	0,5	0,034800
12,833667	0,5	0,032250
12,842000	0,5	0,029550
12,850333	0,5	0,028350
12,858667	0,5	0,022100
12,867000	0,5	0,019700
12,875333	0,5	0,033800
12,883667	0,5	0,058850
12,892000	0,5	0,091550
12,900333	0,5	0,138950
12,908667	0,5	0,189850
12,917000	0,5	0,243250
12,925333	0,5	0,277750
12,933667	0,5	0,293050
12,942000	0,5	0,285100
12,950333	0,5	0,250900
12,958667	0,5	0,214200
12,967000	0,5	0,173000
12,975333	0,5	0,125450
12,983667	0,5	0,096900
12,992000	0,5	0,060650
13,000333	0,5	0,027600
13,008667	0,5	-0,000050
13,017000	0,5	-0,025400
13,025333	0,5	-0,032200
13,033667	0,5	-0,030550
13,042000	0,5	-0,017150
13,050333	0,5	0,001750
13,058667	0,5	0,037700
13,067000	0,5	0,066900
13,075333	0,5	0,095400
13,083667	0,5	0,112500
13,092000	0,5	0,110550
13,100333	0,5	0,095800
13,108667	0,5	0,070750
13,117000	0,5	0,037650
13,125333	0,5	0,005150
13,133667	0,5	-0,016100
13,142000	0,5	-0,037300
13,150333	0,5	-0,055150
13,158667	0,5	-0,073500
13,167000	0,5	-0,080250
13,175333	0,5	-0,079650
13,183667	0,5	-0,068850
13,192000	0,5	-0,059850
13,200333	0,5	-0,040700
13,208667	0,5	-0,014450
13,217000	0,5	0,019700
13,225333	0,5	0,058200
13,233667	0,5	0,105550
13,242000	0,5	0,144150
13,250333	0,5	0,170100
13,258667	0,5	0,183600
13,267000	0,5	0,165400
13,275333	0,5	0,146750
13,283667	0,5	0,112800
13,292000	0,5	0,065200
13,300333	0,5	0,021700
13,308667	0,5	-0,022550
13,317000	0,5	-0,049850
13,325333	0,5	-0,064300
13,333667	0,5	-0,078500
13,342000	0,5	-0,075000
13,350333	0,5	-0,067650
13,358667	0,5	-0,053650
13,367000	0,5	-0,066300
13,375333	0,5	-0,154400
13,383667	0,5	-0,329950
13,392000	0,5	-0,532900
13,400333	0,5	-0,696050
13,408667	0,5	-0,808100
13,417000	0,5	-0,882850
13,425333	0,5	-0,913800
13,433667	0,5	-0,935000
13,442000	0,5	-0,956600
13,450333	0,5	-0,977250
13,458667	0,5	-1,004750
13,467000	0,5	-1,021850
13,475333	0,5	-1,039950
13,483667	0,5	-1,046950
13,492000	0,5	-1,055450
13,500333	0,5	-1,047800
13,508667	0,5	-1,038100
13,517000	0,5	-1,021700
13,525333	0,5	-1,008800
13,533667	0,5	-0,992350
13,542000	0,5	-0,987450
13,550333	0,5	-0,982900
13,558667	0,5	-0,984850
13,567000	0,5	-0,987150
13,575333	0,5	-0,982600
13,583667	0,5	-0,987150
13,592000	0,5	-0,987600
13,600333	0,5	-0,997900
13,608667	0,5	-0,996600
13,617000	0,5	-0,987950
13,625333	0,5	-0,978600
13,633667	0,5	-0,971100
13,642000	0,5	-0,960100
13,650333	0,5	-0,953950
13,658667	0,5	-0,946700
13,667000	0,5	-0,944150
13,675333	0,5	-0,946300
13,683667	0,5	-0,949500
13,692000	0,5	-0,954350
13,700333	0,5	-0,954100
13,708667	0,5	-0,958700
13,717000	0,5	-0,965300
13,725333	0,5	-0,957150
13,733667	0,5	-0,959050
13,742000	0,5	-0,960400
13,750333	0,5	-0,965700
13,758667	0,5	-0,967000
13,767000	0,5	-0,955400
13,775333	0,5	-0,950850
13,783667	0,5	-0,940400
13,792000	0,5	-0,938600
13,800333	0,5	-0,932000
13,808667	0,5	-0,929450
13,817000	0,5	-0,925950
13,825333	0,5	-0,926100
13,833667	0,5	-0,922200
13,842000	0,5	-0,919700
13,850333	0,5	-0,912350
13,858667	0,5	-0,912700
13,867000	0,5	-0,898050
13,875333	0,5	-0,891800
13,883667	0,5	-0,884850
13,892000	0,5	-0,882700
13,900333	0,5	-0,880450
13,908667	0,5	-0,870750
13,917000	0,5	-0,854700
13,925333	0,5	-0,849650
13,933667	0,5	-0,840750
13,942000	0,5	-0,830600
13,950333	0,5	-0,821950
13,958667	0,5	-0,812050
13,967000	0,5	-0,800400
13,975333	0,5	-0,786850
13,983667	0,5	-0,775900
13,992000	0,5	-0,757900
14,000333	0,5	-0,747550
14,008667	0,5	-0,734450
14,017000	0,5	-0,713850
14,025333	0,5	-0,697900
14,033667	0,5	-0,687250
14,042000	0,5	-0,676400
14,050333	0,5	-0,670750
14,058667	0,5	-0,654300
14,067000	0,5	-0,637800
14,075333	0,5	-0,620500
14,083667	0,5	-0,603900
14,092000	0,5	-0,590900
14,100333	0,5	-0,572100
14,108667	0,5	-0,556500
14,117000	0,5	-0,543050
14,125333	0,5	-0,531850
14,133667	0,5	-0,513250
14,142000	0,5	-0,500600
14,150333	0,5	-0,495700
14,158667	0,5	-0,480500
14,167000	0,5	-0,464750
14,175333	0,5	-0,455400
14,183667	0,5	-0,449750
14,192000	0,5	-0,448900
14,200333	0,5	-0,441850
14,208667	0,5	-0,434600
14,217000	0,5	-0,421100
14,225333	0,5	-0,418100
14,233667	0,5	-0,413600
14,242000	0,5	-0,409900
14,250333	0,5	-0,404300
14,258667	0,5	-0,400850
14,267000	0,5	-0,397600
14,275333	0,5	-0,395750
14,283667	0,5	-0,393450
14,292000	0,5	-0,393150
14,300333	0,5	-0,401050
14,308667	0,5	-0,394300
14,317000	0,5	-0,389600
14,325333	0,5	-0,395950
14,333667	0,5	-0,402900
14,342000	0,5	-0,416300
14,350333	0,5	-0,415450
14,358667	0,5	-0,415550
14,367000	0,5	-0,416300
14,375333	0,5	-0,416200
14,383667	0,5	-0,419900
14,392000	0,5	-0,416450
14,400333	0,5	-0,422400
14,408667	0,5	-0,416950
14,417000	0,5	-0,415050
14,425333	0,5	-0,408700
14,433667	0,5	-0,401300
14,442000	0,5	-0,393100
14,450333	0,5	-0,392800
14,458667	0,5	-0,362800
14,467000	0,5	-0,344200
14,475333	0,5	-0,331450
14,483667	0,5	-0,322450
14,492000	0,5	-0,333900
14,500333	0,5	-0,327900
14,508667	0,5	-0,346950
14,517000	0,5	-0,363450
14,525333	0,5	-0,387150
14,533667	0,5	-0,405600
14,542000	0,5	-0,427850
14,550333	0,5	-0,439100
14,558667	0,5	-0,451300
14,567000	0,5	-0,463000
14,575333	0,5	-0,468650
14,583667	0,5	-0,467850
14,592000	0,5	-0,479800
14,600333	0,5	-0,486050
14,608667	0,5	-0,484000
14,617000	0,5	-0,486350
14,625333	0,5	-0,493550
14,633667	0,5	-0,503150
14,642000	0,5	-0,506200
14,650333	0,5	-0,508800
14,658667	0,5	-0,514200
14,667000	0,5	-0,519800
14,675333	0,5	-0,523450
14,683667	0,5	-0,527100
14,692000	0,5	-0,528800
14,700333	0,5	-0,537450
14,708667	0,5	-0,536550
14,717000	0,5	-0,546500
14,725333	0,5	-0,550400
14,733667	0,5	-0,551250
14,742000	0,5	-0,562600
14,750333	0,5	-0,562200
14,758667	0,5	-0,563300
14,767000	0,5	-0,567000
14,775333	0,5	-0,576900
14,783667	0,5	-0,584750
14,792000	0,5	-0,591800
14,800333	0,5	-0,591200
14,808667	0,5	-0,594000
14,817000	0,5	-0,595200
14,825333	0,5	-0,595050
14,833667	0,5	-0,596250
14,842000	0,5	-0,596400
14,850333	0,5	-0,595600
14,858667	0,5	-0,597700
14,867000	0,5	-0,596300
14,875333	0,5	-0,600850
14,883667	0,5	-0,600800
14,892000	0,5	-0,613800
14,900333	0,5	-0,604050
14,908667	0,5	-0,607050
14,917000	0,5	-0,606300
14,925333	0,5	-0,621300
14,933667	0,5	-0,627750
14,942000	0,5	-0,627400
14,950333	0,5	-0,625150
14,958667	0,5	-0,628850
14,967000	0,5	-0,632550
14,975333	0,5	-0,634050
14,983667	0,5	-0,635250
14,992000	0,5	-0,634650
15,000333	0,5	-0,641100
15,008667	0,5	-0,642150
15,017000	0,5	-0,642400
15,025333	0,5	-0,640950
15,033667	0,5	-0,645950
15,042000	0,5	-0,646600
15,050333	0,5	-0,638550
15,058667	0,5	-0,638100
15,067000	0,5	-0,638000
15,075333	0,5	-0,641600
15,083667	0,5	-0,649300
15,092000	0,5	-0,646100
15,100333	0,5	-0,651050
15,108667	0,5	-0,647200
15,117000	0,5	-0,649700
15,125333	0,5	-0,645350
15,133667	0,5	-0,641800
15,142000	0,5	-0,632450
15,150333	0,5	-0,621600
15,158667	0,5	-0,607950
15,167000	0,5	-0,587750
15,175333	0,5	-0,578300
15,183667	0,5	-0,584200
15,192000	0,5	-0,586150
15,200333	0,5	-0,594850
15,208667	0,5	-0,620550
15,217000	0,5	-0,635950
15,225333	0,5	-0,661650
15,233667	0,5	-0,667950
15,242000	0,5	-0,676650
15,250333	0,5	-0,670750
15,258667	0,5	-0,674250
15,267000	0,5	-0,665800
15,275333	0,5	-0,658800
15,283667	0,5	-0,654450
15,292000	0,5	-0,655950
15,300333	0,5	-0,664700
15,308667	0,5	-0,677600
15,317000	0,5	-0,692850
15,325333	0,5	-0,707150
15,333667	0,5	-0,707100
15,342000	0,5	-0,715000
15,350333	0,5	-0,709600
15,358667	0,5	-0,713500
15,367000	0,5	-0,717500
15,375333	0,5	-0,726200
15,383667	0,5	-0,727950
15,392000	0,5	-0,728050
15,400333	0,5	-0,736950
15,408667	0,5	-0,743550
15,417000	0,5	-0,756150
15,425333	0,5	-0,758450
15,433667	0,5	-0,771450
15,442000	0,5	-0,771350
15,450333	0,5	-0,785200
15,458667	0,5	-0,786950
15,467000	0,5	-0,788250
15,475333	0,5	-0,794600
15,483667	0,5	-0,801550
15,492000	0,5	-0,788650
15,500333	0,5	-0,788050
15,508667	0,5	-0,794300
15,517000	0,5	-0,801650
15,525333	0,5	-0,810400
15,533667	0,5	-0,806800
15,542000	0,5	-0,815000
15,550333	0,5	-0,811150
15,558667	0,5	-0,814000
15,567000	0,5	-0,813500
15,575333	0,5	-0,817200
15,583667	0,5	-0,820800
15,592000	0,5	-0,827350
15,600333	0,5	-0,837950
15,608667	0,5	-0,844050
15,617000	0,5	-0,842500
15,625333	0,5	-0,867150
15,633667	0,5	-0,866550
15,642000	0,5	-0,871600
15,650333	0,5	-0,874050
15,658667	0,5	-0,885600
15,667000	0,5	-0,900500
15,675333	0,5	-0,898950
15,683667	0,5	-0,897600
15,692000	0,5	-0,899050
15,700333	0,5	-0,901800
15,708667	0,5	-0,903000
15,717000	0,5	-0,906050
15,725333	0,5	-0,910250
15,733667	0,5	-0,911050
15,742000	0,5	-0,911150
15,750333	0,5	-0,919750
15,758667	0,5	-0,915000
15,767000	0,5	-0,914800
15,775333	0,5	-0,925250
15,783667	0,5	-0,917850
15,792000	0,5	-0,914100
15,800333	0,5	-0,920200
15,808667	0,5	-0,925750
15,817000	0,5	-0,940500
15,825333	0,5	-0,942500
15,833667	0,5	-0,943600
15,842000	0,5	-0,941300
15,850333	0,5	-0,944250
15,858667	0,5	-0,941400
15,867000	0,5	-0,941200
15,875333	0,5	-0,942450
15,883667	0,5	-0,943200
15,892000	0,5	-0,946900
15,900333	0,5	-0,949300
15,908667	0,5	-0,954350
15,917000	0,5	-0,955550
15,925333	0,5	-0,965400
15,933667	0,5	-0,959450
15,942000	0,5	-0,969450
15,950333	0,5	-0,971650
15,958667	0,5	-0,984150
15,967000	0,5	-0,998350
15,975333	0,5	-0,994700
15,983667	0,5	-0,991200
15,992000	0,5	-0,992100
16,000333	0,5	-0,989600
16,008667	0,5	-0,992100
16,017000	0,5	-0,993350
16,025333	0,5	-0,990550
16,033667	0,5	-0,990750
16,042000	0,5	-0,988650
16,050333	0,5	-0,992000
16,058667	0,5	-0,987650
16,067000	0,5	-1,001500
16,075333	0,5	-0,996750
16,083667	0,5	-0,994450
16,092000	0,5	-0,995350
16,100333	0,5	-1,001300
16,108667	0,5	-1,013900
16,117000	0,5	-1,018300
16,125333	0,5	-1,015400
16,133667	0,5	-1,021350
16,142000	0,5	-1,016550
16,150333	0,5	-1,019800
16,158667	0,5	-1,014350
16,167000	0,5	-1,020000
16,175333	0,5	-1,016800
16,183667	0,5	-1,020550
16,192000	0,5	-1,025600
16,200333	0,5	-1,022050
16,208667	0,5	-1,029150
16,217000	0,5	-1,039050
16,225333	0,5	-1,034050
16,233667	0,5	-1,026500
16,242000	0,5	-1,038550
16,250333	0,5	-1,043100
16,258667	0,5	-1,057450
16,267000	0,5	-1,051550
16,275333	0,5	-1,059350
16,283667	0,5	-1,054850
16,292000	0,5	-1,066900
16,300333	0,5	-1,065400
16,308667	0,5	-1,070800
16,317000	0,5	-1,068950
16,325333	0,5	-1,073100
16,333667	0,5	-1,077950
16,342000	0,5	-1,083300
16,350333	0,5	-1,081550
16,358667	0,5	-1,089050
16,367000	0,5	-1,094300
16,375333	0,5	-1,088050
16,383667	0,5	-1,087500
16,392000	0,5	-1,096800
16,400333	0,5	-1,106900
16,408667	0,5	-1,115600
16,417000	0,5	-1,116000
16,425333	0,5	-1,113200
16,433667	0,5	-1,119700
16,442000	0,5	-1,115650
16,450333	0,5	-1,120650
16,458667	0,5	-1,121350
16,467000	0,5	-1,118750
16,475333	0,5	-1,119150
16,483667	0,5	-1,124550
16,492000	0,5	-1,132250
16,500333	0,5	-1,133050
16,508667	0,5	-1,150100
16,517000	0,5	-1,137750
16,525333	0,5	-1,130050
16,533667	0,5	-1,134650
16,542000	0,5	-1,145950
16,550333	0,5	-1,162200
16,558667	0,5	-1,163500
16,567000	0,5	-1,156150
16,575333	0,5	-1,159100
16,583667	0,5	-1,159650
16,592000	0,5	-1,162250
16,600333	0,5	-1,161450
16,608667	0,5	-1,163800
16,617000	0,5	-1,160300
16,625333	0,5	-1,166450
16,633667	0,5	-1,164300
16,642000	0,5	-1,171100
16,650333	0,5	-1,159900
16,658667	0,5	-1,179550
16,667000	0,5	-1,161800
16,675333	0,5	-1,168000
16,683667	0,5	-1,165950
16,692000	0,5	-1,176100
16,700333	0,5	-1,195400
16,708667	0,5	-1,182950
16,717000	0,5	-1,186250
16,725333	0,5	-1,189300
16,733667	0,5	-1,195800
16,742000	0,5	-1,194400
16,750333	0,5	-1,198050
16,758667	0,5	-1,194750
16,767000	0,5	-1,197600
16,775333	0,5	-1,198850
16,783667	0,5	-1,204050
16,792000	0,5	-1,199850
16,800333	0,5	-1,205300
16,808667	0,5	-1,214550
16,817000	0,5	-1,207350
16,825333	0,5	-1,208900
16,833667	0,5	-1,215400
16,842000	0,5	-1,220950
16,850333	0,5	-1,235300
16,858667	0,5	-1,234100
16,867000	0,5	-1,229750
16,875333	0,5	-1,229400
16,883667	0,5	-1,227000
16,892000	0,5	-1,229750
16,900333	0,5	-1,228750
16,908667	0,5	-1,227650
16,917000	0,5	-1,227800
16,925333	0,5	-1,230750
16,933667	0,5	-1,226250
16,942000	0,5	-1,231500
16,950333	0,5	-1,230700
16,958667	0,5	-1,233000
16,967000	0,5	-1,219800
16,975333	0,5	-1,225900
16,983667	0,5	-1,226550
16,992000	0,5	-1,240100
17,000333	0,5	-1,236100
17,008667	0,5	-1,228050
17,017000	0,5	-1,224850
17,025333	0,5	-1,225100
17,033667	0,5	-1,221500
17,042000	0,5	-1,221550
17,050333	0,5	-1,226200
17,058667	0,5	-1,218200
17,067000	0,5	-1,223350
17,075333	0,5	-1,220200
17,083667	0,5	-1,217700
17,092000	0,5	-1,213750
17,100333	0,5	-1,221800
17,108667	0,5	-1,206250
17,117000	0,5	-1,197050
17,125333	0,5	-1,193150
17,133667	0,5	-1,203250
17,142000	0,5	-1,210150
17,150333	0,5	-1,216500
17,158667	0,5	-1,213750
17,167000	0,5	-1,218550
17,175333	0,5	-1,220300
17,183667	0,5	-1,227400
17,192000	0,5	-1,230150
17,200333	0,5	-1,231200
17,208667	0,5	-1,235100
17,217000	0,5	-1,237600
17,225333	0,5	-1,242800
17,233667	0,5	-1,232550
17,242000	0,5	-1,245550
17,250333	0,5	-1,244400
17,258667	0,5	-1,236350
17,267000	0,5	-1,230600
17,275333	0,5	-1,239800
17,283667	0,5	-1,244850
17,292000	0,5	-1,252950
17,300333	0,5	-1,242750
17,308667	0,5	-1,243700
17,317000	0,5	-1,237250
17,325333	0,5	-1,235850
17,333667	0,5	-1,231000
17,342000	0,5	-1,230250
17,350333	0,5	-1,226500
17,358667	0,5	-1,223400
17,367000	0,5	-1,225600
17,375333	0,5	-1,221350
17,383667	0,5	-1,216050
17,392000	0,5	-1,228800
17,400333	0,5	-1,216150
17,408667	0,5	-1,207400
17,417000	0,5	-1,204300
17,425333	0,5	-1,204000
17,433667	0,5	-1,219450
17,442000	0,5	-1,212800
17,450333	0,5	-1,212950
17,458667	0,5	-1,206950
17,467000	0,5	-1,210900
17,475333	0,5	-1,202600
17,483667	0,5	-1,209400
17,492000	0,5	-1,202650
17,500333	0,5	-1,199550
17,508667	0,5	-1,200700
17,517000	0,5	-1,196250
17,525333	0,5	-1,202150
17,533667	0,5	-1,195300
17,542000	0,5	-1,208000
17,550333	0,5	-1,189750
17,558667	0,5	-1,183800
17,567000	0,5	-1,184100
17,575333	0,5	-1,185750
17,583667	0,5	-1,203500
17,592000	0,5	-1,193650
17,600333	0,5	-1,185350
17,608667	0,5	-1,184550
17,617000	0,5	-1,180050
17,625333	0,5	-1,178600
17,633667	0,5	-1,174500
17,642000	0,5	-1,173700
17,650333	0,5	-1,167250
17,658667	0,5	-1,168300
17,667000	0,5	-1,167600
17,675333	0,5	-1,165250
17,683667	0,5	-1,162150
17,692000	0,5	-1,174350
17,700333	0,5	-1,160300
17,708667	0,5	-1,162450
17,717000	0,5	-1,168100
17,725333	0,5	-1,176500
17,733667	0,5	-1,187800
17,742000	0,5	-1,174100
17,750333	0,5	-1,179200
17,758667	0,5	-1,174300
17,767000	0,5	-1,179050
17,775333	0,5	-1,178400
17,783667	0,5	-1,181500
17,792000	0,5	-1,176400
17,800333	0,5	-1,177850
17,808667	0,5	-1,175400
17,817000	0,5	-1,175650
17,825333	0,5	-1,168650
17,833667	0,5	-1,182700
17,842000	0,5	-1,181150
17,850333	0,5	-1,174150
17,858667	0,5	-1,178000
17,867000	0,5	-1,188150
17,875333	0,5	-1,201550
17,883667	0,5	-1,208250
17,892000	0,5	-1,209300
17,900333	0,5	-1,212500
17,908667	0,5	-1,213800
17,917000	0,5	-1,213900
17,925333	0,5	-1,216650
17,933667	0,5	-1,213850
17,942000	0,5	-1,217950
17,950333	0,5	-1,215250
17,958667	0,5	-1,223750
17,967000	0,5	-1,216500
17,975333	0,5	-1,223950
17,983667	0,5	-1,232150
17,992000	0,5	-1,226100
18,000333	0,5	-1,224600
18,008667	0,5	-1,228250
18,017000	0,5	-1,239550
18,025333	0,5	-1,257900
18,033667	0,5	-1,260300
18,042000	0,5	-1,255400
18,050333	0,5	-1,255750
18,058667	0,5	-1,263250
18,067000	0,5	-1,268550
18,075333	0,5	-1,272250
18,083667	0,5	-1,275150
18,092000	0,5	-1,277050
18,100333	0,5	-1,283400
18,108667	0,5	-1,285800
18,117000	0,5	-1,288200
18,125333	0,5	-1,295450
18,133667	0,5	-1,300200
18,142000	0,5	-1,291900
18,150333	0,5	-1,297950
18,158667	0,5	-1,302450
18,167000	0,5	-1,321050
18,175333	0,5	-1,329700
18,183667	0,5	-1,330850
18,192000	0,5	-1,335300
18,200333	0,5	-1,340550
18,208667	0,5	-1,342500
18,217000	0,5	-1,345450
18,225333	0,5	-1,347200
18,233667	0,5	-1,350150
18,242000	0,5	-1,356650
18,250333	0,5	-1,355650
18,258667	0,5	-1,360100
18,267000	0,5	-1,355700
18,275333	0,5	-1,376700
18,283667	0,5	-1,374550
18,292000	0,5	-1,370550
18,300333	0,5	-1,379600
18,308667	0,5	-1,390250
18,317000	0,5	-1,413050
18,325333	0,5	-1,413700
18,333667	0,5	-1,412550
18,342000	0,5	-1,422600
18,350333	0,5	-1,426450
18,358667	0,5	-1,433050
18,367000	0,5	-1,433450
18,375333	0,5	-1,436550
18,383667	0,5	-1,442500
18,392000	0,5	-1,445550
18,400333	0,5	-1,453700
18,408667	0,5	-1,445950
18,417000	0,5	-1,451100
18,425333	0,5	-1,470450
18,433667	0,5	-1,463400
18,442000	0,5	-1,463050
18,450333	0,5	-1,478000
18,458667	0,5	-1,483400
18,467000	0,5	-1,505350
18,475333	0,5	-1,492400
18,483667	0,5	-1,501050
18,492000	0,5	-1,502350
18,500333	0,5	-1,510750
18,508667	0,5	-1,510000
18,517000	0,5	-1,512350
18,525333	0,5	-1,512000
18,533667	0,5	-1,511250
18,542000	0,5	-1,511250
18,550333	0,5	-1,511300
18,558667	0,5	-1,507000
18,567000	0,5	-1,511750
18,575333	0,5	-1,520250
18,583667	0,5	-1,508750
18,592000	0,5	-1,511050
18,600333	0,5	-1,519400
18,608667	0,5	-1,530300
18,617000	0,5	-1,540300
18,625333	0,5	-1,537050
18,633667	0,5	-1,529950
18,642000	0,5	-1,535900
18,650333	0,5	-1,536200
18,658667	0,5	-1,539050
18,667000	0,5	-1,535900
18,675333	0,5	-1,537350
18,683667	0,5	-1,539400
18,692000	0,5	-1,541550
18,700333	0,5	-1,545650
18,708667	0,5	-1,541150
18,717000	0,5	-1,556350
18,725333	0,5	-1,553850
18,733667	0,5	-1,550350
18,742000	0,5	-1,551000
18,750333	0,5	-1,567700
18,758667	0,5	-1,582900
18,767000	0,5	-1,588450
18,775333	0,5	-1,587200
18,783667	0,5	-1,603250
18,792000	0,5	-1,604700
18,800333	0,5	-1,618650
18,808667	0,5	-1,621100
18,817000	0,5	-1,633100
18,825333	0,5	-1,635300
18,833667	0,5	-1,637600
18,842000	0,5	-1,645100
18,850333	0,5	-1,639550
18,858667	0,5	-1,640650
18,867000	0,5	-1,660050
18,875333	0,5	-1,649900
18,883667	0,5	-1,655100
18,892000	0,5	-1,661850
18,900333	0,5	-1,675850
18,908667	0,5	-1,696000
18,917000	0,5	-1,693650
18,925333	0,5	-1,697300
18,933667	0,5	-1,693700
18,942000	0,5	-1,698400
18,950333	0,5	-1,692450
18,958667	0,5	-1,699300
18,967000	0,5	-1,693250
18,975333	0,5	-1,698400
18,983667	0,5	-1,701000
18,992000	0,5	-1,697700
19,000333	0,5	-1,688600
19,008667	0,5	-1,703250
19,017000	0,5	-1,702850
19,025333	0,5	-1,698000
19,033667	0,5	-1,702600
19,042000	0,5	-1,708500
19,050333	0,5	-1,726950
19,058667	0,5	-1,738400
19,067000	0,5	-1,746650
19,075333	0,5	-1,740550
19,083667	0,5	-1,749650
19,092000	0,5	-1,751500
19,100333	0,5	-1,759800
19,108667	0,5	-1,761250
19,117000	0,5	-1,767300
19,125333	0,5	-1,765700
19,133667	0,5	-1,770300
19,142000	0,5	-1,765550
19,150333	0,5	-1,765750
19,158667	0,5	-1,778750
19,167000	0,5	-1,773850
19,175333	0,5	-1,761750
19,183667	0,5	-1,768100
19,192000	0,5	-1,777150
19,200333	0,5	-1,792800
19,208667	0,5	-1,796400
19,217000	0,5	-1,795950
19,225333	0,5	-1,809700
19,233667	0,5	-1,807900
19,242000	0,5	-1,814550
19,250333	0,5	-1,815350
19,258667	0,5	-1,822500
19,267000	0,5	-1,820850
19,275333	0,5	-1,833250
19,283667	0,5	-1,836550
19,292000	0,5	-1,838250
19,300333	0,5	-1,845750
19,308667	0,5	-1,865650
19,317000	0,5	-1,857300
19,325333	0,5	-1,861750
19,333667	0,5	-1,872150
19,342000	0,5	-1,889200
19,350333	0,5	-1,904200
19,358667	0,5	-1,900250
19,367000	0,5	-1,901750
19,375333	0,5	-1,901300
19,383667	0,5	-1,905750
19,392000	0,5	-1,899700
19,400333	0,5	-1,905150
19,408667	0,5	-1,897000
19,417000	0,5	-1,889900
19,425333	0,5	-1,878200
19,433667	0,5	-1,862150
19,442000	0,5	-1,842950
19,450333	0,5	-1,850250
19,458667	0,5	-1,852100
19,467000	0,5	-1,865450
19,475333	0,5	-1,882950
19,483667	0,5	-1,910750
19,492000	0,5	-1,937100
19,500333	0,5	-1,951400
19,508667	0,5	-1,954150
19,517000	0,5	-1,964000
19,525333	0,5	-1,974100
19,533667	0,5	-1,979400
19,542000	0,5	-1,980850
19,550333	0,5	-1,981350
19,558667	0,5	-1,980450
19,567000	0,5	-1,979950
19,575333	0,5	-1,984850
19,583667	0,5	-1,979350
19,592000	0,5	-1,973950
19,600333	0,5	-1,989800
19,608667	0,5	-1,982200
19,617000	0,5	-1,981400
19,625333	0,5	-1,991100
19,633667	0,5	-2,000050
19,642000	0,5	-2,027450
19,650333	0,5	-2,021550
19,658667	0,5	-2,025450
19,667000	0,5	-2,026000
19,675333	0,5	-2,032900
19,683667	0,5	-2,033000
19,692000	0,5	-2,029150
19,700333	0,5	-2,030200
19,708667	0,5	-2,027100
19,717000	0,5	-2,029000
19,725333	0,5	-2,019800
19,733667	0,5	-2,007300
19,742000	0,5	-1,990100
19,750333	0,5	-1,990850
19,758667	0,5	-1,970350
19,767000	0,5	-1,970000
19,775333	0,5	-1,973250
19,783667	0,5	-1,997800
19,792000	0,5	-2,022850
19,800333	0,5	-2,026600
19,808667	0,5	-2,033150
19,817000	0,5	-2,043400
19,825333	0,5	-2,051100
19,833667	0,5	-2,058100
19,842000	0,5	-2,064100
19,850333	0,5	-2,066150
19,858667	0,5	-2,068050
19,867000	0,5	-2,070450
19,875333	0,5	-2,071800
19,883667	0,5	-2,065900
19,892000	0,5	-2,077750
19,900333	0,5	-2,079650
19,908667	0,5	-2,077850
19,917000	0,5	-2,085000
19,925333	0,5	-2,102200
19,933667	0,5	-2,116300
19,942000	0,5	-2,131450
19,950333	0,5	-2,130350
19,958667	0,5	-2,139000
19,967000	0,5	-2,136750
19,975333	0,5	-2,142250
19,983667	0,5	-2,137750
19,992000	0,5	-2,143000
20,000333	0,5	-2,144850
20,008667	0,5	-2,147700
20,017000	0,5	-2,151150
20,025333	0,5	-2,132150
20,033667	0,5	-2,134250
20,042000	0,5	-2,145750
20,050333	0,5	-2,138300
20,058667	0,5	-2,130150
20,067000	0,5	-2,134800
20,075333	0,5	-2,144150
20,083667	0,5	-2,160550
20,092000	0,5	-2,157300
20,100333	0,5	-2,158100
20,108667	0,5	-2,155150
20,117000	0,5	-2,155550
20,125333	0,5	-2,149900
20,133667	0,5	-2,152550
20,142000	0,5	-2,147750
20,150333	0,5	-2,149050
20,158667	0,5	-2,150800
20,167000	0,5	-2,139950
20,175333	0,5	-2,132600
20,183667	0,5	-2,141800
20,192000	0,5	-2,143350
20,200333	0,5	-2,135900
20,208667	0,5	-2,136050
20,217000	0,5	-2,143050
20,225333	0,5	-2,161550
20,233667	0,5	-2,160250
20,242000	0,5	-2,163100
20,250333	0,5	-2,158450
20,258667	0,5	-2,161100
20,267000	0,5	-2,157600
20,275333	0,5	-2,159950
20,283667	0,5	-2,153950
20,292000	0,5	-2,153800
20,300333	0,5	-2,156100
20,308667	0,5	-2,156900
20,317000	0,5	-2,149000
20,325333	0,5	-2,142950
20,333667	0,5	-2,159600
20,342000	0,5	-2,147800
20,350333	0,5	-2,142300
20,358667	0,5	-2,143650
20,367000	0,5	-2,148200
20,375333	0,5	-2,163000
20,383667	0,5	-2,155750
20,392000	0,5	-2,144150
20,400333	0,5	-2,143550
20,408667	0,5	-2,137350
20,417000	0,5	-2,130800
20,425333	0,5	-2,124300
20,433667	0,5	-2,121900
20,442000	0,5	-2,121600
20,450333	0,5	-2,120450
20,458667	0,5	-2,117000
20,467000	0,5	-2,103400
20,475333	0,5	-2,099850
20,483667	0,5	-2,117950
20,492000	0,5	-2,107800
20,500333	0,5	-2,112600
20,508667	0,5	-2,126400
20,517000	0,5	-2,134000
20,525333	0,5	-2,151950
20,533667	0,5	-2,137000
20,542000	0,5	-2,145300
20,550333	0,5	-2,146100
20,558667	0,5	-2,154850
20,567000	0,5	-2,144150
20,575333	0,5	-2,147400
20,583667	0,5	-2,138950
20,592000	0,5	-2,142400
20,600333	0,5	-2,141400
20,608667	0,5	-2,136150
20,617000	0,5	-2,119100
20,625333	0,5	-2,129300
20,633667	0,5	-2,132650
20,642000	0,5	-2,132050
20,650333	0,5	-2,141000
20,658667	0,5	-2,150200
20,667000	0,5	-2,165600
20,675333	0,5	-2,172200
20,683667	0,5	-2,176300
20,692000	0,5	-2,170650
20,700333	0,5	-2,175950
20,708667	0,5	-2,172150
20,717000	0,5	-2,172100
20,725333	0,5	-2,167450
20,733667	0,5	-2,168650
20,742000	0,5	-2,165750
20,750333	0,5	-2,169250
20,758667	0,5	-2,148000
20,767000	0,5	-2,141200
20,775333	0,5	-2,147350
20,783667	0,5	-2,144950
20,792000	0,5	-2,148600
20,800333	0,5	-2,150950
20,808667	0,5	-2,165450
20,817000	0,5	-2,179300
20,825333	0,5	-2,174200
20,833667	0,5	-2,166550
20,842000	0,5	-2,170450
20,850333	0,5	-2,162250
20,858667	0,5	-2,161650
20,867000	0,5	-2,156450
20,875333	0,5	-2,154250
20,883667	0,5	-2,145550
20,892000	0,5	-2,148950
20,900333	0,5	-2,136000
20,908667	0,5	-2,115900
20,917000	0,5	-2,111350
20,925333	0,5	-2,114150
20,933667	0,5	-2,108100
20,942000	0,5	-2,113200
20,950333	0,5	-2,116700
20,958667	0,5	-2,132350
20,967000	0,5	-2,137950
20,975333	0,5	-2,126800
20,983667	0,5	-2,129450
20,992000	0,5	-2,124500
21,000333	0,5	-2,118300
21,008667	0,5	-2,109450
21,017000	0,5	-2,106000
21,025333	0,5	-2,096700
21,033667	0,5	-2,094600
21,042000	0,5	-2,092500
21,050333	0,5	-2,071250
21,058667	0,5	-2,050900
21,067000	0,5	-2,055150
21,075333	0,5	-2,055850
21,083667	0,5	-2,049550
21,092000	0,5	-2,056200
21,100333	0,5	-2,064100
21,108667	0,5	-2,073300
21,117000	0,5	-2,070400
21,125333	0,5	-2,068300
21,133667	0,5	-2,056800
21,142000	0,5	-2,054550
21,150333	0,5	-2,044750
21,158667	0,5	-2,044150
21,167000	0,5	-2,031000
21,175333	0,5	-2,024600
21,183667	0,5	-2,013850
21,192000	0,5	-2,006950
21,200333	0,5	-1,976900
21,208667	0,5	-1,961650
21,217000	0,5	-1,962700
21,225333	0,5	-1,960100
21,233667	0,5	-1,961450
21,242000	0,5	-1,966250
21,250333	0,5	-1,982700
21,258667	0,5	-1,981100
21,267000	0,5	-1,979750
21,275333	0,5	-1,974100
21,283667	0,5	-1,971850
21,292000	0,5	-1,965500
21,300333	0,5	-1,964250
21,308667	0,5	-1,955950
21,317000	0,5	-1,949800
21,325333	0,5	-1,939700
21,333667	0,5	-1,938000
21,342000	0,5	-1,911800
21,350333	0,5	-1,895900
21,358667	0,5	-1,892150
21,367000	0,5	-1,891650
21,375333	0,5	-1,887050
21,383667	0,5	-1,886350
21,392000	0,5	-1,896150
21,400333	0,5	-1,909050
21,408667	0,5	-1,895100
21,417000	0,5	-1,890700
21,425333	0,5	-1,887150
21,433667	0,5	-1,879100
21,442000	0,5	-1,873650
21,450333	0,5	-1,862600
21,458667	0,5	-1,855350
21,467000	0,5	-1,843100
21,475333	0,5	-1,834650
21,483667	0,5	-1,817600
21,492000	0,5	-1,785600
21,500333	0,5	-1,757450
21,508667	0,5	-1,756950
21,517000	0,5	-1,736600
21,525333	0,5	-1,715100
21,533667	0,5	-1,702400
21,542000	0,5	-1,671150
21,550333	0,5	-1,648900
21,558667	0,5	-1,612800
21,567000	0,5	-1,606950
21,575333	0,5	-1,611000
21,583667	0,5	-1,622600
21,592000	0,5	-1,627900
21,600333	0,5	-1,632950
21,608667	0,5	-1,626500
21,617000	0,5	-1,617100
21,625333	0,5	-1,607150
21,633667	0,5	-1,590650
21,642000	0,5	-1,564250
21,650333	0,5	-1,557250
21,658667	0,5	-1,552550
21,667000	0,5	-1,542600
21,675333	0,5	-1,535200
21,683667	0,5	-1,535700
21,692000	0,5	-1,534450
21,700333	0,5	-1,516900
21,708667	0,5	-1,501300
21,717000	0,5	-1,477900
21,725333	0,5	-1,459900
21,733667	0,5	-1,433850
21,742000	0,5	-1,415150
21,750333	0,5	-1,396600
21,758667	0,5	-1,383200
21,767000	0,5	-1,362600
21,775333	0,5	-1,343600
21,783667	0,5	-1,309850
21,792000	0,5	-1,288050
21,800333	0,5	-1,279300
21,808667	0,5	-1,253150
21,817000	0,5	-1,241200
21,825333	0,5	-1,229450
21,833667	0,5	-1,226350
21,842000	0,5	-1,223300
21,850333	0,5	-1,210450
21,858667	0,5	-1,188100
21,867000	0,5	-1,175800
21,875333	0,5	-1,152400
21,883667	0,5	-1,135600
21,892000	0,5	-1,109800
21,900333	0,5	-1,089150
21,908667	0,5	-1,064350
21,917000	0,5	-1,046200
21,925333	0,5	-1,015650
21,933667	0,5	-0,987200
21,942000	0,5	-0,968550
21,950333	0,5	-0,947250
21,958667	0,5	-0,922800
21,967000	0,5	-0,901050
21,975333	0,5	-0,884100
21,983667	0,5	-0,872900
21,992000	0,5	-0,857050
22,000333	0,5	-0,824550
22,008667	0,5	-0,802500
22,017000	0,5	-0,770150
22,025333	0,5	-0,749000
22,033667	0,5	-0,716050
22,042000	0,5	-0,689150
22,050333	0,5	-0,657300
22,058667	0,5	-0,634000
22,067000	0,5	-0,601950
22,075333	0,5	-0,563600
22,083667	0,5	-0,532050
22,092000	0,5	-0,500400
22,100333	0,5	-0,446900
22,108667	0,5	-0,406550
22,117000	0,5	-0,375050
22,125333	0,5	-0,347350
22,133667	0,5	-0,318550
22,142000	0,5	-0,279650
22,150333	0,5	-0,251450
22,158667	0,5	-0,216050
22,167000	0,5	-0,186950
22,175333	0,5	-0,150800
22,183667	0,5	-0,117350
22,192000	0,5	-0,077100
22,200333	0,5	-0,044100
22,208667	0,5	-0,000650
22,217000	0,5	0,036500
22,225333	0,5	0,075150
22,233667	0,5	0,105950
22,242000	0,5	0,173800
22,250333	0,5	0,228850
22,258667	0,5	0,272650
22,267000	0,5	0,311450
22,275333	0,5	0,338300
22,283667	0,5	0,381050
22,292000	0,5	0,422650
22,300333	0,5	0,468150
22,308667	0,5	0,507950
22,317000	0,5	0,561350
22,325333	0,5	0,614500
22,333667	0,5	0,672850
22,342000	0,5	0,721200
22,350333	0,5	0,781600
22,358667	0,5	0,825600
22,367000	0,5	0,851650
22,375333	0,5	0,905450
22,383667	0,5	0,968100
22,392000	0,5	1,042750
22,400333	0,5	1,109200
22,408667	0,5	1,159400
22,417000	0,5	1,214850
22,425333	0,5	1,264350
22,433667	0,5	1,331750
22,442000	0,5	1,393650
22,450333	0,5	1,451100
22,458667	0,5	1,517000
22,467000	0,5	1,580750
22,475333	0,5	1,651800
22,483667	0,5	1,715550
22,492000	0,5	1,786400
22,500333	0,5	1,839200
22,508667	0,5	1,895800
22,517000	0,5	1,924250
22,525333	0,5	1,994300
22,533667	0,5	2,070350
22,542000	0,5	2,132600
22,550333	0,5	2,177500
22,558667	0,5	2,212700
22,567000	0,5	2,242150
22,575333	0,5	2,272300
22,583667	0,5	2,314550
22,592000	0,5	2,337350
22,600333	0,5	2,367300
22,608667	0,5	2,382350
22,617000	0,5	2,408850
22,625333	0,5	2,417800
22,633667	0,5	2,425150
22,642000	0,5	2,427400
22,650333	0,5	2,422350
22,658667	0,5	2,346300
22,667000	0,5	2,337800
22,675333	0,5	2,311550
22,683667	0,5	2,300300
22,692000	0,5	2,241950
22,700333	0,5	2,181450
22,708667	0,5	2,104350
22,717000	0,5	2,016500
22,725333	0,5	1,943400
22,733667	0,5	1,854450
22,742000	0,5	1,769750
22,750333	0,5	1,672550
22,758667	0,5	1,576150
22,767000	0,5	1,479200
22,775333	0,5	1,375500
22,783667	0,5	1,268400
22,792000	0,5	1,156350
22,800333	0,5	1,035950
22,808667	0,5	0,849700
22,817000	0,5	0,745050
22,825333	0,5	0,637800
22,833667	0,5	0,502150
22,842000	0,5	0,355000
22,850333	0,5	0,197850
22,858667	0,5	0,054350
22,867000	0,5	-0,100050
22,875333	0,5	-0,243750
22,883667	0,5	-0,388450
22,892000	0,5	-0,525550
22,900333	0,5	-0,662000
22,908667	0,5	-0,781650
22,917000	0,5	-0,912100
22,925333	0,5	-1,037750
22,933667	0,5	-1,170300
22,942000	0,5	-1,283150
22,950333	0,5	-1,382950
22,958667	0,5	-1,524100
22,967000	0,5	-1,617350
22,975333	0,5	-1,755400
22,983667	0,5	-1,883100
22,992000	0,5	-1,969850
23,000333	0,5	-2,063750
23,008667	0,5	-2,140050
23,017000	0,5	-2,223100
23,025333	0,5	-2,298300
23,033667	0,5	-2,364900
23,042000	0,5	-2,423800
23,050333	0,5	-2,478300
23,058667	0,5	-2,534300
23,067000	0,5	-2,578750
23,075333	0,5	-2,636050
23,083667	0,5	-2,675200
23,092000	0,5	-2,721750
23,100333	0,5	-2,750600
23,108667	0,5	-2,790250
23,117000	0,5	-2,818600
23,125333	0,5	-2,894100
23,133667	0,5	-2,936150
23,142000	0,5	-2,960600
23,150333	0,5	-2,965900
23,158667	0,5	-2,983200
23,167000	0,5	-2,997500
23,175333	0,5	-3,005050
23,183667	0,5	-3,002200
23,192000	0,5	-2,994100
23,200333	0,5	-2,986850
23,208667	0,5	-2,976200
23,217000	0,5	-2,974800
23,225333	0,5	-2,964300
23,233667	0,5	-2,959950
23,242000	0,5	-2,935600
23,250333	0,5	-2,962000
23,258667	0,5	-2,941150
23,267000	0,5	-2,913250
23,275333	0,5	-2,939800
23,283667	0,5	-2,942250
23,292000	0,5	-2,932500
23,300333	0,5	-2,915000
23,308667	0,5	-2,898300
23,317000	0,5	-2,887050
23,325333	0,5	-2,861100
23,333667	0,5	-2,840150
23,342000	0,5	-2,808350
23,350333	0,5	-2,780900
23,358667	0,5	-2,750850
23,367000	0,5	-2,725350
23,375333	0,5	-2,697100
23,383667	0,5	-2,668600
23,392000	0,5	-2,672900
23,400333	0,5	-2,663850
23,408667	0,5	-2,619800
23,417000	0,5	-2,564200
23,425333	0,5	-2,558500
23,433667	0,5	-2,549600
23,442000	0,5	-2,536150
23,450333	0,5	-2,511550
23,458667	0,5	-2,502500
23,467000	0,5	-2,481750
23,475333	0,5	-2,466300
23,483667	0,5	-2,438850
23,492000	0,5	-2,418800
23,500333	0,5	-2,395150
23,508667	0,5	-2,373400
23,517000	0,5	-2,349800
23,525333	0,5	-2,326500
23,533667	0,5	-2,302550
23,542000	0,5	-2,399700
23,550333	0,5	-2,331500
23,558667	0,5	-2,286250
23,567000	0,5	-2,226800
23,575333	0,5	-2,207700
23,583667	0,5	-2,193150
23,592000	0,5	-2,177300
23,600333	0,5	-2,165450
23,608667	0,5	-2,147400
23,617000	0,5	-2,131300
23,625333	0,5	-2,111900
23,633667	0,5	-2,095400
23,642000	0,5	-2,079050
23,650333	0,5	-2,062200
23,658667	0,5	-2,045200
23,667000	0,5	-2,030750
23,675333	0,5	-2,015700
23,683667	0,5	-2,049600
23,692000	0,5	-2,132700
23,700333	0,5	-2,075450
23,708667	0,5	-2,027900
23,717000	0,5	-1,977900
23,725333	0,5	-1,962000
23,733667	0,5	-1,950050
23,742000	0,5	-1,941200
23,750333	0,5	-1,931700
23,758667	0,5	-1,909800
23,767000	0,5	-1,892250
23,775333	0,5	-1,871100
23,783667	0,5	-1,853500
23,792000	0,5	-1,834600
23,800333	0,5	-1,813900
23,808667	0,5	-1,792350
23,817000	0,5	-1,777400
23,825333	0,5	-1,763250
23,833667	0,5	-1,886850
23,842000	0,5	-1,871700
23,850333	0,5	-1,831750
23,858667	0,5	-1,765800
23,867000	0,5	-1,728650
23,875333	0,5	-1,713650
23,883667	0,5	-1,704600
23,892000	0,5	-1,704750
23,900333	0,5	-1,691950
23,908667	0,5	-1,676200
23,917000	0,5	-1,658500
23,925333	0,5	-1,645450
23,933667	0,5	-1,626950
23,942000	0,5	-1,612000
23,950333	0,5	-1,589950
23,958667	0,5	-1,575550
23,967000	0,5	-1,554000
23,975333	0,5	-1,547750
23,983667	0,5	-1,669150
23,992000	0,5	-1,634250
24,000333	0,5	-1,579200
24,008667	0,5	-1,523150
24,017000	0,5	-1,481950
24,025333	0,5	-1,468800
24,033667	0,5	-1,458750
24,042000	0,5	-1,447950
24,050333	0,5	-1,435650
24,058667	0,5	-1,413500
24,067000	0,5	-1,393450
24,075333	0,5	-1,377800
24,083667	0,5	-1,361450
24,092000	0,5	-1,342900
24,100333	0,5	-1,323150
24,108667	0,5	-1,304100
24,117000	0,5	-1,297350
24,125333	0,5	-1,338350
24,133667	0,5	-1,399650
24,142000	0,5	-1,363950
24,150333	0,5	-1,320900
24,158667	0,5	-1,274850
24,167000	0,5	-1,248200
24,175333	0,5	-1,227900
24,183667	0,5	-1,228300
24,192000	0,5	-1,215900
24,200333	0,5	-1,194900
24,208667	0,5	-1,172400
24,217000	0,5	-1,154000
24,225333	0,5	-1,131350
24,233667	0,5	-1,113550
24,242000	0,5	-1,096550
24,250333	0,5	-1,077400
24,258667	0,5	-1,059800
24,267000	0,5	-1,045550
24,275333	0,5	-1,128100
24,283667	0,5	-1,104950
24,292000	0,5	-1,089550
24,300333	0,5	-1,034350
24,308667	0,5	-1,007550
24,317000	0,5	-0,988650
24,325333	0,5	-0,984600
24,333667	0,5	-0,983850
24,342000	0,5	-0,973000
24,350333	0,5	-0,954650
24,358667	0,5	-0,944950
24,367000	0,5	-0,931250
24,375333	0,5	-0,921000
24,383667	0,5	-0,901300
24,392000	0,5	-0,888800
24,400333	0,5	-0,872850
24,408667	0,5	-0,858450
24,417000	0,5	-0,856450
24,425333	0,5	-0,919200
24,433667	0,5	-0,891450
24,442000	0,5	-0,872000
24,450333	0,5	-0,828350
24,458667	0,5	-0,806900
24,467000	0,5	-0,788650
24,475333	0,5	-0,781250
24,483667	0,5	-0,784950
24,492000	0,5	-0,763800
24,500333	0,5	-0,754150
24,508667	0,5	-0,739950
24,517000	0,5	-0,734400
24,525333	0,5	-0,722200
24,533667	0,5	-0,714700
24,542000	0,5	-0,699350
24,550333	0,5	-0,689450
24,558667	0,5	-0,684700
24,567000	0,5	-0,711350
24,575333	0,5	-0,734300
24,583667	0,5	-0,707300
24,592000	0,5	-0,690800
24,600333	0,5	-0,665950
24,608667	0,5	-0,655050
24,617000	0,5	-0,644650
24,625333	0,5	-0,642200
24,633667	0,5	-0,637250
24,642000	0,5	-0,624200
24,650333	0,5	-0,610950
24,658667	0,5	-0,603600
24,667000	0,5	-0,592150
24,675333	0,5	-0,583750
24,683667	0,5	-0,571500
24,692000	0,5	-0,563750
24,700333	0,5	-0,552050
24,708667	0,5	-0,546450
24,717000	0,5	-0,581950
24,725333	0,5	-0,571150
24,733667	0,5	-0,559250
24,742000	0,5	-0,540650
24,750333	0,5	-0,524000
24,758667	0,5	-0,516800
24,767000	0,5	-0,515600
24,775333	0,5	-0,516750
24,783667	0,5	-0,516000
24,792000	0,5	-0,504950
24,800333	0,5	-0,503350
24,808667	0,5	-0,494200
24,817000	0,5	-0,491700
24,825333	0,5	-0,483500
24,833667	0,5	-0,472750
24,842000	0,5	-0,463700
24,850333	0,5	-0,457450
24,858667	0,5	-0,450650
24,867000	0,5	-0,474050
24,875333	0,5	-0,460350
24,883667	0,5	-0,450650
24,892000	0,5	-0,435400
24,900333	0,5	-0,425650
24,908667	0,5	-0,422700
24,917000	0,5	-0,422200
24,925333	0,5	-0,422050
24,933667	0,5	-0,417250
24,942000	0,5	-0,412400
24,950333	0,5	-0,404750
24,958667	0,5	-0,401000
24,967000	0,5	-0,399150
24,975333	0,5	-0,397200
24,983667	0,5	-0,390700
24,992000	0,5	-0,387200
25,000333	0,5	-0,383600
25,008667	0,5	-0,389100
25,017000	0,5	-0,390550
25,025333	0,5	-0,385250
25,033667	0,5	-0,374900
25,042000	0,5	-0,367750
25,050333	0,5	-0,360450
25,058667	0,5	-0,357450
25,067000	0,5	-0,357350
25,075333	0,5	-0,355250
25,083667	0,5	-0,351150
25,092000	0,5	-0,346300
25,100333	0,5	-0,343100
25,108667	0,5	-0,339500
25,117000	0,5	-0,338150
25,125333	0,5	-0,333450
25,133667	0,5	-0,329450
25,142000	0,5	-0,326500
25,150333	0,5	-0,323750
25,158667	0,5	-0,330400
25,167000	0,5	-0,329200
25,175333	0,5	-0,323200
25,183667	0,5	-0,322650
25,192000	0,5	-0,322000
25,200333	0,5	-0,317450
25,208667	0,5	-0,316200
25,217000	0,5	-0,318050
25,225333	0,5	-0,313850
25,233667	0,5	-0,312200
25,242000	0,5	-0,310050
25,250333	0,5	-0,307600
25,258667	0,5	-0,304350
25,267000	0,5	-0,301750
25,275333	0,5	-0,300850
25,283667	0,5	-0,299000
25,292000	0,5	-0,292750
25,300333	0,5	-0,290100
25,308667	0,5	-0,289400
25,317000	0,5	-0,288400
25,325333	0,5	-0,283750
25,333667	0,5	-0,286900
25,342000	0,5	-0,285950
25,350333	0,5	-0,286300
25,358667	0,5	-0,287700
25,367000	0,5	-0,287500
25,375333	0,5	-0,285450
25,383667	0,5	-0,287050
25,392000	0,5	-0,286250
25,400333	0,5	-0,287050
25,408667	0,5	-0,286450
25,417000	0,5	-0,285000
25,425333	0,5	-0,284600
25,433667	0,5	-0,281950
25,442000	0,5	-0,278600
25,450333	0,5	-0,274900
25,458667	0,5	-0,272400
25,467000	0,5	-0,267400
25,475333	0,5	-0,265850
25,483667	0,5	-0,267950
25,492000	0,5	-0,270300
25,500333	0,5	-0,270700
25,508667	0,5	-0,268200
25,517000	0,5	-0,264500
25,525333	0,5	-0,269400
25,533667	0,5	-0,268500
25,542000	0,5	-0,267000
25,550333	0,5	-0,270250
25,558667	0,5	-0,271050
25,567000	0,5	-0,271300
25,575333	0,5	-0,270750
25,583667	0,5	-0,272200
25,592000	0,5	-0,271000
25,600333	0,5	-0,260950
25,608667	0,5	-0,258650
25,617000	0,5	-0,257450
25,625333	0,5	-0,263900
25,633667	0,5	-0,267900
25,642000	0,5	-0,265700
25,650333	0,5	-0,266900
25,658667	0,5	-0,264000
25,667000	0,5	-0,255950
25,675333	0,5	-0,259150
25,683667	0,5	-0,264050
25,692000	0,5	-0,260950
25,700333	0,5	-0,262400
25,708667	0,5	-0,259900
25,717000	0,5	-0,264050
25,725333	0,5	-0,262250
25,733667	0,5	-0,262200
25,742000	0,5	-0,264600
25,750333	0,5	-0,252900
25,758667	0,5	-0,250350
25,767000	0,5	-0,249750
25,775333	0,5	-0,257550
25,783667	0,5	-0,258850
25,792000	0,5	-0,255300
25,800333	0,5	-0,256600
25,808667	0,5	-0,248450
25,817000	0,5	-0,245900
25,825333	0,5	-0,249000
25,833667	0,5	-0,244150
25,842000	0,5	-0,249350
25,850333	0,5	-0,244950
25,858667	0,5	-0,246450
25,867000	0,5	-0,246350
25,875333	0,5	-0,247750
25,883667	0,5	-0,245200
25,892000	0,5	-0,243150
25,900333	0,5	-0,233050
25,908667	0,5	-0,237600
25,917000	0,5	-0,234600
25,925333	0,5	-0,246300
25,933667	0,5	-0,245900
25,942000	0,5	-0,247700
25,950333	0,5	-0,240550
25,958667	0,5	-0,236050
25,967000	0,5	-0,238900
25,975333	0,5	-0,236750
25,983667	0,5	-0,240200
25,992000	0,5	-0,239500
26,000333	0,5	-0,239350
