File Path	chrom://chromeleon01/ikbm_chromeleon/2022/ICS-5000/ED1/Esteban/20220612_Cell_7_4_eg.seq/456.smp/ED_1.channel/ED_1.chm
Channel	ED_1

Injection Information:
Data Vault	ikbm_chromeleon
Injection	CelS2_01h-EGS_1
Injection Number	110
Position	BB2
Comment	
Processing Method	Stop sequence after Cell Death
Instrument Method	ICS5000_PA200_FullNative_Ox_26min_ED1
Type	Unknown
Status	Finished
Injection Date	14.06.2022
Injection Time	20:03:03
Injection Volume (µl)	5,0
Dilution Factor	1,0000
Weight	1,0000

Chromatogram Data Information:
Time Min. (min)	0,000333
Time Max. (min)	26,000333
Data Points	3121
Detector	EDet1
Generating Data System	Chromeleon 7.2.9.11323
Exporting Data System	Chromeleon 7.2.9.0
Operator	Instrument Controller
Signal Quantity	
Signal Unit	nC
Signal Min.	-3,175550
Signal Max.	36,824651
Channel	ED_1
Driver Name	DC-5000
Channel Type	Evaluation
Min. Step (s)	0,5
Max. Step (s)	0,5
Average Step (s)	0,5

Signal Parameter Information:
Signal Info	

Chromatogram Data:
Time (min)	Step (s)	Value (nC)
0,000333	n.a.	-0,067350
0,008667	0,5	-0,092950
0,017000	0,5	-0,082100
0,025333	0,5	-0,048650
0,033667	0,5	-0,039250
0,042000	0,5	-0,043850
0,050333	0,5	-0,024950
0,058667	0,5	-0,023100
0,067000	0,5	-0,019550
0,075333	0,5	-0,020850
0,083667	0,5	-0,021950
0,092000	0,5	-0,029000
0,100333	0,5	-0,033000
0,108667	0,5	-0,019400
0,117000	0,5	-0,032450
0,125333	0,5	-0,032050
0,133667	0,5	-0,009500
0,142000	0,5	-0,048550
0,150333	0,5	-0,051900
0,158667	0,5	-0,042900
0,167000	0,5	-0,034700
0,175333	0,5	0,008350
0,183667	0,5	-0,017300
0,192000	0,5	-0,012450
0,200333	0,5	-0,022450
0,208667	0,5	-0,014900
0,217000	0,5	-0,031550
0,225333	0,5	-0,024700
0,233667	0,5	-0,031650
0,242000	0,5	-0,029700
0,250333	0,5	-0,032900
0,258667	0,5	-0,040600
0,267000	0,5	-0,054900
0,275333	0,5	-0,041800
0,283667	0,5	-0,043550
0,292000	0,5	-0,058550
0,300333	0,5	-0,040800
0,308667	0,5	-0,025300
0,317000	0,5	-0,013350
0,325333	0,5	-0,017750
0,333667	0,5	-0,035050
0,342000	0,5	-0,045100
0,350333	0,5	-0,045000
0,358667	0,5	-0,042900
0,367000	0,5	-0,041300
0,375333	0,5	-0,048500
0,383667	0,5	-0,046850
0,392000	0,5	-0,055950
0,400333	0,5	-0,050000
0,408667	0,5	-0,059900
0,417000	0,5	-0,056250
0,425333	0,5	-0,047000
0,433667	0,5	-0,060000
0,442000	0,5	-0,076500
0,450333	0,5	-0,072200
0,458667	0,5	-0,060500
0,467000	0,5	-0,034850
0,475333	0,5	-0,024000
0,483667	0,5	-0,039400
0,492000	0,5	-0,037550
0,500333	0,5	-0,039300
0,508667	0,5	-0,042450
0,517000	0,5	-0,046700
0,525333	0,5	-0,047200
0,533667	0,5	-0,059050
0,542000	0,5	-0,052550
0,550333	0,5	-0,059200
0,558667	0,5	-0,048750
0,567000	0,5	-0,047750
0,575333	0,5	-0,036650
0,583667	0,5	-0,073050
0,592000	0,5	-0,071950
0,600333	0,5	-0,068350
0,608667	0,5	-0,038850
0,617000	0,5	-0,019550
0,625333	0,5	-0,018300
0,633667	0,5	-0,026150
0,642000	0,5	-0,024000
0,650333	0,5	-0,026500
0,658667	0,5	-0,029650
0,667000	0,5	-0,025900
0,675333	0,5	-0,036900
0,683667	0,5	-0,028150
0,692000	0,5	-0,033000
0,700333	0,5	-0,027300
0,708667	0,5	-0,041900
0,717000	0,5	-0,017950
0,725333	0,5	-0,024650
0,733667	0,5	-0,033450
0,742000	0,5	-0,038350
0,750333	0,5	-0,028200
0,758667	0,5	-0,009600
0,767000	0,5	0,009200
0,775333	0,5	-0,005050
0,783667	0,5	0,008400
0,792000	0,5	0,000250
0,800333	0,5	0,015000
0,808667	0,5	0,011350
0,817000	0,5	0,014650
0,825333	0,5	0,008300
0,833667	0,5	0,001700
0,842000	0,5	0,008950
0,850333	0,5	-0,001950
0,858667	0,5	-0,009550
0,867000	0,5	0,022550
0,875333	0,5	0,004000
0,883667	0,5	-0,005100
0,892000	0,5	0,001350
0,900333	0,5	0,010600
0,908667	0,5	0,055050
0,917000	0,5	0,043200
0,925333	0,5	0,045700
0,933667	0,5	0,042300
0,942000	0,5	0,055950
0,950333	0,5	0,045100
0,958667	0,5	0,047350
0,967000	0,5	0,045300
0,975333	0,5	0,043450
0,983667	0,5	0,046800
0,992000	0,5	0,054050
1,000333	0,5	0,052450
1,008667	0,5	0,046600
1,017000	0,5	0,076700
1,025333	0,5	0,046100
1,033667	0,5	0,043950
1,042000	0,5	0,047600
1,050333	0,5	0,066350
1,058667	0,5	0,095550
1,067000	0,5	0,090100
1,075333	0,5	0,068300
1,083667	0,5	0,084950
1,092000	0,5	0,086600
1,100333	0,5	0,094450
1,108667	0,5	0,088450
1,117000	0,5	0,088650
1,125333	0,5	0,082150
1,133667	0,5	0,086200
1,142000	0,5	0,086300
1,150333	0,5	0,080600
1,158667	0,5	0,073200
1,167000	0,5	0,099300
1,175333	0,5	0,072650
1,183667	0,5	0,078200
1,192000	0,5	0,084100
1,200333	0,5	0,095100
1,208667	0,5	0,132850
1,217000	0,5	0,114300
1,225333	0,5	0,124800
1,233667	0,5	0,120500
1,242000	0,5	0,127200
1,250333	0,5	0,119400
1,258667	0,5	0,126250
1,267000	0,5	0,111050
1,275333	0,5	0,119500
1,283667	0,5	0,118500
1,292000	0,5	0,114500
1,300333	0,5	0,096750
1,308667	0,5	0,116450
1,317000	0,5	0,112000
1,325333	0,5	0,099000
1,333667	0,5	0,100600
1,342000	0,5	0,115750
1,350333	0,5	0,141150
1,358667	0,5	0,160650
1,367000	0,5	0,152700
1,375333	0,5	0,152450
1,383667	0,5	0,146200
1,392000	0,5	0,147250
1,400333	0,5	0,145150
1,408667	0,5	0,143450
1,417000	0,5	0,144300
1,425333	0,5	0,141450
1,433667	0,5	0,141250
1,442000	0,5	0,122900
1,450333	0,5	0,129550
1,458667	0,5	0,141950
1,467000	0,5	0,134600
1,475333	0,5	0,120300
1,483667	0,5	0,125700
1,492000	0,5	0,133450
1,500333	0,5	0,164200
1,508667	0,5	0,169250
1,517000	0,5	0,166450
1,525333	0,5	0,158500
1,533667	0,5	0,167000
1,542000	0,5	0,158200
1,550333	0,5	0,158950
1,558667	0,5	0,146900
1,567000	0,5	0,097350
1,575333	0,5	-0,099250
1,583667	0,5	-0,546150
1,592000	0,5	-0,974600
1,600333	0,5	-0,703050
1,608667	0,5	1,108500
1,617000	0,5	5,528100
1,625333	0,5	13,613400
1,633667	0,5	23,875050
1,642000	0,5	31,657900
1,650333	0,5	33,146900
1,658667	0,5	29,075200
1,667000	0,5	22,937750
1,675333	0,5	17,481450
1,683667	0,5	13,538100
1,692000	0,5	10,989100
1,700333	0,5	9,407950
1,708667	0,5	8,489650
1,717000	0,5	8,095550
1,725333	0,5	8,053750
1,733667	0,5	8,016450
1,742000	0,5	7,654000
1,750333	0,5	7,067350
1,758667	0,5	6,423450
1,767000	0,5	5,862100
1,775333	0,5	5,440650
1,783667	0,5	5,182850
1,792000	0,5	5,183900
1,800333	0,5	5,531450
1,808667	0,5	6,204200
1,817000	0,5	7,077700
1,825333	0,5	7,814850
1,833667	0,5	8,256100
1,842000	0,5	8,309650
1,850333	0,5	8,024650
1,858667	0,5	7,487100
1,867000	0,5	6,895450
1,875333	0,5	6,359700
1,883667	0,5	5,922500
1,892000	0,5	5,587450
1,900333	0,5	5,395300
1,908667	0,5	5,175100
1,917000	0,5	4,957150
1,925333	0,5	4,725450
1,933667	0,5	4,519950
1,942000	0,5	4,381150
1,950333	0,5	4,223900
1,958667	0,5	4,077150
1,967000	0,5	3,937750
1,975333	0,5	3,831150
1,983667	0,5	3,758750
1,992000	0,5	3,768800
2,000333	0,5	3,828200
2,008667	0,5	3,910400
2,017000	0,5	3,930050
2,025333	0,5	3,897550
2,033667	0,5	3,822500
2,042000	0,5	3,756100
2,050333	0,5	3,752550
2,058667	0,5	3,759300
2,067000	0,5	3,870850
2,075333	0,5	4,123600
2,083667	0,5	4,651300
2,092000	0,5	5,650900
2,100333	0,5	7,021950
2,108667	0,5	8,271300
2,117000	0,5	8,717250
2,125333	0,5	8,221550
2,133667	0,5	7,333100
2,142000	0,5	6,614300
2,150333	0,5	6,247550
2,158667	0,5	6,180950
2,167000	0,5	6,352850
2,175333	0,5	6,634900
2,183667	0,5	6,802550
2,192000	0,5	6,670950
2,200333	0,5	6,337450
2,208667	0,5	5,929800
2,217000	0,5	5,670350
2,225333	0,5	5,542100
2,233667	0,5	5,552450
2,242000	0,5	5,696550
2,250333	0,5	5,926750
2,258667	0,5	6,193500
2,267000	0,5	6,374250
2,275333	0,5	6,380650
2,283667	0,5	6,273200
2,292000	0,5	6,148350
2,300333	0,5	6,049600
2,308667	0,5	5,994700
2,317000	0,5	5,960750
2,325333	0,5	5,963150
2,333667	0,5	5,984050
2,342000	0,5	6,036500
2,350333	0,5	6,070750
2,358667	0,5	6,090250
2,367000	0,5	6,144700
2,375333	0,5	6,249850
2,383667	0,5	6,394650
2,392000	0,5	6,535100
2,400333	0,5	6,614450
2,408667	0,5	6,691200
2,417000	0,5	6,750100
2,425333	0,5	6,824650
2,433667	0,5	6,875600
2,442000	0,5	6,898100
2,450333	0,5	6,887400
2,458667	0,5	6,865700
2,467000	0,5	6,849650
2,475333	0,5	6,819450
2,483667	0,5	6,808400
2,492000	0,5	6,799500
2,500333	0,5	6,767600
2,508667	0,5	6,731250
2,517000	0,5	6,720250
2,525333	0,5	6,712750
2,533667	0,5	6,726050
2,542000	0,5	6,710800
2,550333	0,5	6,692850
2,558667	0,5	6,662450
2,567000	0,5	6,651900
2,575333	0,5	6,627100
2,583667	0,5	6,614050
2,592000	0,5	6,588700
2,600333	0,5	6,574500
2,608667	0,5	6,566350
2,617000	0,5	6,579900
2,625333	0,5	6,598750
2,633667	0,5	6,650250
2,642000	0,5	6,682150
2,650333	0,5	6,643850
2,658667	0,5	6,561150
2,667000	0,5	6,456500
2,675333	0,5	6,354400
2,683667	0,5	6,250850
2,692000	0,5	6,153300
2,700333	0,5	6,049500
2,708667	0,5	5,974850
2,717000	0,5	5,899800
2,725333	0,5	5,829100
2,733667	0,5	5,756300
2,742000	0,5	5,693400
2,750333	0,5	5,621750
2,758667	0,5	5,565200
2,767000	0,5	5,502300
2,775333	0,5	5,431200
2,783667	0,5	5,381400
2,792000	0,5	5,328250
2,800333	0,5	5,267500
2,808667	0,5	5,239150
2,817000	0,5	5,232200
2,825333	0,5	5,273600
2,833667	0,5	5,341850
2,842000	0,5	5,463850
2,850333	0,5	5,739150
2,858667	0,5	6,247300
2,867000	0,5	7,056550
2,875333	0,5	8,089200
2,883667	0,5	9,133300
2,892000	0,5	9,866500
2,900333	0,5	10,121850
2,908667	0,5	9,887350
2,917000	0,5	9,347500
2,925333	0,5	8,694450
2,933667	0,5	8,153850
2,942000	0,5	7,728200
2,950333	0,5	7,521900
2,958667	0,5	7,553100
2,967000	0,5	7,921450
2,975333	0,5	8,797650
2,983667	0,5	10,479550
2,992000	0,5	13,374750
3,000333	0,5	17,789500
3,008667	0,5	23,457100
3,017000	0,5	29,434350
3,025333	0,5	34,294001
3,033667	0,5	36,824651
3,042000	0,5	36,669201
3,050333	0,5	34,307951
3,058667	0,5	30,670550
3,067000	0,5	26,520250
3,075333	0,5	22,422050
3,083667	0,5	18,699550
3,092000	0,5	15,478050
3,100333	0,5	12,878800
3,108667	0,5	10,893100
3,117000	0,5	9,424000
3,125333	0,5	8,361950
3,133667	0,5	7,510550
3,142000	0,5	6,855850
3,150333	0,5	6,346350
3,158667	0,5	6,010000
3,167000	0,5	5,824800
3,175333	0,5	5,779400
3,183667	0,5	5,777600
3,192000	0,5	5,719050
3,200333	0,5	5,536250
3,208667	0,5	5,202250
3,217000	0,5	4,775400
3,225333	0,5	4,325950
3,233667	0,5	3,935000
3,242000	0,5	3,568650
3,250333	0,5	3,295700
3,258667	0,5	3,075700
3,267000	0,5	2,918000
3,275333	0,5	2,795500
3,283667	0,5	2,682300
3,292000	0,5	2,579600
3,300333	0,5	2,501250
3,308667	0,5	2,424450
3,317000	0,5	2,354500
3,325333	0,5	2,290800
3,333667	0,5	2,230650
3,342000	0,5	2,177350
3,350333	0,5	2,129600
3,358667	0,5	2,085750
3,367000	0,5	2,041800
3,375333	0,5	2,007700
3,383667	0,5	1,982600
3,392000	0,5	1,950650
3,400333	0,5	1,955500
3,408667	0,5	1,987550
3,417000	0,5	2,048300
3,425333	0,5	2,119750
3,433667	0,5	2,152900
3,442000	0,5	2,176600
3,450333	0,5	2,156150
3,458667	0,5	2,112050
3,467000	0,5	2,033300
3,475333	0,5	1,945900
3,483667	0,5	1,852300
3,492000	0,5	1,779800
3,500333	0,5	1,717850
3,508667	0,5	1,667300
3,517000	0,5	1,633700
3,525333	0,5	1,626350
3,533667	0,5	1,586400
3,542000	0,5	1,550400
3,550333	0,5	1,528450
3,558667	0,5	1,512100
3,567000	0,5	1,512000
3,575333	0,5	1,508650
3,583667	0,5	1,515950
3,592000	0,5	1,539550
3,600333	0,5	1,592450
3,608667	0,5	1,663800
3,617000	0,5	1,764800
3,625333	0,5	1,859950
3,633667	0,5	1,939050
3,642000	0,5	1,970950
3,650333	0,5	1,959650
3,658667	0,5	1,877150
3,667000	0,5	1,783350
3,675333	0,5	1,670400
3,683667	0,5	1,536200
3,692000	0,5	1,419200
3,700333	0,5	1,343350
3,708667	0,5	1,293050
3,717000	0,5	1,267050
3,725333	0,5	1,228700
3,733667	0,5	1,195950
3,742000	0,5	1,173050
3,750333	0,5	1,156600
3,758667	0,5	1,137750
3,767000	0,5	1,125200
3,775333	0,5	1,115450
3,783667	0,5	1,104600
3,792000	0,5	1,102450
3,800333	0,5	1,096100
3,808667	0,5	1,085950
3,817000	0,5	1,084550
3,825333	0,5	1,072800
3,833667	0,5	1,050350
3,842000	0,5	1,041900
3,850333	0,5	1,039050
3,858667	0,5	1,063300
3,867000	0,5	1,069000
3,875333	0,5	1,062050
3,883667	0,5	1,058450
3,892000	0,5	1,060450
3,900333	0,5	1,058350
3,908667	0,5	1,058050
3,917000	0,5	1,055150
3,925333	0,5	1,043650
3,933667	0,5	1,041300
3,942000	0,5	1,034250
3,950333	0,5	1,039950
3,958667	0,5	1,021850
3,967000	0,5	1,040000
3,975333	0,5	1,012600
3,983667	0,5	0,997300
3,992000	0,5	0,980250
4,000333	0,5	0,977550
4,008667	0,5	0,987650
4,017000	0,5	0,975450
4,025333	0,5	0,947050
4,033667	0,5	0,949600
4,042000	0,5	0,932750
4,050333	0,5	0,932000
4,058667	0,5	0,916950
4,067000	0,5	0,911600
4,075333	0,5	0,905550
4,083667	0,5	0,901400
4,092000	0,5	0,903500
4,100333	0,5	0,897650
4,108667	0,5	0,888250
4,117000	0,5	0,909550
4,125333	0,5	0,881900
4,133667	0,5	0,875800
4,142000	0,5	0,873850
4,150333	0,5	0,880250
4,158667	0,5	0,905800
4,167000	0,5	0,884850
4,175333	0,5	0,880100
4,183667	0,5	0,864700
4,192000	0,5	0,867100
4,200333	0,5	0,860550
4,208667	0,5	0,859150
4,217000	0,5	0,851750
4,225333	0,5	0,851600
4,233667	0,5	0,851200
4,242000	0,5	0,852650
4,250333	0,5	0,843700
4,258667	0,5	0,852700
4,267000	0,5	0,863250
4,275333	0,5	0,847500
4,283667	0,5	0,855300
4,292000	0,5	0,861800
4,300333	0,5	0,883400
4,308667	0,5	0,914350
4,317000	0,5	0,936750
4,325333	0,5	0,950000
4,333667	0,5	0,987300
4,342000	0,5	1,018200
4,350333	0,5	1,052550
4,358667	0,5	1,080700
4,367000	0,5	1,101250
4,375333	0,5	1,103900
4,383667	0,5	1,107000
4,392000	0,5	1,081300
4,400333	0,5	1,056600
4,408667	0,5	1,017800
4,417000	0,5	0,980850
4,425333	0,5	0,923700
4,433667	0,5	0,892700
4,442000	0,5	0,866600
4,450333	0,5	0,866300
4,458667	0,5	0,865100
4,467000	0,5	0,840400
4,475333	0,5	0,830600
4,483667	0,5	0,814750
4,492000	0,5	0,814450
4,500333	0,5	0,804100
4,508667	0,5	0,799650
4,517000	0,5	0,790550
4,525333	0,5	0,793550
4,533667	0,5	0,787000
4,542000	0,5	0,770350
4,550333	0,5	0,763100
4,558667	0,5	0,779200
4,567000	0,5	0,763750
4,575333	0,5	0,755150
4,583667	0,5	0,755050
4,592000	0,5	0,763200
4,600333	0,5	0,781800
4,608667	0,5	0,784600
4,617000	0,5	0,776000
4,625333	0,5	0,782550
4,633667	0,5	0,780750
4,642000	0,5	0,784250
4,650333	0,5	0,781100
4,658667	0,5	0,778450
4,667000	0,5	0,776350
4,675333	0,5	0,779550
4,683667	0,5	0,787200
4,692000	0,5	0,771950
4,700333	0,5	0,785000
4,708667	0,5	0,801850
4,717000	0,5	0,798000
4,725333	0,5	0,797500
4,733667	0,5	0,808400
4,742000	0,5	0,818650
4,750333	0,5	0,836400
4,758667	0,5	0,824800
4,767000	0,5	0,826000
4,775333	0,5	0,812050
4,783667	0,5	0,808350
4,792000	0,5	0,793200
4,800333	0,5	0,793050
4,808667	0,5	0,784200
4,817000	0,5	0,777550
4,825333	0,5	0,775650
4,833667	0,5	0,764900
4,842000	0,5	0,749500
4,850333	0,5	0,759450
4,858667	0,5	0,760800
4,867000	0,5	0,751850
4,875333	0,5	0,748150
4,883667	0,5	0,754300
4,892000	0,5	0,780000
4,900333	0,5	0,789700
4,908667	0,5	0,789150
4,917000	0,5	0,790150
4,925333	0,5	0,805650
4,933667	0,5	0,814050
4,942000	0,5	0,828800
4,950333	0,5	0,836300
4,958667	0,5	0,853450
4,967000	0,5	0,872300
4,975333	0,5	0,897750
4,983667	0,5	0,925250
4,992000	0,5	0,952450
5,000333	0,5	1,011050
5,008667	0,5	1,061950
5,017000	0,5	1,118550
5,025333	0,5	1,194850
5,033667	0,5	1,292750
5,042000	0,5	1,420200
5,050333	0,5	1,546300
5,058667	0,5	1,667000
5,067000	0,5	1,814650
5,075333	0,5	1,971050
5,083667	0,5	2,151100
5,092000	0,5	2,329600
5,100333	0,5	2,533200
5,108667	0,5	2,738400
5,117000	0,5	2,952400
5,125333	0,5	3,146700
5,133667	0,5	3,318150
5,142000	0,5	3,439900
5,150333	0,5	3,539550
5,158667	0,5	3,539500
5,167000	0,5	3,488800
5,175333	0,5	3,377600
5,183667	0,5	3,224200
5,192000	0,5	3,034600
5,200333	0,5	2,795400
5,208667	0,5	2,539400
5,217000	0,5	2,289750
5,225333	0,5	2,058050
5,233667	0,5	1,847600
5,242000	0,5	1,669900
5,250333	0,5	1,512050
5,258667	0,5	1,391150
5,267000	0,5	1,287350
5,275333	0,5	1,207250
5,283667	0,5	1,135200
5,292000	0,5	1,093800
5,300333	0,5	1,070050
5,308667	0,5	1,037150
5,317000	0,5	1,019400
5,325333	0,5	1,019950
5,333667	0,5	1,028800
5,342000	0,5	1,053200
5,350333	0,5	1,054500
5,358667	0,5	1,059800
5,367000	0,5	1,067300
5,375333	0,5	1,077800
5,383667	0,5	1,086600
5,392000	0,5	1,097100
5,400333	0,5	1,105500
5,408667	0,5	1,112250
5,417000	0,5	1,128850
5,425333	0,5	1,130850
5,433667	0,5	1,143300
5,442000	0,5	1,168500
5,450333	0,5	1,196250
5,458667	0,5	1,203700
5,467000	0,5	1,232300
5,475333	0,5	1,254900
5,483667	0,5	1,303900
5,492000	0,5	1,330500
5,500333	0,5	1,343150
5,508667	0,5	1,335600
5,517000	0,5	1,329950
5,525333	0,5	1,310450
5,533667	0,5	1,284750
5,542000	0,5	1,253400
5,550333	0,5	1,214600
5,558667	0,5	1,178950
5,567000	0,5	1,140900
5,575333	0,5	1,096300
5,583667	0,5	1,062600
5,592000	0,5	1,043650
5,600333	0,5	1,009600
5,608667	0,5	0,980000
5,617000	0,5	0,964850
5,625333	0,5	0,958750
5,633667	0,5	0,964000
5,642000	0,5	0,962600
5,650333	0,5	0,949250
5,658667	0,5	0,949900
5,667000	0,5	0,945450
5,675333	0,5	0,952950
5,683667	0,5	0,950200
5,692000	0,5	0,954250
5,700333	0,5	0,951200
5,708667	0,5	0,951800
5,717000	0,5	0,954350
5,725333	0,5	0,950450
5,733667	0,5	0,955400
5,742000	0,5	0,977400
5,750333	0,5	0,970950
5,758667	0,5	0,971950
5,767000	0,5	0,987600
5,775333	0,5	1,010900
5,783667	0,5	1,043750
5,792000	0,5	1,044050
5,800333	0,5	1,064900
5,808667	0,5	1,078200
5,817000	0,5	1,101800
5,825333	0,5	1,114350
5,833667	0,5	1,138600
5,842000	0,5	1,158700
5,850333	0,5	1,191500
5,858667	0,5	1,229000
5,867000	0,5	1,281450
5,875333	0,5	1,332600
5,883667	0,5	1,421650
5,892000	0,5	1,531650
5,900333	0,5	1,656150
5,908667	0,5	1,825000
5,917000	0,5	2,039700
5,925333	0,5	2,300550
5,933667	0,5	2,593750
5,942000	0,5	2,883350
5,950333	0,5	3,179400
5,958667	0,5	3,453950
5,967000	0,5	3,685950
5,975333	0,5	3,851850
5,983667	0,5	3,932150
5,992000	0,5	3,927250
6,000333	0,5	3,834600
6,008667	0,5	3,678600
6,017000	0,5	3,468750
6,025333	0,5	3,210000
6,033667	0,5	2,950450
6,042000	0,5	2,684350
6,050333	0,5	2,425950
6,058667	0,5	2,202100
6,067000	0,5	2,014100
6,075333	0,5	1,869500
6,083667	0,5	1,737100
6,092000	0,5	1,622100
6,100333	0,5	1,535550
6,108667	0,5	1,466550
6,117000	0,5	1,411600
6,125333	0,5	1,365350
6,133667	0,5	1,331050
6,142000	0,5	1,301800
6,150333	0,5	1,286100
6,158667	0,5	1,271700
6,167000	0,5	1,263600
6,175333	0,5	1,248350
6,183667	0,5	1,261900
6,192000	0,5	1,248900
6,200333	0,5	1,252900
6,208667	0,5	1,260350
6,217000	0,5	1,282700
6,225333	0,5	1,311500
6,233667	0,5	1,328250
6,242000	0,5	1,335250
6,250333	0,5	1,350800
6,258667	0,5	1,355550
6,267000	0,5	1,363750
6,275333	0,5	1,362100
6,283667	0,5	1,354950
6,292000	0,5	1,347300
6,300333	0,5	1,336900
6,308667	0,5	1,323000
6,317000	0,5	1,298450
6,325333	0,5	1,285100
6,333667	0,5	1,280800
6,342000	0,5	1,262150
6,350333	0,5	1,257750
6,358667	0,5	1,255200
6,367000	0,5	1,260600
6,375333	0,5	1,277700
6,383667	0,5	1,270950
6,392000	0,5	1,273650
6,400333	0,5	1,269550
6,408667	0,5	1,272000
6,417000	0,5	1,268400
6,425333	0,5	1,271950
6,433667	0,5	1,269500
6,442000	0,5	1,269400
6,450333	0,5	1,273950
6,458667	0,5	1,273050
6,467000	0,5	1,272750
6,475333	0,5	1,287050
6,483667	0,5	1,290000
6,492000	0,5	1,289300
6,500333	0,5	1,295300
6,508667	0,5	1,304150
6,517000	0,5	1,332500
6,525333	0,5	1,346450
6,533667	0,5	1,359800
6,542000	0,5	1,363150
6,550333	0,5	1,372850
6,558667	0,5	1,370650
6,567000	0,5	1,373000
6,575333	0,5	1,371800
6,583667	0,5	1,374000
6,592000	0,5	1,373550
6,600333	0,5	1,373100
6,608667	0,5	1,374500
6,617000	0,5	1,376700
6,625333	0,5	1,387150
6,633667	0,5	1,387300
6,642000	0,5	1,380350
6,650333	0,5	1,385250
6,658667	0,5	1,392000
6,667000	0,5	1,412300
6,675333	0,5	1,418700
6,683667	0,5	1,412900
6,692000	0,5	1,418900
6,700333	0,5	1,418600
6,708667	0,5	1,424650
6,717000	0,5	1,421150
6,725333	0,5	1,420150
6,733667	0,5	1,419750
6,742000	0,5	1,421200
6,750333	0,5	1,421850
6,758667	0,5	1,417150
6,767000	0,5	1,411700
6,775333	0,5	1,429900
6,783667	0,5	1,417500
6,792000	0,5	1,414950
6,800333	0,5	1,417300
6,808667	0,5	1,425850
6,817000	0,5	1,442850
6,825333	0,5	1,440750
6,833667	0,5	1,442300
6,842000	0,5	1,450400
6,850333	0,5	1,453400
6,858667	0,5	1,454200
6,867000	0,5	1,458000
6,875333	0,5	1,456650
6,883667	0,5	1,459700
6,892000	0,5	1,459900
6,900333	0,5	1,464850
6,908667	0,5	1,450650
6,917000	0,5	1,451800
6,925333	0,5	1,459800
6,933667	0,5	1,450750
6,942000	0,5	1,445300
6,950333	0,5	1,453200
6,958667	0,5	1,464350
6,967000	0,5	1,485800
6,975333	0,5	1,487050
6,983667	0,5	1,507950
6,992000	0,5	1,528050
7,000333	0,5	1,557200
7,008667	0,5	1,576700
7,017000	0,5	1,594250
7,025333	0,5	1,596900
7,033667	0,5	1,584500
7,042000	0,5	1,564550
7,050333	0,5	1,535950
7,058667	0,5	1,504750
7,067000	0,5	1,494050
7,075333	0,5	1,476150
7,083667	0,5	1,460900
7,092000	0,5	1,450500
7,100333	0,5	1,449900
7,108667	0,5	1,466700
7,117000	0,5	1,467800
7,125333	0,5	1,464450
7,133667	0,5	1,453050
7,142000	0,5	1,446850
7,150333	0,5	1,429800
7,158667	0,5	1,409750
7,167000	0,5	1,389750
7,175333	0,5	1,371950
7,183667	0,5	1,359550
7,192000	0,5	1,348600
7,200333	0,5	1,342500
7,208667	0,5	1,336000
7,217000	0,5	1,335900
7,225333	0,5	1,325250
7,233667	0,5	1,313900
7,242000	0,5	1,304950
7,250333	0,5	1,305800
7,258667	0,5	1,308750
7,267000	0,5	1,308200
7,275333	0,5	1,292950
7,283667	0,5	1,287800
7,292000	0,5	1,278200
7,300333	0,5	1,275550
7,308667	0,5	1,271450
7,317000	0,5	1,267100
7,325333	0,5	1,260700
7,333667	0,5	1,257500
7,342000	0,5	1,254450
7,350333	0,5	1,247850
7,358667	0,5	1,242000
7,367000	0,5	1,250850
7,375333	0,5	1,245000
7,383667	0,5	1,246800
7,392000	0,5	1,249600
7,400333	0,5	1,259900
7,408667	0,5	1,269600
7,417000	0,5	1,266300
7,425333	0,5	1,261550
7,433667	0,5	1,250800
7,442000	0,5	1,241800
7,450333	0,5	1,224550
7,458667	0,5	1,214050
7,467000	0,5	1,200100
7,475333	0,5	1,195650
7,483667	0,5	1,193350
7,492000	0,5	1,192850
7,500333	0,5	1,190000
7,508667	0,5	1,195700
7,517000	0,5	1,195500
7,525333	0,5	1,187100
7,533667	0,5	1,175650
7,542000	0,5	1,166700
7,550333	0,5	1,166500
7,558667	0,5	1,160550
7,567000	0,5	1,151700
7,575333	0,5	1,139450
7,583667	0,5	1,130750
7,592000	0,5	1,122650
7,600333	0,5	1,113600
7,608667	0,5	1,104700
7,617000	0,5	1,100400
7,625333	0,5	1,100550
7,633667	0,5	1,112950
7,642000	0,5	1,129350
7,650333	0,5	1,166650
7,658667	0,5	1,233350
7,667000	0,5	1,305600
7,675333	0,5	1,385150
7,683667	0,5	1,466300
7,692000	0,5	1,534450
7,700333	0,5	1,568950
7,708667	0,5	1,540900
7,717000	0,5	1,464500
7,725333	0,5	1,369900
7,733667	0,5	1,273700
7,742000	0,5	1,197500
7,750333	0,5	1,143300
7,758667	0,5	1,107300
7,767000	0,5	1,088700
7,775333	0,5	1,084300
7,783667	0,5	1,081450
7,792000	0,5	1,080850
7,800333	0,5	1,082750
7,808667	0,5	1,087150
7,817000	0,5	1,074050
7,825333	0,5	1,057950
7,833667	0,5	1,041700
7,842000	0,5	1,038800
7,850333	0,5	1,039750
7,858667	0,5	1,037150
7,867000	0,5	1,034650
7,875333	0,5	1,034550
7,883667	0,5	1,032450
7,892000	0,5	1,030750
7,900333	0,5	1,029150
7,908667	0,5	1,031800
7,917000	0,5	1,042550
7,925333	0,5	1,057800
7,933667	0,5	1,090000
7,942000	0,5	1,105400
7,950333	0,5	1,109200
7,958667	0,5	1,096200
7,967000	0,5	1,060800
7,975333	0,5	1,022550
7,983667	0,5	0,997200
7,992000	0,5	0,995400
8,000333	0,5	1,017350
8,008667	0,5	1,052150
8,017000	0,5	1,100450
8,025333	0,5	1,150550
8,033667	0,5	1,197100
8,042000	0,5	1,237250
8,050333	0,5	1,293600
8,058667	0,5	1,371400
8,067000	0,5	1,479450
8,075333	0,5	1,615850
8,083667	0,5	1,781450
8,092000	0,5	1,988300
8,100333	0,5	2,304350
8,108667	0,5	2,839200
8,117000	0,5	3,805600
8,125333	0,5	5,467300
8,133667	0,5	7,949650
8,142000	0,5	10,976900
8,150333	0,5	13,727850
8,158667	0,5	15,230800
8,167000	0,5	14,920250
8,175333	0,5	12,985450
8,183667	0,5	10,187950
8,192000	0,5	7,385000
8,200333	0,5	5,116950
8,208667	0,5	3,542950
8,217000	0,5	2,570250
8,225333	0,5	2,003550
8,233667	0,5	1,682850
8,242000	0,5	1,500400
8,250333	0,5	1,396000
8,258667	0,5	1,323700
8,267000	0,5	1,263900
8,275333	0,5	1,207650
8,283667	0,5	1,167050
8,292000	0,5	1,142150
8,300333	0,5	1,124000
8,308667	0,5	1,102300
8,317000	0,5	1,080600
8,325333	0,5	1,046950
8,333667	0,5	1,016350
8,342000	0,5	0,987450
8,350333	0,5	0,971700
8,358667	0,5	0,961450
8,367000	0,5	0,953150
8,375333	0,5	0,945350
8,383667	0,5	0,933750
8,392000	0,5	0,921000
8,400333	0,5	0,908250
8,408667	0,5	0,891350
8,417000	0,5	0,874650
8,425333	0,5	0,858100
8,433667	0,5	0,856500
8,442000	0,5	0,854550
8,450333	0,5	0,851200
8,458667	0,5	0,848500
8,467000	0,5	0,852750
8,475333	0,5	0,857200
8,483667	0,5	0,861100
8,492000	0,5	0,863600
8,500333	0,5	0,863800
8,508667	0,5	0,865650
8,517000	0,5	0,869100
8,525333	0,5	0,876650
8,533667	0,5	0,884750
8,542000	0,5	0,899050
8,550333	0,5	0,907150
8,558667	0,5	0,898800
8,567000	0,5	0,880500
8,575333	0,5	0,868500
8,583667	0,5	0,865650
8,592000	0,5	0,865300
8,600333	0,5	0,874750
8,608667	0,5	0,878050
8,617000	0,5	0,888050
8,625333	0,5	0,892650
8,633667	0,5	0,891650
8,642000	0,5	0,885450
8,650333	0,5	0,873900
8,658667	0,5	0,859100
8,667000	0,5	0,842400
8,675333	0,5	0,823700
8,683667	0,5	0,816000
8,692000	0,5	0,825650
8,700333	0,5	0,846600
8,708667	0,5	0,872450
8,717000	0,5	0,902800
8,725333	0,5	0,938550
8,733667	0,5	0,983900
8,742000	0,5	1,009550
8,750333	0,5	1,027050
8,758667	0,5	1,021750
8,767000	0,5	1,001150
8,775333	0,5	0,967000
8,783667	0,5	0,935800
8,792000	0,5	0,910350
8,800333	0,5	0,891200
8,808667	0,5	0,886800
8,817000	0,5	0,894500
8,825333	0,5	0,916900
8,833667	0,5	0,965650
8,842000	0,5	1,047000
8,850333	0,5	1,148250
8,858667	0,5	1,262200
8,867000	0,5	1,380900
8,875333	0,5	1,513700
8,883667	0,5	1,691050
8,892000	0,5	1,961950
8,900333	0,5	2,460850
8,908667	0,5	3,422200
8,917000	0,5	5,151400
8,925333	0,5	7,781950
8,933667	0,5	10,906150
8,942000	0,5	13,532300
8,950333	0,5	14,605950
8,958667	0,5	13,725500
8,967000	0,5	11,356700
8,975333	0,5	8,449250
8,983667	0,5	5,839700
8,992000	0,5	3,917050
9,000333	0,5	2,680650
9,008667	0,5	1,954850
9,017000	0,5	1,550000
9,025333	0,5	1,328150
9,033667	0,5	1,202850
9,042000	0,5	1,130300
9,050333	0,5	1,085500
9,058667	0,5	1,052950
9,067000	0,5	1,027400
9,075333	0,5	1,007550
9,083667	0,5	0,990600
9,092000	0,5	0,980550
9,100333	0,5	0,978950
9,108667	0,5	0,982300
9,117000	0,5	0,987550
9,125333	0,5	0,993550
9,133667	0,5	0,995800
9,142000	0,5	0,997600
9,150333	0,5	0,995600
9,158667	0,5	0,994700
9,167000	0,5	0,993900
9,175333	0,5	1,000750
9,183667	0,5	1,013000
9,192000	0,5	1,025450
9,200333	0,5	1,041550
9,208667	0,5	1,061200
9,217000	0,5	1,076900
9,225333	0,5	1,087700
9,233667	0,5	1,091200
9,242000	0,5	1,087350
9,250333	0,5	1,076150
9,258667	0,5	1,070400
9,267000	0,5	1,068800
9,275333	0,5	1,066050
9,283667	0,5	1,070900
9,292000	0,5	1,073750
9,300333	0,5	1,060600
9,308667	0,5	1,033750
9,317000	0,5	0,996800
9,325333	0,5	0,966250
9,333667	0,5	0,939550
9,342000	0,5	0,919150
9,350333	0,5	0,906900
9,358667	0,5	0,899800
9,367000	0,5	0,896600
9,375333	0,5	0,896250
9,383667	0,5	0,901400
9,392000	0,5	0,905200
9,400333	0,5	0,912050
9,408667	0,5	0,918950
9,417000	0,5	0,925950
9,425333	0,5	0,932250
9,433667	0,5	0,942600
9,442000	0,5	0,949050
9,450333	0,5	0,954750
9,458667	0,5	0,957600
9,467000	0,5	0,964700
9,475333	0,5	0,972750
9,483667	0,5	0,982050
9,492000	0,5	0,984400
9,500333	0,5	0,994650
9,508667	0,5	0,992300
9,517000	0,5	0,993850
9,525333	0,5	0,991350
9,533667	0,5	0,987850
9,542000	0,5	0,991400
9,550333	0,5	1,000150
9,558667	0,5	1,011550
9,567000	0,5	1,031450
9,575333	0,5	1,058150
9,583667	0,5	1,098750
9,592000	0,5	1,141300
9,600333	0,5	1,191800
9,608667	0,5	1,240500
9,617000	0,5	1,281750
9,625333	0,5	1,313550
9,633667	0,5	1,329200
9,642000	0,5	1,339400
9,650333	0,5	1,336750
9,658667	0,5	1,326650
9,667000	0,5	1,312550
9,675333	0,5	1,292100
9,683667	0,5	1,276450
9,692000	0,5	1,254350
9,700333	0,5	1,242350
9,708667	0,5	1,237350
9,717000	0,5	1,232700
9,725333	0,5	1,233000
9,733667	0,5	1,241400
9,742000	0,5	1,250250
9,750333	0,5	1,258800
9,758667	0,5	1,271650
9,767000	0,5	1,278900
9,775333	0,5	1,287300
9,783667	0,5	1,293600
9,792000	0,5	1,302300
9,800333	0,5	1,314400
9,808667	0,5	1,324650
9,817000	0,5	1,336550
9,825333	0,5	1,347250
9,833667	0,5	1,355350
9,842000	0,5	1,352600
9,850333	0,5	1,358850
9,858667	0,5	1,358250
9,867000	0,5	1,361350
9,875333	0,5	1,364600
9,883667	0,5	1,372550
9,892000	0,5	1,384700
9,900333	0,5	1,398900
9,908667	0,5	1,414150
9,917000	0,5	1,437800
9,925333	0,5	1,456900
9,933667	0,5	1,473150
9,942000	0,5	1,487100
9,950333	0,5	1,492400
9,958667	0,5	1,497950
9,967000	0,5	1,496600
9,975333	0,5	1,495900
9,983667	0,5	1,500150
9,992000	0,5	1,506300
10,000333	0,5	1,515600
10,008667	0,5	1,528900
10,017000	0,5	1,542250
10,025333	0,5	1,563000
10,033667	0,5	1,593350
10,042000	0,5	1,630900
10,050333	0,5	1,686150
10,058667	0,5	1,758100
10,067000	0,5	1,850750
10,075333	0,5	1,963650
10,083667	0,5	2,097800
10,092000	0,5	2,238800
10,100333	0,5	2,384750
10,108667	0,5	2,533550
10,117000	0,5	2,665650
10,125333	0,5	2,773750
10,133667	0,5	2,837300
10,142000	0,5	2,855050
10,150333	0,5	2,811700
10,158667	0,5	2,715000
10,167000	0,5	2,569550
10,175333	0,5	2,405500
10,183667	0,5	2,236200
10,192000	0,5	2,075700
10,200333	0,5	1,943350
10,208667	0,5	1,839450
10,217000	0,5	1,766350
10,225333	0,5	1,721250
10,233667	0,5	1,695600
10,242000	0,5	1,673150
10,250333	0,5	1,668150
10,258667	0,5	1,661950
10,267000	0,5	1,650200
10,275333	0,5	1,641600
10,283667	0,5	1,628600
10,292000	0,5	1,614650
10,300333	0,5	1,605500
10,308667	0,5	1,595200
10,317000	0,5	1,584700
10,325333	0,5	1,581350
10,333667	0,5	1,578350
10,342000	0,5	1,574050
10,350333	0,5	1,571850
10,358667	0,5	1,569350
10,367000	0,5	1,579450
10,375333	0,5	1,585450
10,383667	0,5	1,596150
10,392000	0,5	1,603400
10,400333	0,5	1,606500
10,408667	0,5	1,612100
10,417000	0,5	1,612250
10,425333	0,5	1,609650
10,433667	0,5	1,604850
10,442000	0,5	1,603800
10,450333	0,5	1,605650
10,458667	0,5	1,603150
10,467000	0,5	1,608650
10,475333	0,5	1,611800
10,483667	0,5	1,614850
10,492000	0,5	1,621150
10,500333	0,5	1,625950
10,508667	0,5	1,635850
10,517000	0,5	1,645250
10,525333	0,5	1,654550
10,533667	0,5	1,656000
10,542000	0,5	1,653500
10,550333	0,5	1,646600
10,558667	0,5	1,637000
10,567000	0,5	1,627200
10,575333	0,5	1,615100
10,583667	0,5	1,605300
10,592000	0,5	1,598150
10,600333	0,5	1,593150
10,608667	0,5	1,581050
10,617000	0,5	1,576000
10,625333	0,5	1,575800
10,633667	0,5	1,569450
10,642000	0,5	1,563350
10,650333	0,5	1,557250
10,658667	0,5	1,552650
10,667000	0,5	1,548750
10,675333	0,5	1,542650
10,683667	0,5	1,535450
10,692000	0,5	1,527000
10,700333	0,5	1,524600
10,708667	0,5	1,521450
10,717000	0,5	1,522850
10,725333	0,5	1,527650
10,733667	0,5	1,534800
10,742000	0,5	1,542750
10,750333	0,5	1,540200
10,758667	0,5	1,531150
10,767000	0,5	1,527150
10,775333	0,5	1,509800
10,783667	0,5	1,489750
10,792000	0,5	1,463800
10,800333	0,5	1,436800
10,808667	0,5	1,423250
10,817000	0,5	1,404550
10,825333	0,5	1,389900
10,833667	0,5	1,373200
10,842000	0,5	1,362600
10,850333	0,5	1,350000
10,858667	0,5	1,348550
10,867000	0,5	1,339500
10,875333	0,5	1,338200
10,883667	0,5	1,333450
10,892000	0,5	1,329550
10,900333	0,5	1,322100
10,908667	0,5	1,317000
10,917000	0,5	1,322200
10,925333	0,5	1,326800
10,933667	0,5	1,330900
10,942000	0,5	1,344400
10,950333	0,5	1,352750
10,958667	0,5	1,359350
10,967000	0,5	1,359150
10,975333	0,5	1,343250
10,983667	0,5	1,326750
10,992000	0,5	1,305500
11,000333	0,5	1,284050
11,008667	0,5	1,260250
11,017000	0,5	1,237350
11,025333	0,5	1,217350
11,033667	0,5	1,204650
11,042000	0,5	1,189100
11,050333	0,5	1,176750
11,058667	0,5	1,167800
11,067000	0,5	1,166050
11,075333	0,5	1,158800
11,083667	0,5	1,157550
11,092000	0,5	1,152000
11,100333	0,5	1,149900
11,108667	0,5	1,160500
11,117000	0,5	1,172750
11,125333	0,5	1,185300
11,133667	0,5	1,196400
11,142000	0,5	1,201100
11,150333	0,5	1,198500
11,158667	0,5	1,190200
11,167000	0,5	1,176150
11,175333	0,5	1,155650
11,183667	0,5	1,140500
11,192000	0,5	1,127100
11,200333	0,5	1,110800
11,208667	0,5	1,105250
11,217000	0,5	1,096150
11,225333	0,5	1,091500
11,233667	0,5	1,082800
11,242000	0,5	1,079000
11,250333	0,5	1,084000
11,258667	0,5	1,090800
11,267000	0,5	1,095650
11,275333	0,5	1,105650
11,283667	0,5	1,123150
11,292000	0,5	1,138700
11,300333	0,5	1,154200
11,308667	0,5	1,170550
11,317000	0,5	1,183050
11,325333	0,5	1,191750
11,333667	0,5	1,201500
11,342000	0,5	1,198050
11,350333	0,5	1,189750
11,358667	0,5	1,176000
11,367000	0,5	1,152000
11,375333	0,5	1,116150
11,383667	0,5	1,074900
11,392000	0,5	1,032650
11,400333	0,5	1,003400
11,408667	0,5	0,978350
11,417000	0,5	0,968650
11,425333	0,5	0,970800
11,433667	0,5	0,986900
11,442000	0,5	1,002050
11,450333	0,5	1,023850
11,458667	0,5	1,037100
11,467000	0,5	1,046950
11,475333	0,5	1,055350
11,483667	0,5	1,051500
11,492000	0,5	1,040050
11,500333	0,5	1,034450
11,508667	0,5	1,028450
11,517000	0,5	1,017650
11,525333	0,5	1,008350
11,533667	0,5	0,993600
11,542000	0,5	0,988750
11,550333	0,5	0,983200
11,558667	0,5	0,983500
11,567000	0,5	0,979900
11,575333	0,5	0,979000
11,583667	0,5	0,977050
11,592000	0,5	0,978700
11,600333	0,5	0,974100
11,608667	0,5	0,973700
11,617000	0,5	0,967600
11,625333	0,5	0,964100
11,633667	0,5	0,957800
11,642000	0,5	0,946300
11,650333	0,5	0,940000
11,658667	0,5	0,938950
11,667000	0,5	0,932600
11,675333	0,5	0,929850
11,683667	0,5	0,919850
11,692000	0,5	0,921450
11,700333	0,5	0,924200
11,708667	0,5	0,925900
11,717000	0,5	0,927900
11,725333	0,5	0,929450
11,733667	0,5	0,934200
11,742000	0,5	0,938050
11,750333	0,5	0,943100
11,758667	0,5	0,946150
11,767000	0,5	0,952300
11,775333	0,5	0,960350
11,783667	0,5	0,970450
11,792000	0,5	0,974600
11,800333	0,5	0,991650
11,808667	0,5	1,008650
11,817000	0,5	1,021350
11,825333	0,5	1,031950
11,833667	0,5	1,040350
11,842000	0,5	1,049300
11,850333	0,5	1,060050
11,858667	0,5	1,060600
11,867000	0,5	1,060300
11,875333	0,5	1,060850
11,883667	0,5	1,061500
11,892000	0,5	1,061250
11,900333	0,5	1,064650
11,908667	0,5	1,072550
11,917000	0,5	1,077700
11,925333	0,5	1,095650
11,933667	0,5	1,099500
11,942000	0,5	1,108050
11,950333	0,5	1,126000
11,958667	0,5	1,138200
11,967000	0,5	1,149100
11,975333	0,5	1,168850
11,983667	0,5	1,188400
11,992000	0,5	1,224150
12,000333	0,5	1,258250
12,008667	0,5	1,299950
12,017000	0,5	1,343150
12,025333	0,5	1,387000
12,033667	0,5	1,422900
12,042000	0,5	1,458200
12,050333	0,5	1,477900
12,058667	0,5	1,481300
12,067000	0,5	1,480250
12,075333	0,5	1,471750
12,083667	0,5	1,453750
12,092000	0,5	1,438150
12,100333	0,5	1,432550
12,108667	0,5	1,424200
12,117000	0,5	1,411350
12,125333	0,5	1,391950
12,133667	0,5	1,374400
12,142000	0,5	1,359450
12,150333	0,5	1,341200
12,158667	0,5	1,319350
12,167000	0,5	1,306150
12,175333	0,5	1,287850
12,183667	0,5	1,282400
12,192000	0,5	1,275200
12,200333	0,5	1,274500
12,208667	0,5	1,278400
12,217000	0,5	1,275200
12,225333	0,5	1,272700
12,233667	0,5	1,264050
12,242000	0,5	1,264400
12,250333	0,5	1,260550
12,258667	0,5	1,255700
12,267000	0,5	1,244350
12,275333	0,5	1,234500
12,283667	0,5	1,228400
12,292000	0,5	1,234700
12,300333	0,5	1,228400
12,308667	0,5	1,229650
12,317000	0,5	1,230500
12,325333	0,5	1,234500
12,333667	0,5	1,242850
12,342000	0,5	1,250700
12,350333	0,5	1,255750
12,358667	0,5	1,258700
12,367000	0,5	1,261550
12,375333	0,5	1,255550
12,383667	0,5	1,244900
12,392000	0,5	1,241350
12,400333	0,5	1,228200
12,408667	0,5	1,213300
12,417000	0,5	1,197250
12,425333	0,5	1,185350
12,433667	0,5	1,181050
12,442000	0,5	1,176550
12,450333	0,5	1,178550
12,458667	0,5	1,172650
12,467000	0,5	1,175050
12,475333	0,5	1,173100
12,483667	0,5	1,171900
12,492000	0,5	1,174650
12,500333	0,5	1,173900
12,508667	0,5	1,174600
12,517000	0,5	1,175500
12,525333	0,5	1,166600
12,533667	0,5	1,169400
12,542000	0,5	1,168000
12,550333	0,5	1,170350
12,558667	0,5	1,165300
12,567000	0,5	1,160700
12,575333	0,5	1,168650
12,583667	0,5	1,174450
12,592000	0,5	1,180850
12,600333	0,5	1,186800
12,608667	0,5	1,194150
12,617000	0,5	1,196200
12,625333	0,5	1,199400
12,633667	0,5	1,198900
12,642000	0,5	1,196050
12,650333	0,5	1,189100
12,658667	0,5	1,189250
12,667000	0,5	1,184300
12,675333	0,5	1,173700
12,683667	0,5	1,175050
12,692000	0,5	1,177800
12,700333	0,5	1,178900
12,708667	0,5	1,177250
12,717000	0,5	1,172750
12,725333	0,5	1,181150
12,733667	0,5	1,185850
12,742000	0,5	1,191000
12,750333	0,5	1,190200
12,758667	0,5	1,195850
12,767000	0,5	1,193200
12,775333	0,5	1,195250
12,783667	0,5	1,192150
12,792000	0,5	1,187850
12,800333	0,5	1,184100
12,808667	0,5	1,179900
12,817000	0,5	1,181700
12,825333	0,5	1,172900
12,833667	0,5	1,182250
12,842000	0,5	1,182850
12,850333	0,5	1,182100
12,858667	0,5	1,180750
12,867000	0,5	1,169800
12,875333	0,5	1,166450
12,883667	0,5	1,160550
12,892000	0,5	1,145750
12,900333	0,5	1,133950
12,908667	0,5	1,121800
12,917000	0,5	1,112900
12,925333	0,5	1,108500
12,933667	0,5	1,105100
12,942000	0,5	1,098800
12,950333	0,5	1,094200
12,958667	0,5	1,099650
12,967000	0,5	1,092450
12,975333	0,5	1,092500
12,983667	0,5	1,101600
12,992000	0,5	1,104200
13,000333	0,5	1,102450
13,008667	0,5	1,099500
13,017000	0,5	1,092000
13,025333	0,5	1,094600
13,033667	0,5	1,090100
13,042000	0,5	1,093500
13,050333	0,5	1,100150
13,058667	0,5	1,108050
13,067000	0,5	1,110850
13,075333	0,5	1,114500
13,083667	0,5	1,112450
13,092000	0,5	1,108600
13,100333	0,5	1,111600
13,108667	0,5	1,112500
13,117000	0,5	1,106900
13,125333	0,5	1,110800
13,133667	0,5	1,107750
13,142000	0,5	1,105800
13,150333	0,5	1,096250
13,158667	0,5	1,078250
13,167000	0,5	1,068400
13,175333	0,5	1,076100
13,183667	0,5	1,082150
13,192000	0,5	1,080800
13,200333	0,5	1,083050
13,208667	0,5	1,075350
13,217000	0,5	1,067150
13,225333	0,5	1,052650
13,233667	0,5	1,052100
13,242000	0,5	1,051700
13,250333	0,5	1,058600
13,258667	0,5	1,052850
13,267000	0,5	1,044000
13,275333	0,5	1,037650
13,283667	0,5	1,026000
13,292000	0,5	1,018450
13,300333	0,5	1,009300
13,308667	0,5	0,999600
13,317000	0,5	0,995150
13,325333	0,5	0,996350
13,333667	0,5	0,987750
13,342000	0,5	0,990600
13,350333	0,5	0,987850
13,358667	0,5	0,988750
13,367000	0,5	0,989600
13,375333	0,5	0,989300
13,383667	0,5	0,985150
13,392000	0,5	0,987850
13,400333	0,5	0,987600
13,408667	0,5	0,984950
13,417000	0,5	0,980350
13,425333	0,5	0,986600
13,433667	0,5	0,978500
13,442000	0,5	0,976100
13,450333	0,5	0,961300
13,458667	0,5	0,955900
13,467000	0,5	0,958950
13,475333	0,5	0,956950
13,483667	0,5	0,955500
13,492000	0,5	0,955800
13,500333	0,5	0,957950
13,508667	0,5	0,955050
13,517000	0,5	0,955200
13,525333	0,5	0,951400
13,533667	0,5	0,951950
13,542000	0,5	0,954750
13,550333	0,5	0,955300
13,558667	0,5	0,941600
13,567000	0,5	0,950200
13,575333	0,5	0,952400
13,583667	0,5	0,948800
13,592000	0,5	0,943300
13,600333	0,5	0,932350
13,608667	0,5	0,930050
13,617000	0,5	0,934600
13,625333	0,5	0,934550
13,633667	0,5	0,936400
13,642000	0,5	0,934450
13,650333	0,5	0,935400
13,658667	0,5	0,937600
13,667000	0,5	0,934750
13,675333	0,5	0,938000
13,683667	0,5	0,932100
13,692000	0,5	0,937650
13,700333	0,5	0,934600
13,708667	0,5	0,929350
13,717000	0,5	0,938150
13,725333	0,5	0,942200
13,733667	0,5	0,938000
13,742000	0,5	0,935350
13,750333	0,5	0,923950
13,758667	0,5	0,927900
13,767000	0,5	0,924450
13,775333	0,5	0,922450
13,783667	0,5	0,914800
13,792000	0,5	0,913350
13,800333	0,5	0,906300
13,808667	0,5	0,907450
13,817000	0,5	0,900550
13,825333	0,5	0,899950
13,833667	0,5	0,896950
13,842000	0,5	0,899450
13,850333	0,5	0,902500
13,858667	0,5	0,899450
13,867000	0,5	0,912450
13,875333	0,5	0,913650
13,883667	0,5	0,907800
13,892000	0,5	0,887200
13,900333	0,5	0,861500
13,908667	0,5	0,843750
13,917000	0,5	0,817000
13,925333	0,5	0,791150
13,933667	0,5	0,769000
13,942000	0,5	0,741450
13,950333	0,5	0,715100
13,958667	0,5	0,683400
13,967000	0,5	0,640700
13,975333	0,5	0,557750
13,983667	0,5	0,363350
13,992000	0,5	0,095150
14,000333	0,5	-0,162500
14,008667	0,5	-0,337950
14,017000	0,5	-0,437650
14,025333	0,5	-0,495750
14,033667	0,5	-0,537350
14,042000	0,5	-0,568200
14,050333	0,5	-0,586750
14,058667	0,5	-0,592300
14,067000	0,5	-0,611450
14,075333	0,5	-0,625350
14,083667	0,5	-0,644500
14,092000	0,5	-0,649500
14,100333	0,5	-0,657800
14,108667	0,5	-0,657100
14,117000	0,5	-0,660550
14,125333	0,5	-0,664650
14,133667	0,5	-0,658950
14,142000	0,5	-0,656200
14,150333	0,5	-0,665400
14,158667	0,5	-0,652350
14,167000	0,5	-0,648150
14,175333	0,5	-0,645250
14,183667	0,5	-0,645600
14,192000	0,5	-0,646350
14,200333	0,5	-0,635600
14,208667	0,5	-0,627200
14,217000	0,5	-0,611300
14,225333	0,5	-0,600200
14,233667	0,5	-0,580050
14,242000	0,5	-0,569050
14,250333	0,5	-0,551950
14,258667	0,5	-0,538600
14,267000	0,5	-0,525650
14,275333	0,5	-0,521150
14,283667	0,5	-0,507500
14,292000	0,5	-0,510100
14,300333	0,5	-0,505650
14,308667	0,5	-0,496050
14,317000	0,5	-0,493850
14,325333	0,5	-0,493300
14,333667	0,5	-0,498150
14,342000	0,5	-0,494200
14,350333	0,5	-0,484050
14,358667	0,5	-0,471150
14,367000	0,5	-0,465700
14,375333	0,5	-0,458900
14,383667	0,5	-0,453700
14,392000	0,5	-0,447350
14,400333	0,5	-0,445250
14,408667	0,5	-0,436350
14,417000	0,5	-0,432400
14,425333	0,5	-0,423750
14,433667	0,5	-0,417900
14,442000	0,5	-0,412650
14,450333	0,5	-0,398050
14,458667	0,5	-0,376800
14,467000	0,5	-0,370700
14,475333	0,5	-0,359450
14,483667	0,5	-0,360250
14,492000	0,5	-0,348750
14,500333	0,5	-0,327550
14,508667	0,5	-0,311450
14,517000	0,5	-0,299300
14,525333	0,5	-0,278500
14,533667	0,5	-0,258200
14,542000	0,5	-0,238450
14,550333	0,5	-0,211600
14,558667	0,5	-0,194600
14,567000	0,5	-0,173750
14,575333	0,5	-0,153450
14,583667	0,5	-0,128650
14,592000	0,5	-0,124900
14,600333	0,5	-0,094350
14,608667	0,5	-0,076350
14,617000	0,5	-0,062600
14,625333	0,5	-0,046850
14,633667	0,5	-0,038600
14,642000	0,5	-0,015450
14,650333	0,5	0,012950
14,658667	0,5	0,034100
14,667000	0,5	0,058300
14,675333	0,5	0,085100
14,683667	0,5	0,110200
14,692000	0,5	0,140850
14,700333	0,5	0,168450
14,708667	0,5	0,196950
14,717000	0,5	0,217600
14,725333	0,5	0,257100
14,733667	0,5	0,275700
14,742000	0,5	0,293650
14,750333	0,5	0,327000
14,758667	0,5	0,347800
14,767000	0,5	0,365150
14,775333	0,5	0,387400
14,783667	0,5	0,393750
14,792000	0,5	0,426900
14,800333	0,5	0,435600
14,808667	0,5	0,446900
14,817000	0,5	0,450450
14,825333	0,5	0,458350
14,833667	0,5	0,452250
14,842000	0,5	0,449850
14,850333	0,5	0,443150
14,858667	0,5	0,432200
14,867000	0,5	0,431400
14,875333	0,5	0,435150
14,883667	0,5	0,420400
14,892000	0,5	0,423600
14,900333	0,5	0,429000
14,908667	0,5	0,432600
14,917000	0,5	0,426050
14,925333	0,5	0,403950
14,933667	0,5	0,394800
14,942000	0,5	0,388050
14,950333	0,5	0,380250
14,958667	0,5	0,372250
14,967000	0,5	0,367600
14,975333	0,5	0,363350
14,983667	0,5	0,360350
14,992000	0,5	0,358550
15,000333	0,5	0,353250
15,008667	0,5	0,349600
15,017000	0,5	0,344200
15,025333	0,5	0,347750
15,033667	0,5	0,334900
15,042000	0,5	0,339150
15,050333	0,5	0,338650
15,058667	0,5	0,333150
15,067000	0,5	0,322200
15,075333	0,5	0,306400
15,083667	0,5	0,304600
15,092000	0,5	0,310300
15,100333	0,5	0,303700
15,108667	0,5	0,302900
15,117000	0,5	0,295850
15,125333	0,5	0,297650
15,133667	0,5	0,290800
15,142000	0,5	0,286400
15,150333	0,5	0,281650
15,158667	0,5	0,274900
15,167000	0,5	0,271750
15,175333	0,5	0,266600
15,183667	0,5	0,249900
15,192000	0,5	0,258950
15,200333	0,5	0,253150
15,208667	0,5	0,247050
15,217000	0,5	0,232350
15,225333	0,5	0,216850
15,233667	0,5	0,219350
15,242000	0,5	0,215150
15,250333	0,5	0,218950
15,258667	0,5	0,214750
15,267000	0,5	0,214000
15,275333	0,5	0,211000
15,283667	0,5	0,208000
15,292000	0,5	0,197700
15,300333	0,5	0,194350
15,308667	0,5	0,196600
15,317000	0,5	0,200350
15,325333	0,5	0,180200
15,333667	0,5	0,183250
15,342000	0,5	0,183950
15,350333	0,5	0,177350
15,358667	0,5	0,165450
15,367000	0,5	0,151350
15,375333	0,5	0,145850
15,383667	0,5	0,134000
15,392000	0,5	0,146800
15,400333	0,5	0,142500
15,408667	0,5	0,140200
15,417000	0,5	0,134800
15,425333	0,5	0,131800
15,433667	0,5	0,126650
15,442000	0,5	0,126600
15,450333	0,5	0,119350
15,458667	0,5	0,126950
15,467000	0,5	0,121400
15,475333	0,5	0,105200
15,483667	0,5	0,106300
15,492000	0,5	0,107550
15,500333	0,5	0,094350
15,508667	0,5	0,089000
15,517000	0,5	0,070500
15,525333	0,5	0,068000
15,533667	0,5	0,064550
15,542000	0,5	0,060700
15,550333	0,5	0,055950
15,558667	0,5	0,057150
15,567000	0,5	0,053450
15,575333	0,5	0,052750
15,583667	0,5	0,053150
15,592000	0,5	0,043900
15,600333	0,5	0,044000
15,608667	0,5	0,038800
15,617000	0,5	0,033350
15,625333	0,5	0,020850
15,633667	0,5	0,026300
15,642000	0,5	0,019300
15,650333	0,5	0,011100
15,658667	0,5	-0,003800
15,667000	0,5	-0,016550
15,675333	0,5	-0,011950
15,683667	0,5	-0,014000
15,692000	0,5	-0,023750
15,700333	0,5	-0,021200
15,708667	0,5	-0,028350
15,717000	0,5	-0,031600
15,725333	0,5	-0,034350
15,733667	0,5	-0,039250
15,742000	0,5	-0,036200
15,750333	0,5	-0,039700
15,758667	0,5	-0,031650
15,767000	0,5	-0,046450
15,775333	0,5	-0,050950
15,783667	0,5	-0,048900
15,792000	0,5	-0,048950
15,800333	0,5	-0,065200
15,808667	0,5	-0,076750
15,817000	0,5	-0,089400
15,825333	0,5	-0,081000
15,833667	0,5	-0,090300
15,842000	0,5	-0,091900
15,850333	0,5	-0,098400
15,858667	0,5	-0,098400
15,867000	0,5	-0,100800
15,875333	0,5	-0,102950
15,883667	0,5	-0,104800
15,892000	0,5	-0,114300
15,900333	0,5	-0,110900
15,908667	0,5	-0,109300
15,917000	0,5	-0,125950
15,925333	0,5	-0,121350
15,933667	0,5	-0,123350
15,942000	0,5	-0,131700
15,950333	0,5	-0,140750
15,958667	0,5	-0,164050
15,967000	0,5	-0,158200
15,975333	0,5	-0,167100
15,983667	0,5	-0,162900
15,992000	0,5	-0,171100
16,000333	0,5	-0,166250
16,008667	0,5	-0,178550
16,017000	0,5	-0,177000
16,025333	0,5	-0,181500
16,033667	0,5	-0,185000
16,042000	0,5	-0,188450
16,050333	0,5	-0,187100
16,058667	0,5	-0,187750
16,067000	0,5	-0,201900
16,075333	0,5	-0,197000
16,083667	0,5	-0,201650
16,092000	0,5	-0,208500
16,100333	0,5	-0,222700
16,108667	0,5	-0,236450
16,117000	0,5	-0,237150
16,125333	0,5	-0,229750
16,133667	0,5	-0,240900
16,142000	0,5	-0,238950
16,150333	0,5	-0,243000
16,158667	0,5	-0,242800
16,167000	0,5	-0,245150
16,175333	0,5	-0,243850
16,183667	0,5	-0,252100
16,192000	0,5	-0,252600
16,200333	0,5	-0,248450
16,208667	0,5	-0,256200
16,217000	0,5	-0,267400
16,225333	0,5	-0,256450
16,233667	0,5	-0,266350
16,242000	0,5	-0,272450
16,250333	0,5	-0,286050
16,258667	0,5	-0,306050
16,267000	0,5	-0,300150
16,275333	0,5	-0,307700
16,283667	0,5	-0,309400
16,292000	0,5	-0,318100
16,300333	0,5	-0,320450
16,308667	0,5	-0,326400
16,317000	0,5	-0,326250
16,325333	0,5	-0,330350
16,333667	0,5	-0,334800
16,342000	0,5	-0,329650
16,350333	0,5	-0,330050
16,358667	0,5	-0,348350
16,367000	0,5	-0,341850
16,375333	0,5	-0,343150
16,383667	0,5	-0,350400
16,392000	0,5	-0,362250
16,400333	0,5	-0,383300
16,408667	0,5	-0,387600
16,417000	0,5	-0,389250
16,425333	0,5	-0,392800
16,433667	0,5	-0,393100
16,442000	0,5	-0,395550
16,450333	0,5	-0,400400
16,458667	0,5	-0,401650
16,467000	0,5	-0,409500
16,475333	0,5	-0,407450
16,483667	0,5	-0,417250
16,492000	0,5	-0,408250
16,500333	0,5	-0,419650
16,508667	0,5	-0,425000
16,517000	0,5	-0,426400
16,525333	0,5	-0,421550
16,533667	0,5	-0,434800
16,542000	0,5	-0,442000
16,550333	0,5	-0,459600
16,558667	0,5	-0,459600
16,567000	0,5	-0,461950
16,575333	0,5	-0,466650
16,583667	0,5	-0,475100
16,592000	0,5	-0,472700
16,600333	0,5	-0,473300
16,608667	0,5	-0,476800
16,617000	0,5	-0,480800
16,625333	0,5	-0,486100
16,633667	0,5	-0,489750
16,642000	0,5	-0,487200
16,650333	0,5	-0,500050
16,658667	0,5	-0,497400
16,667000	0,5	-0,492400
16,675333	0,5	-0,494600
16,683667	0,5	-0,503200
16,692000	0,5	-0,522700
16,700333	0,5	-0,528300
16,708667	0,5	-0,526550
16,717000	0,5	-0,529950
16,725333	0,5	-0,538750
16,733667	0,5	-0,538650
16,742000	0,5	-0,545400
16,750333	0,5	-0,551000
16,758667	0,5	-0,551950
16,767000	0,5	-0,558250
16,775333	0,5	-0,560800
16,783667	0,5	-0,559700
16,792000	0,5	-0,553250
16,800333	0,5	-0,572300
16,808667	0,5	-0,567050
16,817000	0,5	-0,572250
16,825333	0,5	-0,574850
16,833667	0,5	-0,586900
16,842000	0,5	-0,604350
16,850333	0,5	-0,606250
16,858667	0,5	-0,599250
16,867000	0,5	-0,610950
16,875333	0,5	-0,616600
16,883667	0,5	-0,614850
16,892000	0,5	-0,615150
16,900333	0,5	-0,618900
16,908667	0,5	-0,616950
16,917000	0,5	-0,619900
16,925333	0,5	-0,626000
16,933667	0,5	-0,616450
16,942000	0,5	-0,617850
16,950333	0,5	-0,638600
16,958667	0,5	-0,629450
16,967000	0,5	-0,633000
16,975333	0,5	-0,639750
16,983667	0,5	-0,649550
16,992000	0,5	-0,671600
17,000333	0,5	-0,671400
17,008667	0,5	-0,670750
17,017000	0,5	-0,667500
17,025333	0,5	-0,675700
17,033667	0,5	-0,669700
17,042000	0,5	-0,674900
17,050333	0,5	-0,673600
17,058667	0,5	-0,680100
17,067000	0,5	-0,686050
17,075333	0,5	-0,680650
17,083667	0,5	-0,676800
17,092000	0,5	-0,685950
17,100333	0,5	-0,691100
17,108667	0,5	-0,686700
17,117000	0,5	-0,695850
17,125333	0,5	-0,700350
17,133667	0,5	-0,719400
17,142000	0,5	-0,730150
17,150333	0,5	-0,728300
17,158667	0,5	-0,723350
17,167000	0,5	-0,729250
17,175333	0,5	-0,728000
17,183667	0,5	-0,735900
17,192000	0,5	-0,740800
17,200333	0,5	-0,742150
17,208667	0,5	-0,741800
17,217000	0,5	-0,747000
17,225333	0,5	-0,744500
17,233667	0,5	-0,747150
17,242000	0,5	-0,753450
17,250333	0,5	-0,754700
17,258667	0,5	-0,744250
17,267000	0,5	-0,744700
17,275333	0,5	-0,747550
17,283667	0,5	-0,754850
17,292000	0,5	-0,763050
17,300333	0,5	-0,751500
17,308667	0,5	-0,755000
17,317000	0,5	-0,755300
17,325333	0,5	-0,761050
17,333667	0,5	-0,766050
17,342000	0,5	-0,771750
17,350333	0,5	-0,774900
17,358667	0,5	-0,782150
17,367000	0,5	-0,783750
17,375333	0,5	-0,788050
17,383667	0,5	-0,793100
17,392000	0,5	-0,805400
17,400333	0,5	-0,792600
17,408667	0,5	-0,793800
17,417000	0,5	-0,805800
17,425333	0,5	-0,823050
17,433667	0,5	-0,836950
17,442000	0,5	-0,833550
17,450333	0,5	-0,836350
17,458667	0,5	-0,833650
17,467000	0,5	-0,837950
17,475333	0,5	-0,835750
17,483667	0,5	-0,842450
17,492000	0,5	-0,837700
17,500333	0,5	-0,844450
17,508667	0,5	-0,842950
17,517000	0,5	-0,841250
17,525333	0,5	-0,833600
17,533667	0,5	-0,851300
17,542000	0,5	-0,853600
17,550333	0,5	-0,849800
17,558667	0,5	-0,848400
17,567000	0,5	-0,853800
17,575333	0,5	-0,877500
17,583667	0,5	-0,880700
17,592000	0,5	-0,876200
17,600333	0,5	-0,878550
17,608667	0,5	-0,878150
17,617000	0,5	-0,886250
17,625333	0,5	-0,885300
17,633667	0,5	-0,882750
17,642000	0,5	-0,886500
17,650333	0,5	-0,882500
17,658667	0,5	-0,893450
17,667000	0,5	-0,884800
17,675333	0,5	-0,884050
17,683667	0,5	-0,898300
17,692000	0,5	-0,888650
17,700333	0,5	-0,888000
17,708667	0,5	-0,896600
17,717000	0,5	-0,902650
17,725333	0,5	-0,924500
17,733667	0,5	-0,915550
17,742000	0,5	-0,918200
17,750333	0,5	-0,917450
17,758667	0,5	-0,922800
17,767000	0,5	-0,916600
17,775333	0,5	-0,921000
17,783667	0,5	-0,918950
17,792000	0,5	-0,916850
17,800333	0,5	-0,920800
17,808667	0,5	-0,922900
17,817000	0,5	-0,922950
17,825333	0,5	-0,915550
17,833667	0,5	-0,929550
17,842000	0,5	-0,911500
17,850333	0,5	-0,911150
17,858667	0,5	-0,911750
17,867000	0,5	-0,921700
17,875333	0,5	-0,936450
17,883667	0,5	-0,921850
17,892000	0,5	-0,913750
17,900333	0,5	-0,918350
17,908667	0,5	-0,908800
17,917000	0,5	-0,907350
17,925333	0,5	-0,897850
17,933667	0,5	-0,890150
17,942000	0,5	-0,889600
17,950333	0,5	-0,892600
17,958667	0,5	-0,893150
17,967000	0,5	-0,883500
17,975333	0,5	-0,891250
17,983667	0,5	-0,895300
17,992000	0,5	-0,885100
18,000333	0,5	-0,887700
18,008667	0,5	-0,892050
18,017000	0,5	-0,899800
18,025333	0,5	-0,914700
18,033667	0,5	-0,903650
18,042000	0,5	-0,908300
18,050333	0,5	-0,907550
18,058667	0,5	-0,903250
18,067000	0,5	-0,892450
18,075333	0,5	-0,896900
18,083667	0,5	-0,891700
18,092000	0,5	-0,891750
18,100333	0,5	-0,894300
18,108667	0,5	-0,880700
18,117000	0,5	-0,875900
18,125333	0,5	-0,883450
18,133667	0,5	-0,877300
18,142000	0,5	-0,871900
18,150333	0,5	-0,876250
18,158667	0,5	-0,885400
18,167000	0,5	-0,905200
18,175333	0,5	-0,898150
18,183667	0,5	-0,900750
18,192000	0,5	-0,894850
18,200333	0,5	-0,898150
18,208667	0,5	-0,892300
18,217000	0,5	-0,894550
18,225333	0,5	-0,892900
18,233667	0,5	-0,897000
18,242000	0,5	-0,896900
18,250333	0,5	-0,900100
18,258667	0,5	-0,885700
18,267000	0,5	-0,893250
18,275333	0,5	-0,901700
18,283667	0,5	-0,896900
18,292000	0,5	-0,896250
18,300333	0,5	-0,903600
18,308667	0,5	-0,920950
18,317000	0,5	-0,930650
18,325333	0,5	-0,934800
18,333667	0,5	-0,931100
18,342000	0,5	-0,939650
18,350333	0,5	-0,932050
18,358667	0,5	-0,942700
18,367000	0,5	-0,940650
18,375333	0,5	-0,942800
18,383667	0,5	-0,944550
18,392000	0,5	-0,952300
18,400333	0,5	-0,949900
18,408667	0,5	-0,948200
18,417000	0,5	-0,960200
18,425333	0,5	-0,963250
18,433667	0,5	-0,958150
18,442000	0,5	-0,967050
18,450333	0,5	-0,973400
18,458667	0,5	-0,998600
18,467000	0,5	-1,006350
18,475333	0,5	-1,006000
18,483667	0,5	-1,009750
18,492000	0,5	-1,008400
18,500333	0,5	-1,017250
18,508667	0,5	-1,017250
18,517000	0,5	-1,022450
18,525333	0,5	-1,023700
18,533667	0,5	-1,033000
18,542000	0,5	-1,034750
18,550333	0,5	-1,034750
18,558667	0,5	-1,036250
18,567000	0,5	-1,063650
18,575333	0,5	-1,053600
18,583667	0,5	-1,056400
18,592000	0,5	-1,062750
18,600333	0,5	-1,073250
18,608667	0,5	-1,098800
18,617000	0,5	-1,093850
18,625333	0,5	-1,099400
18,633667	0,5	-1,105000
18,642000	0,5	-1,108500
18,650333	0,5	-1,111350
18,658667	0,5	-1,119250
18,667000	0,5	-1,120000
18,675333	0,5	-1,123750
18,683667	0,5	-1,126650
18,692000	0,5	-1,133550
18,700333	0,5	-1,129750
18,708667	0,5	-1,142700
18,717000	0,5	-1,148750
18,725333	0,5	-1,142400
18,733667	0,5	-1,144450
18,742000	0,5	-1,156250
18,750333	0,5	-1,172350
18,758667	0,5	-1,192600
18,767000	0,5	-1,191350
18,775333	0,5	-1,197000
18,783667	0,5	-1,204200
18,792000	0,5	-1,209900
18,800333	0,5	-1,214850
18,808667	0,5	-1,217250
18,817000	0,5	-1,221250
18,825333	0,5	-1,223750
18,833667	0,5	-1,232300
18,842000	0,5	-1,233100
18,850333	0,5	-1,234850
18,858667	0,5	-1,244900
18,867000	0,5	-1,242300
18,875333	0,5	-1,234600
18,883667	0,5	-1,241700
18,892000	0,5	-1,244150
18,900333	0,5	-1,266450
18,908667	0,5	-1,272550
18,917000	0,5	-1,267500
18,925333	0,5	-1,263050
18,933667	0,5	-1,271300
18,942000	0,5	-1,271800
18,950333	0,5	-1,275500
18,958667	0,5	-1,273750
18,967000	0,5	-1,272950
18,975333	0,5	-1,271950
18,983667	0,5	-1,275450
18,992000	0,5	-1,275800
19,000333	0,5	-1,269500
19,008667	0,5	-1,284950
19,017000	0,5	-1,272600
19,025333	0,5	-1,278650
19,033667	0,5	-1,277950
19,042000	0,5	-1,298950
19,050333	0,5	-1,313600
19,058667	0,5	-1,323400
19,067000	0,5	-1,321950
19,075333	0,5	-1,331750
19,083667	0,5	-1,331450
19,092000	0,5	-1,337700
19,100333	0,5	-1,346750
19,108667	0,5	-1,352350
19,117000	0,5	-1,362500
19,125333	0,5	-1,363500
19,133667	0,5	-1,376200
19,142000	0,5	-1,371750
19,150333	0,5	-1,385750
19,158667	0,5	-1,396650
19,167000	0,5	-1,398350
19,175333	0,5	-1,407400
19,183667	0,5	-1,422500
19,192000	0,5	-1,442600
19,200333	0,5	-1,470250
19,208667	0,5	-1,471450
19,217000	0,5	-1,477800
19,225333	0,5	-1,479300
19,233667	0,5	-1,492750
19,242000	0,5	-1,495700
19,250333	0,5	-1,505450
19,258667	0,5	-1,508850
19,267000	0,5	-1,515250
19,275333	0,5	-1,526250
19,283667	0,5	-1,519900
19,292000	0,5	-1,523650
19,300333	0,5	-1,536450
19,308667	0,5	-1,540250
19,317000	0,5	-1,538150
19,325333	0,5	-1,550750
19,333667	0,5	-1,558450
19,342000	0,5	-1,579850
19,350333	0,5	-1,582500
19,358667	0,5	-1,583600
19,367000	0,5	-1,575050
19,375333	0,5	-1,578700
19,383667	0,5	-1,568700
19,392000	0,5	-1,575200
19,400333	0,5	-1,572250
19,408667	0,5	-1,582200
19,417000	0,5	-1,588000
19,425333	0,5	-1,602000
19,433667	0,5	-1,602400
19,442000	0,5	-1,613750
19,450333	0,5	-1,626450
19,458667	0,5	-1,628950
19,467000	0,5	-1,629600
19,475333	0,5	-1,644700
19,483667	0,5	-1,668300
19,492000	0,5	-1,680800
19,500333	0,5	-1,684250
19,508667	0,5	-1,681900
19,517000	0,5	-1,695350
19,525333	0,5	-1,695150
19,533667	0,5	-1,700950
19,542000	0,5	-1,699450
19,550333	0,5	-1,707950
19,558667	0,5	-1,707450
19,567000	0,5	-1,713800
19,575333	0,5	-1,714700
19,583667	0,5	-1,705350
19,592000	0,5	-1,720500
19,600333	0,5	-1,727350
19,608667	0,5	-1,723050
19,617000	0,5	-1,727950
19,625333	0,5	-1,740350
19,633667	0,5	-1,757600
19,642000	0,5	-1,765800
19,650333	0,5	-1,757750
19,658667	0,5	-1,766500
19,667000	0,5	-1,772200
19,675333	0,5	-1,782200
19,683667	0,5	-1,781100
19,692000	0,5	-1,791100
19,700333	0,5	-1,787100
19,708667	0,5	-1,796350
19,717000	0,5	-1,800300
19,725333	0,5	-1,796350
19,733667	0,5	-1,789200
19,742000	0,5	-1,805350
19,750333	0,5	-1,798550
19,758667	0,5	-1,801500
19,767000	0,5	-1,801350
19,775333	0,5	-1,810050
19,783667	0,5	-1,841950
19,792000	0,5	-1,837200
19,800333	0,5	-1,849000
19,808667	0,5	-1,857850
19,817000	0,5	-1,866500
19,825333	0,5	-1,872700
19,833667	0,5	-1,880000
19,842000	0,5	-1,877450
19,850333	0,5	-1,884500
19,858667	0,5	-1,887200
19,867000	0,5	-1,895350
19,875333	0,5	-1,885400
19,883667	0,5	-1,893100
19,892000	0,5	-1,906550
19,900333	0,5	-1,900750
19,908667	0,5	-1,907950
19,917000	0,5	-1,914300
19,925333	0,5	-1,933600
19,933667	0,5	-1,951300
19,942000	0,5	-1,948450
19,950333	0,5	-1,946250
19,958667	0,5	-1,954450
19,967000	0,5	-1,957600
19,975333	0,5	-1,963150
19,983667	0,5	-1,963400
19,992000	0,5	-1,969900
20,000333	0,5	-1,968700
20,008667	0,5	-1,977200
20,017000	0,5	-1,973950
20,025333	0,5	-1,969550
20,033667	0,5	-1,975850
20,042000	0,5	-1,982900
20,050333	0,5	-1,976150
20,058667	0,5	-1,983350
20,067000	0,5	-1,989050
20,075333	0,5	-2,008650
20,083667	0,5	-2,024800
20,092000	0,5	-2,024000
20,100333	0,5	-2,025000
20,108667	0,5	-2,029050
20,117000	0,5	-2,031000
20,125333	0,5	-2,034900
20,133667	0,5	-2,036550
20,142000	0,5	-2,034650
20,150333	0,5	-2,048950
20,158667	0,5	-2,048800
20,167000	0,5	-2,044650
20,175333	0,5	-2,044400
20,183667	0,5	-2,061350
20,192000	0,5	-2,058450
20,200333	0,5	-2,066150
20,208667	0,5	-2,076800
20,217000	0,5	-2,094050
20,225333	0,5	-2,115200
20,233667	0,5	-2,117050
20,242000	0,5	-2,116800
20,250333	0,5	-2,115950
20,258667	0,5	-2,117100
20,267000	0,5	-2,119300
20,275333	0,5	-2,116600
20,283667	0,5	-2,119450
20,292000	0,5	-2,120500
20,300333	0,5	-2,118200
20,308667	0,5	-2,115050
20,317000	0,5	-2,097850
20,325333	0,5	-2,102550
20,333667	0,5	-2,107500
20,342000	0,5	-2,101600
20,350333	0,5	-2,102900
20,358667	0,5	-2,106750
20,367000	0,5	-2,118600
20,375333	0,5	-2,128950
20,383667	0,5	-2,125400
20,392000	0,5	-2,126050
20,400333	0,5	-2,123600
20,408667	0,5	-2,124950
20,417000	0,5	-2,121400
20,425333	0,5	-2,120300
20,433667	0,5	-2,119450
20,442000	0,5	-2,115800
20,450333	0,5	-2,121900
20,458667	0,5	-2,101250
20,467000	0,5	-2,091600
20,475333	0,5	-2,106600
20,483667	0,5	-2,101050
20,492000	0,5	-2,096750
20,500333	0,5	-2,105550
20,508667	0,5	-2,103850
20,517000	0,5	-2,131750
20,525333	0,5	-2,126800
20,533667	0,5	-2,128400
20,542000	0,5	-2,124650
20,550333	0,5	-2,129350
20,558667	0,5	-2,122300
20,567000	0,5	-2,104800
20,575333	0,5	-2,110800
20,583667	0,5	-2,103200
20,592000	0,5	-2,107050
20,600333	0,5	-2,098400
20,608667	0,5	-2,069950
20,617000	0,5	-2,057250
20,625333	0,5	-2,062400
20,633667	0,5	-2,055600
20,642000	0,5	-2,055350
20,650333	0,5	-2,063600
20,658667	0,5	-2,078500
20,667000	0,5	-2,089800
20,675333	0,5	-2,083100
20,683667	0,5	-2,082350
20,692000	0,5	-2,094000
20,700333	0,5	-2,095650
20,708667	0,5	-2,101550
20,717000	0,5	-2,105050
20,725333	0,5	-2,103850
20,733667	0,5	-2,109600
20,742000	0,5	-2,110700
20,750333	0,5	-2,105800
20,758667	0,5	-2,090300
20,767000	0,5	-2,093300
20,775333	0,5	-2,101050
20,783667	0,5	-2,106800
20,792000	0,5	-2,111300
20,800333	0,5	-2,125550
20,808667	0,5	-2,145750
20,817000	0,5	-2,146600
20,825333	0,5	-2,139900
20,833667	0,5	-2,151050
20,842000	0,5	-2,147950
20,850333	0,5	-2,156050
20,858667	0,5	-2,150150
20,867000	0,5	-2,153050
20,875333	0,5	-2,153550
20,883667	0,5	-2,149250
20,892000	0,5	-2,151850
20,900333	0,5	-2,123800
20,908667	0,5	-2,112300
20,917000	0,5	-2,120050
20,925333	0,5	-2,116500
20,933667	0,5	-2,121300
20,942000	0,5	-2,128200
20,950333	0,5	-2,140200
20,958667	0,5	-2,164400
20,967000	0,5	-2,148100
20,975333	0,5	-2,150800
20,983667	0,5	-2,140100
20,992000	0,5	-2,145400
21,000333	0,5	-2,139000
21,008667	0,5	-2,134900
21,017000	0,5	-2,129050
21,025333	0,5	-2,122750
21,033667	0,5	-2,123650
21,042000	0,5	-2,111800
21,050333	0,5	-2,081950
21,058667	0,5	-2,069500
21,067000	0,5	-2,077400
21,075333	0,5	-2,076250
21,083667	0,5	-2,086050
21,092000	0,5	-2,086450
21,100333	0,5	-2,101000
21,108667	0,5	-2,108300
21,117000	0,5	-2,106000
21,125333	0,5	-2,095100
21,133667	0,5	-2,096300
21,142000	0,5	-2,084200
21,150333	0,5	-2,084050
21,158667	0,5	-2,073600
21,167000	0,5	-2,066100
21,175333	0,5	-2,063600
21,183667	0,5	-2,058400
21,192000	0,5	-2,034500
21,200333	0,5	-2,016300
21,208667	0,5	-2,011450
21,217000	0,5	-2,015700
21,225333	0,5	-2,012850
21,233667	0,5	-2,021750
21,242000	0,5	-2,038350
21,250333	0,5	-2,040850
21,258667	0,5	-2,039700
21,267000	0,5	-2,027950
21,275333	0,5	-2,024700
21,283667	0,5	-2,014050
21,292000	0,5	-2,007850
21,300333	0,5	-1,993600
21,308667	0,5	-1,993600
21,317000	0,5	-1,984850
21,325333	0,5	-1,983550
21,333667	0,5	-1,974550
21,342000	0,5	-1,940450
21,350333	0,5	-1,921150
21,358667	0,5	-1,924500
21,367000	0,5	-1,919900
21,375333	0,5	-1,921850
21,383667	0,5	-1,922900
21,392000	0,5	-1,931900
21,400333	0,5	-1,935600
21,408667	0,5	-1,920300
21,417000	0,5	-1,927300
21,425333	0,5	-1,913000
21,433667	0,5	-1,911750
21,442000	0,5	-1,903450
21,450333	0,5	-1,893250
21,458667	0,5	-1,885200
21,467000	0,5	-1,876300
21,475333	0,5	-1,871550
21,483667	0,5	-1,845150
21,492000	0,5	-1,816900
21,500333	0,5	-1,814400
21,508667	0,5	-1,814500
21,517000	0,5	-1,807650
21,525333	0,5	-1,814800
21,533667	0,5	-1,813700
21,542000	0,5	-1,824900
21,550333	0,5	-1,806450
21,558667	0,5	-1,796900
21,567000	0,5	-1,783750
21,575333	0,5	-1,773250
21,583667	0,5	-1,747950
21,592000	0,5	-1,733500
21,600333	0,5	-1,703000
21,608667	0,5	-1,681100
21,617000	0,5	-1,655350
21,625333	0,5	-1,622300
21,633667	0,5	-1,559450
21,642000	0,5	-1,519150
21,650333	0,5	-1,505400
21,658667	0,5	-1,498600
21,667000	0,5	-1,508250
21,675333	0,5	-1,524850
21,683667	0,5	-1,551100
21,692000	0,5	-1,554550
21,700333	0,5	-1,546750
21,708667	0,5	-1,529950
21,717000	0,5	-1,526650
21,725333	0,5	-1,515850
21,733667	0,5	-1,502050
21,742000	0,5	-1,484600
21,750333	0,5	-1,469100
21,758667	0,5	-1,456500
21,767000	0,5	-1,441550
21,775333	0,5	-1,417200
21,783667	0,5	-1,378650
21,792000	0,5	-1,364450
21,800333	0,5	-1,344100
21,808667	0,5	-1,326450
21,817000	0,5	-1,301150
21,825333	0,5	-1,291050
21,833667	0,5	-1,285550
21,842000	0,5	-1,262100
21,850333	0,5	-1,231150
21,858667	0,5	-1,213950
21,867000	0,5	-1,186750
21,875333	0,5	-1,168550
21,883667	0,5	-1,136500
21,892000	0,5	-1,117500
21,900333	0,5	-1,089150
21,908667	0,5	-1,068350
21,917000	0,5	-1,054900
21,925333	0,5	-1,019200
21,933667	0,5	-1,001750
21,942000	0,5	-0,992350
21,950333	0,5	-0,963550
21,958667	0,5	-0,949950
21,967000	0,5	-0,939150
21,975333	0,5	-0,920750
21,983667	0,5	-0,918750
21,992000	0,5	-0,885900
22,000333	0,5	-0,860850
22,008667	0,5	-0,834450
22,017000	0,5	-0,813850
22,025333	0,5	-0,783850
22,033667	0,5	-0,756250
22,042000	0,5	-0,723000
22,050333	0,5	-0,692750
22,058667	0,5	-0,661900
22,067000	0,5	-0,631350
22,075333	0,5	-0,596600
22,083667	0,5	-0,576350
22,092000	0,5	-0,539700
22,100333	0,5	-0,499400
22,108667	0,5	-0,473700
22,117000	0,5	-0,440550
22,125333	0,5	-0,420900
22,133667	0,5	-0,380100
22,142000	0,5	-0,338950
22,150333	0,5	-0,289050
22,158667	0,5	-0,250200
22,167000	0,5	-0,200750
22,175333	0,5	-0,161600
22,183667	0,5	-0,106800
22,192000	0,5	-0,058700
22,200333	0,5	-0,010300
22,208667	0,5	0,041100
22,217000	0,5	0,080800
22,225333	0,5	0,125900
22,233667	0,5	0,179300
22,242000	0,5	0,242800
22,250333	0,5	0,287450
22,258667	0,5	0,329600
22,267000	0,5	0,359350
22,275333	0,5	0,403900
22,283667	0,5	0,452300
22,292000	0,5	0,516000
22,300333	0,5	0,562500
22,308667	0,5	0,621100
22,317000	0,5	0,671050
22,325333	0,5	0,722150
22,333667	0,5	0,773550
22,342000	0,5	0,812450
22,350333	0,5	0,857800
22,358667	0,5	0,898600
22,367000	0,5	0,939850
22,375333	0,5	0,986000
22,383667	0,5	1,061050
22,392000	0,5	1,120300
22,400333	0,5	1,174500
22,408667	0,5	1,224050
22,417000	0,5	1,271000
22,425333	0,5	1,329150
22,433667	0,5	1,396500
22,442000	0,5	1,451100
22,450333	0,5	1,523350
22,458667	0,5	1,586550
22,467000	0,5	1,661200
22,475333	0,5	1,725650
22,483667	0,5	1,803850
22,492000	0,5	1,870150
22,500333	0,5	1,933250
22,508667	0,5	1,975100
22,517000	0,5	2,038000
22,525333	0,5	2,109650
22,533667	0,5	2,191400
22,542000	0,5	2,257950
22,550333	0,5	2,299900
22,558667	0,5	2,353200
22,567000	0,5	2,384300
22,575333	0,5	2,448650
22,583667	0,5	2,485450
22,592000	0,5	2,531500
22,600333	0,5	2,561450
22,608667	0,5	2,593900
22,617000	0,5	2,613300
22,625333	0,5	2,635700
22,633667	0,5	2,640450
22,642000	0,5	2,647300
22,650333	0,5	2,629300
22,658667	0,5	2,587550
22,667000	0,5	2,572800
22,675333	0,5	2,561850
22,683667	0,5	2,530300
22,692000	0,5	2,481000
22,700333	0,5	2,408350
22,708667	0,5	2,322650
22,717000	0,5	2,247150
22,725333	0,5	2,169700
22,733667	0,5	2,088700
22,742000	0,5	1,993800
22,750333	0,5	1,901450
22,758667	0,5	1,805000
22,767000	0,5	1,714800
22,775333	0,5	1,615300
22,783667	0,5	1,511850
22,792000	0,5	1,398400
22,800333	0,5	1,235100
22,808667	0,5	1,101050
22,817000	0,5	0,966700
22,825333	0,5	0,832850
22,833667	0,5	0,672950
22,842000	0,5	0,500100
22,850333	0,5	0,342850
22,858667	0,5	0,180700
22,867000	0,5	0,011850
22,875333	0,5	-0,150800
22,883667	0,5	-0,300200
22,892000	0,5	-0,454700
22,900333	0,5	-0,597500
22,908667	0,5	-0,744050
22,917000	0,5	-0,884300
22,925333	0,5	-1,022400
22,933667	0,5	-1,158150
22,942000	0,5	-1,288900
22,950333	0,5	-1,421300
22,958667	0,5	-1,537100
22,967000	0,5	-1,675400
22,975333	0,5	-1,825750
22,983667	0,5	-1,937250
22,992000	0,5	-2,040400
23,000333	0,5	-2,142850
23,008667	0,5	-2,229250
23,017000	0,5	-2,332850
23,025333	0,5	-2,405550
23,033667	0,5	-2,482150
23,042000	0,5	-2,545050
23,050333	0,5	-2,613900
23,058667	0,5	-2,668550
23,067000	0,5	-2,727300
23,075333	0,5	-2,783700
23,083667	0,5	-2,834700
23,092000	0,5	-2,859350
23,100333	0,5	-2,916250
23,108667	0,5	-2,959000
23,117000	0,5	-3,023550
23,125333	0,5	-3,076600
23,133667	0,5	-3,105400
23,142000	0,5	-3,130550
23,150333	0,5	-3,141800
23,158667	0,5	-3,157250
23,167000	0,5	-3,165350
23,175333	0,5	-3,175550
23,183667	0,5	-3,166300
23,192000	0,5	-3,164800
23,200333	0,5	-3,152350
23,208667	0,5	-3,150050
23,217000	0,5	-3,135850
23,225333	0,5	-3,129350
23,233667	0,5	-3,115100
23,242000	0,5	-3,107500
23,250333	0,5	-3,108500
23,258667	0,5	-3,068550
23,267000	0,5	-3,089900
23,275333	0,5	-3,100600
23,283667	0,5	-3,085400
23,292000	0,5	-3,068700
23,300333	0,5	-3,046500
23,308667	0,5	-3,025250
23,317000	0,5	-3,002650
23,325333	0,5	-2,980300
23,333667	0,5	-2,952100
23,342000	0,5	-2,920450
23,350333	0,5	-2,888600
23,358667	0,5	-2,854100
23,367000	0,5	-2,825150
23,375333	0,5	-2,789450
23,383667	0,5	-2,759150
23,392000	0,5	-2,785700
23,400333	0,5	-2,725250
23,408667	0,5	-2,673800
23,417000	0,5	-2,662500
23,425333	0,5	-2,657500
23,433667	0,5	-2,643950
23,442000	0,5	-2,619700
23,450333	0,5	-2,602100
23,458667	0,5	-2,586450
23,467000	0,5	-2,569250
23,475333	0,5	-2,546650
23,483667	0,5	-2,528000
23,492000	0,5	-2,504550
23,500333	0,5	-2,486300
23,508667	0,5	-2,465000
23,517000	0,5	-2,442300
23,525333	0,5	-2,423900
23,533667	0,5	-2,448950
23,542000	0,5	-2,455400
23,550333	0,5	-2,431450
23,558667	0,5	-2,354300
23,567000	0,5	-2,340150
23,575333	0,5	-2,333950
23,583667	0,5	-2,325400
23,592000	0,5	-2,316200
23,600333	0,5	-2,305650
23,608667	0,5	-2,294000
23,617000	0,5	-2,282400
23,625333	0,5	-2,272500
23,633667	0,5	-2,262300
23,642000	0,5	-2,254000
23,650333	0,5	-2,244500
23,658667	0,5	-2,235700
23,667000	0,5	-2,228800
23,675333	0,5	-2,226600
23,683667	0,5	-2,347200
23,692000	0,5	-2,314050
23,700333	0,5	-2,291250
23,708667	0,5	-2,227900
23,717000	0,5	-2,222050
23,725333	0,5	-2,220000
23,733667	0,5	-2,220400
23,742000	0,5	-2,226350
23,750333	0,5	-2,210650
23,758667	0,5	-2,205700
23,767000	0,5	-2,192600
23,775333	0,5	-2,187300
23,783667	0,5	-2,172550
23,792000	0,5	-2,164150
23,800333	0,5	-2,152200
23,808667	0,5	-2,140950
23,817000	0,5	-2,130800
23,825333	0,5	-2,147000
23,833667	0,5	-2,268150
23,842000	0,5	-2,214700
23,850333	0,5	-2,178850
23,858667	0,5	-2,126300
23,867000	0,5	-2,118300
23,875333	0,5	-2,110550
23,883667	0,5	-2,119950
23,892000	0,5	-2,128300
23,900333	0,5	-2,120200
23,908667	0,5	-2,105000
23,917000	0,5	-2,103800
23,925333	0,5	-2,088900
23,933667	0,5	-2,082950
23,942000	0,5	-2,068450
23,950333	0,5	-2,056950
23,958667	0,5	-2,043900
23,967000	0,5	-2,036950
23,975333	0,5	-2,120050
23,983667	0,5	-2,142200
23,992000	0,5	-2,099150
24,000333	0,5	-2,053000
24,008667	0,5	-2,005950
24,017000	0,5	-1,987600
24,025333	0,5	-1,978450
24,033667	0,5	-1,981650
24,042000	0,5	-1,987300
24,050333	0,5	-1,953000
24,058667	0,5	-1,941750
24,067000	0,5	-1,920650
24,075333	0,5	-1,909000
24,083667	0,5	-1,892050
24,092000	0,5	-1,880750
24,100333	0,5	-1,862350
24,108667	0,5	-1,852400
24,117000	0,5	-1,842200
24,125333	0,5	-1,939000
24,133667	0,5	-1,919200
24,142000	0,5	-1,890500
24,150333	0,5	-1,836600
24,158667	0,5	-1,815300
24,167000	0,5	-1,801800
24,175333	0,5	-1,801850
24,183667	0,5	-1,805850
24,192000	0,5	-1,791700
24,200333	0,5	-1,777450
24,208667	0,5	-1,758350
24,217000	0,5	-1,742800
24,225333	0,5	-1,722100
24,233667	0,5	-1,706750
24,242000	0,5	-1,684200
24,250333	0,5	-1,666000
24,258667	0,5	-1,644300
24,267000	0,5	-1,653300
24,275333	0,5	-1,708750
24,283667	0,5	-1,687500
24,292000	0,5	-1,646150
24,300333	0,5	-1,605050
24,308667	0,5	-1,577150
24,317000	0,5	-1,571250
24,325333	0,5	-1,569000
24,333667	0,5	-1,571250
24,342000	0,5	-1,559000
24,350333	0,5	-1,545000
24,358667	0,5	-1,529850
24,367000	0,5	-1,521600
24,375333	0,5	-1,508200
24,383667	0,5	-1,494500
24,392000	0,5	-1,479250
24,400333	0,5	-1,465450
24,408667	0,5	-1,461550
24,417000	0,5	-1,490000
24,425333	0,5	-1,505000
24,433667	0,5	-1,479300
24,442000	0,5	-1,444100
24,450333	0,5	-1,412950
24,458667	0,5	-1,398000
24,467000	0,5	-1,385350
24,475333	0,5	-1,388350
24,483667	0,5	-1,378700
24,492000	0,5	-1,360150
24,500333	0,5	-1,343000
24,508667	0,5	-1,335650
24,517000	0,5	-1,322350
24,525333	0,5	-1,311100
24,533667	0,5	-1,298700
24,542000	0,5	-1,282150
24,550333	0,5	-1,270600
24,558667	0,5	-1,270400
24,567000	0,5	-1,315350
24,575333	0,5	-1,292600
24,583667	0,5	-1,286250
24,592000	0,5	-1,255750
24,600333	0,5	-1,242200
24,608667	0,5	-1,231100
24,617000	0,5	-1,231300
24,625333	0,5	-1,235550
24,633667	0,5	-1,226400
24,642000	0,5	-1,211100
24,650333	0,5	-1,208450
24,658667	0,5	-1,196500
24,667000	0,5	-1,185700
24,675333	0,5	-1,172800
24,683667	0,5	-1,160450
24,692000	0,5	-1,149050
24,700333	0,5	-1,138600
24,708667	0,5	-1,139550
24,717000	0,5	-1,156100
24,725333	0,5	-1,138250
24,733667	0,5	-1,126250
24,742000	0,5	-1,102200
24,750333	0,5	-1,091700
24,758667	0,5	-1,088350
24,767000	0,5	-1,083900
24,775333	0,5	-1,091250
24,783667	0,5	-1,075950
24,792000	0,5	-1,070950
24,800333	0,5	-1,064150
24,808667	0,5	-1,057700
24,817000	0,5	-1,052600
24,825333	0,5	-1,046550
24,833667	0,5	-1,035750
24,842000	0,5	-1,032800
24,850333	0,5	-1,025000
24,858667	0,5	-1,035950
24,867000	0,5	-1,034550
24,875333	0,5	-1,024350
24,883667	0,5	-1,009950
24,892000	0,5	-0,997850
24,900333	0,5	-0,990100
24,908667	0,5	-0,982600
24,917000	0,5	-0,982050
24,925333	0,5	-0,977350
24,933667	0,5	-0,970500
24,942000	0,5	-0,963600
24,950333	0,5	-0,956450
24,958667	0,5	-0,944100
24,967000	0,5	-0,941300
24,975333	0,5	-0,930900
24,983667	0,5	-0,924650
24,992000	0,5	-0,916600
25,000333	0,5	-0,914400
25,008667	0,5	-0,926450
25,017000	0,5	-0,917400
25,025333	0,5	-0,911850
25,033667	0,5	-0,904650
25,042000	0,5	-0,896300
25,050333	0,5	-0,895450
25,058667	0,5	-0,895150
25,067000	0,5	-0,898850
25,075333	0,5	-0,897650
25,083667	0,5	-0,890350
25,092000	0,5	-0,887800
25,100333	0,5	-0,881150
25,108667	0,5	-0,874900
25,117000	0,5	-0,866500
25,125333	0,5	-0,863700
25,133667	0,5	-0,856300
25,142000	0,5	-0,850800
25,150333	0,5	-0,845400
25,158667	0,5	-0,844850
25,167000	0,5	-0,839350
25,175333	0,5	-0,832050
25,183667	0,5	-0,825850
25,192000	0,5	-0,823700
25,200333	0,5	-0,818650
25,208667	0,5	-0,819550
25,217000	0,5	-0,818700
25,225333	0,5	-0,816650
25,233667	0,5	-0,813000
25,242000	0,5	-0,813450
25,250333	0,5	-0,810550
25,258667	0,5	-0,809300
25,267000	0,5	-0,805500
25,275333	0,5	-0,805250
25,283667	0,5	-0,801000
25,292000	0,5	-0,799650
25,300333	0,5	-0,795700
25,308667	0,5	-0,792450
25,317000	0,5	-0,787500
25,325333	0,5	-0,784700
25,333667	0,5	-0,782750
25,342000	0,5	-0,777350
25,350333	0,5	-0,772150
25,358667	0,5	-0,768400
25,367000	0,5	-0,766750
25,375333	0,5	-0,764050
25,383667	0,5	-0,762250
25,392000	0,5	-0,759050
25,400333	0,5	-0,755700
25,408667	0,5	-0,754950
25,417000	0,5	-0,753850
25,425333	0,5	-0,750100
25,433667	0,5	-0,748800
25,442000	0,5	-0,748350
25,450333	0,5	-0,743900
25,458667	0,5	-0,743450
25,467000	0,5	-0,736750
25,475333	0,5	-0,744600
25,483667	0,5	-0,744900
25,492000	0,5	-0,741450
25,500333	0,5	-0,740850
25,508667	0,5	-0,734650
25,517000	0,5	-0,734650
25,525333	0,5	-0,732850
25,533667	0,5	-0,728600
25,542000	0,5	-0,727950
25,550333	0,5	-0,724900
25,558667	0,5	-0,723650
25,567000	0,5	-0,720400
25,575333	0,5	-0,717850
25,583667	0,5	-0,712750
25,592000	0,5	-0,713300
25,600333	0,5	-0,704700
25,608667	0,5	-0,707350
25,617000	0,5	-0,699000
25,625333	0,5	-0,710450
25,633667	0,5	-0,706200
25,642000	0,5	-0,705450
25,650333	0,5	-0,702750
25,658667	0,5	-0,696150
25,667000	0,5	-0,697950
25,675333	0,5	-0,699550
25,683667	0,5	-0,699850
25,692000	0,5	-0,700900
25,700333	0,5	-0,694750
25,708667	0,5	-0,697000
25,717000	0,5	-0,693250
25,725333	0,5	-0,689400
25,733667	0,5	-0,688650
25,742000	0,5	-0,683600
25,750333	0,5	-0,682200
25,758667	0,5	-0,680450
25,767000	0,5	-0,675500
25,775333	0,5	-0,681200
25,783667	0,5	-0,678450
25,792000	0,5	-0,675650
25,800333	0,5	-0,669650
25,808667	0,5	-0,661800
25,817000	0,5	-0,666950
25,825333	0,5	-0,662500
25,833667	0,5	-0,664200
25,842000	0,5	-0,665000
25,850333	0,5	-0,663450
25,858667	0,5	-0,660450
25,867000	0,5	-0,662350
25,875333	0,5	-0,658800
25,883667	0,5	-0,658200
25,892000	0,5	-0,648650
25,900333	0,5	-0,654650
25,908667	0,5	-0,645700
25,917000	0,5	-0,647750
25,925333	0,5	-0,651700
25,933667	0,5	-0,646450
25,942000	0,5	-0,641700
25,950333	0,5	-0,632150
25,958667	0,5	-0,628000
25,967000	0,5	-0,624300
25,975333	0,5	-0,624500
25,983667	0,5	-0,618950
25,992000	0,5	-0,619700
26,000333	0,5	-0,619500
