File Path	chrom://chromeleon01/ikbm_chromeleon/2022/ICS-5000/ED1/Esteban/20220612_Cell_7_4_eg.seq/154.smp/ED_1.channel/ED_1.chm
Channel	ED_1

Injection Information:
Data Vault	ikbm_chromeleon
Injection	CelS2_00h-EGS_2
Injection Number	132
Position	BD7
Comment	
Processing Method	Stop sequence after Cell Death
Instrument Method	ICS5000_PA200_FullNative_Ox_26min_ED1
Type	Unknown
Status	Finished
Injection Date	15.06.2022
Injection Time	06:34:28
Injection Volume (µl)	5,0
Dilution Factor	1,0000
Weight	1,0000

Chromatogram Data Information:
Time Min. (min)	0,000167
Time Max. (min)	26,000167
Data Points	3121
Detector	EDet1
Generating Data System	Chromeleon 7.2.9.11323
Exporting Data System	Chromeleon 7.2.9.0
Operator	Instrument Controller
Signal Quantity	
Signal Unit	nC
Signal Min.	-2,656350
Signal Max.	51,057901
Channel	ED_1
Driver Name	DC-5000
Channel Type	Evaluation
Min. Step (s)	0,5
Max. Step (s)	0,5
Average Step (s)	0,5

Signal Parameter Information:
Signal Info	

Chromatogram Data:
Time (min)	Step (s)	Value (nC)
0,000167	n.a.	-0,052800
0,008500	0,5	-0,088750
0,016833	0,5	-0,078300
0,025167	0,5	-0,059150
0,033500	0,5	-0,055350
0,041833	0,5	-0,042150
0,050167	0,5	-0,042900
0,058500	0,5	-0,034950
0,066833	0,5	-0,026100
0,075167	0,5	-0,016350
0,083500	0,5	-0,035300
0,091833	0,5	0,000600
0,100167	0,5	-0,044600
0,108500	0,5	-0,044950
0,116833	0,5	-0,051500
0,125167	0,5	-0,028000
0,133500	0,5	0,006800
0,141833	0,5	0,000200
0,150167	0,5	-0,000900
0,158500	0,5	-0,019750
0,166833	0,5	-0,015500
0,175167	0,5	-0,024150
0,183500	0,5	-0,021900
0,191833	0,5	-0,034600
0,200167	0,5	-0,029850
0,208500	0,5	-0,031100
0,216833	0,5	-0,034600
0,225167	0,5	-0,051200
0,233500	0,5	-0,034350
0,241833	0,5	-0,037100
0,250167	0,5	-0,057400
0,258500	0,5	-0,061150
0,266833	0,5	-0,053750
0,275167	0,5	-0,035850
0,283500	0,5	-0,012200
0,291833	0,5	-0,006550
0,300167	0,5	0,000450
0,308500	0,5	0,001950
0,316833	0,5	-0,026050
0,325167	0,5	-0,042900
0,333500	0,5	-0,051550
0,341833	0,5	-0,054950
0,350167	0,5	-0,063600
0,358500	0,5	-0,058350
0,366833	0,5	-0,065050
0,375167	0,5	-0,058600
0,383500	0,5	-0,034350
0,391833	0,5	-0,047550
0,400167	0,5	-0,077250
0,408500	0,5	-0,068500
0,416833	0,5	-0,068000
0,425167	0,5	-0,026550
0,433500	0,5	-0,023650
0,441833	0,5	-0,028000
0,450167	0,5	-0,036200
0,458500	0,5	-0,035700
0,466833	0,5	-0,044300
0,475167	0,5	-0,041650
0,483500	0,5	-0,047500
0,491833	0,5	-0,049450
0,500167	0,5	-0,044550
0,508500	0,5	-0,045650
0,516833	0,5	-0,033150
0,525167	0,5	-0,041450
0,533500	0,5	-0,012200
0,541833	0,5	-0,045650
0,550167	0,5	-0,055450
0,558500	0,5	-0,048300
0,566833	0,5	-0,032200
0,575167	0,5	-0,006500
0,583500	0,5	-0,007400
0,591833	0,5	-0,021700
0,600167	0,5	-0,016450
0,608500	0,5	-0,016250
0,616833	0,5	-0,007700
0,625167	0,5	-0,012100
0,633500	0,5	-0,011100
0,641833	0,5	-0,016300
0,650167	0,5	-0,010000
0,658500	0,5	0,002150
0,666833	0,5	-0,008900
0,675167	0,5	0,005800
0,683500	0,5	0,024900
0,691833	0,5	0,000250
0,700167	0,5	-0,009400
0,708500	0,5	0,001900
0,716833	0,5	0,016700
0,725167	0,5	0,045100
0,733500	0,5	0,029800
0,741833	0,5	0,041000
0,750167	0,5	0,037250
0,758500	0,5	0,047250
0,766833	0,5	0,041450
0,775167	0,5	0,048000
0,783500	0,5	0,039900
0,791833	0,5	0,043500
0,800167	0,5	0,047850
0,808500	0,5	0,059750
0,816833	0,5	0,043350
0,825167	0,5	0,068000
0,833500	0,5	0,060850
0,841833	0,5	0,047600
0,850167	0,5	0,049250
0,858500	0,5	0,067250
0,866833	0,5	0,096800
0,875167	0,5	0,108300
0,883500	0,5	0,103600
0,891833	0,5	0,094300
0,900167	0,5	0,101900
0,908500	0,5	0,096550
0,916833	0,5	0,106300
0,925167	0,5	0,094500
0,933500	0,5	0,105950
0,941833	0,5	0,099950
0,950167	0,5	0,113050
0,958500	0,5	0,100300
0,966833	0,5	0,097000
0,975167	0,5	0,119150
0,983500	0,5	0,110550
0,991833	0,5	0,101000
1,000167	0,5	0,103250
1,008500	0,5	0,116450
1,016833	0,5	0,148400
1,025167	0,5	0,158050
1,033500	0,5	0,151650
1,041833	0,5	0,149650
1,050167	0,5	0,154300
1,058500	0,5	0,158450
1,066833	0,5	0,154000
1,075167	0,5	0,154200
1,083500	0,5	0,143350
1,091833	0,5	0,152150
1,100167	0,5	0,153250
1,108500	0,5	0,157400
1,116833	0,5	0,145900
1,125167	0,5	0,170550
1,133500	0,5	0,144250
1,141833	0,5	0,148750
1,150167	0,5	0,147350
1,158500	0,5	0,172700
1,166833	0,5	0,194800
1,175167	0,5	0,201050
1,183500	0,5	0,192800
1,191833	0,5	0,193850
1,200167	0,5	0,194050
1,208500	0,5	0,187050
1,216833	0,5	0,190150
1,225167	0,5	0,186500
1,233500	0,5	0,189450
1,241833	0,5	0,192250
1,250167	0,5	0,192050
1,258500	0,5	0,177700
1,266833	0,5	0,191350
1,275167	0,5	0,193650
1,283500	0,5	0,179400
1,291833	0,5	0,174600
1,300167	0,5	0,186550
1,308500	0,5	0,209900
1,316833	0,5	0,233950
1,325167	0,5	0,227550
1,333500	0,5	0,238000
1,341833	0,5	0,231400
1,350167	0,5	0,234350
1,358500	0,5	0,226950
1,366833	0,5	0,228550
1,375167	0,5	0,222150
1,383500	0,5	0,221700
1,391833	0,5	0,226200
1,400167	0,5	0,205150
1,408500	0,5	0,197300
1,416833	0,5	0,227250
1,425167	0,5	0,218050
1,433500	0,5	0,204850
1,441833	0,5	0,211300
1,450167	0,5	0,213550
1,458500	0,5	0,250550
1,466833	0,5	0,254250
1,475167	0,5	0,262100
1,483500	0,5	0,249550
1,491833	0,5	0,260100
1,500167	0,5	0,248600
1,508500	0,5	0,253100
1,516833	0,5	0,241850
1,525167	0,5	0,245350
1,533500	0,5	0,246450
1,541833	0,5	0,246850
1,550167	0,5	0,232750
1,558500	0,5	0,213350
1,566833	0,5	0,147650
1,575167	0,5	-0,171550
1,583500	0,5	-0,684800
1,591833	0,5	-0,910150
1,600167	0,5	0,088700
1,608500	0,5	3,699500
1,616833	0,5	3,898000
1,625167	0,5	26,992000
1,633500	0,5	42,497601
1,641833	0,5	51,057901
1,650167	0,5	49,181051
1,658500	0,5	40,610151
1,666833	0,5	30,948500
1,675167	0,5	23,159650
1,683500	0,5	17,785350
1,691833	0,5	14,316200
1,700167	0,5	12,182850
1,708500	0,5	11,012250
1,716833	0,5	10,518250
1,725167	0,5	10,130450
1,733500	0,5	9,557850
1,741833	0,5	8,763000
1,750167	0,5	7,956900
1,758500	0,5	7,283200
1,766833	0,5	6,709850
1,775167	0,5	6,338350
1,783500	0,5	6,249700
1,791833	0,5	6,572100
1,800167	0,5	7,314250
1,808500	0,5	8,286650
1,816833	0,5	9,161250
1,825167	0,5	9,716200
1,833500	0,5	9,813950
1,841833	0,5	9,488850
1,850167	0,5	8,872200
1,858500	0,5	8,232150
1,866833	0,5	7,656150
1,875167	0,5	7,192350
1,883500	0,5	6,874300
1,891833	0,5	6,666750
1,900167	0,5	6,471950
1,908500	0,5	6,232500
1,916833	0,5	5,924950
1,925167	0,5	5,652700
1,933500	0,5	5,407250
1,941833	0,5	5,189150
1,950167	0,5	4,977750
1,958500	0,5	4,792250
1,966833	0,5	4,645600
1,975167	0,5	4,553750
1,983500	0,5	4,529400
1,991833	0,5	4,505850
2,000167	0,5	4,488200
2,008500	0,5	4,460400
2,016833	0,5	4,393400
2,025167	0,5	4,326000
2,033500	0,5	4,296550
2,041833	0,5	4,297250
2,050167	0,5	4,354850
2,058500	0,5	4,447050
2,066833	0,5	4,616500
2,075167	0,5	4,835950
2,083500	0,5	5,064550
2,091833	0,5	5,168450
2,100167	0,5	5,194650
2,108500	0,5	5,221900
2,116833	0,5	5,345850
2,125167	0,5	5,554550
2,133500	0,5	5,815750
2,141833	0,5	6,176100
2,150167	0,5	6,652200
2,158500	0,5	7,082800
2,166833	0,5	7,177650
2,175167	0,5	6,934950
2,183500	0,5	6,554200
2,191833	0,5	6,259150
2,200167	0,5	6,120500
2,208500	0,5	6,180150
2,216833	0,5	6,447450
2,225167	0,5	7,001050
2,233500	0,5	7,702450
2,241833	0,5	8,265750
2,250167	0,5	8,394500
2,258500	0,5	8,116900
2,266833	0,5	7,664700
2,275167	0,5	7,260700
2,283500	0,5	6,969900
2,291833	0,5	6,788450
2,300167	0,5	6,708000
2,308500	0,5	6,694400
2,316833	0,5	6,691900
2,325167	0,5	6,724850
2,333500	0,5	6,785750
2,341833	0,5	6,902800
2,350167	0,5	7,047650
2,358500	0,5	7,171400
2,366833	0,5	7,293150
2,375167	0,5	7,386950
2,383500	0,5	7,519100
2,391833	0,5	7,649300
2,400167	0,5	7,760500
2,408500	0,5	7,789150
2,416833	0,5	7,762350
2,425167	0,5	7,701250
2,433500	0,5	7,634750
2,441833	0,5	7,578000
2,450167	0,5	7,578650
2,458500	0,5	7,542400
2,466833	0,5	7,528650
2,475167	0,5	7,525850
2,483500	0,5	7,538350
2,491833	0,5	7,564600
2,500167	0,5	7,569350
2,508500	0,5	7,562800
2,516833	0,5	7,555950
2,525167	0,5	7,549100
2,533500	0,5	7,538050
2,541833	0,5	7,534700
2,550167	0,5	7,532350
2,558500	0,5	7,556250
2,566833	0,5	7,601100
2,575167	0,5	7,663050
2,583500	0,5	7,699000
2,591833	0,5	7,686550
2,600167	0,5	7,644450
2,608500	0,5	7,523100
2,616833	0,5	7,393350
2,625167	0,5	7,287000
2,633500	0,5	7,204850
2,641833	0,5	7,167750
2,650167	0,5	7,105450
2,658500	0,5	7,048700
2,666833	0,5	6,996450
2,675167	0,5	6,953900
2,683500	0,5	6,903350
2,691833	0,5	6,852150
2,700167	0,5	6,794850
2,708500	0,5	6,733800
2,716833	0,5	6,682350
2,725167	0,5	6,623750
2,733500	0,5	6,566500
2,741833	0,5	6,498050
2,750167	0,5	6,473350
2,758500	0,5	6,404050
2,766833	0,5	6,380850
2,775167	0,5	6,379100
2,783500	0,5	6,428150
2,791833	0,5	6,565050
2,800167	0,5	6,809700
2,808500	0,5	7,260850
2,816833	0,5	7,965100
2,825167	0,5	8,798750
2,833500	0,5	9,560050
2,841833	0,5	9,993750
2,850167	0,5	10,007200
2,858500	0,5	9,654400
2,866833	0,5	9,106150
2,875167	0,5	8,506050
2,883500	0,5	7,952750
2,891833	0,5	7,527400
2,900167	0,5	7,256450
2,908500	0,5	7,135750
2,916833	0,5	7,207700
2,925167	0,5	7,445200
2,933500	0,5	7,776800
2,941833	0,5	8,152100
2,950167	0,5	8,531800
2,958500	0,5	9,074300
2,966833	0,5	9,908950
2,975167	0,5	11,128550
2,983500	0,5	12,511950
2,991833	0,5	13,663800
3,000167	0,5	14,123050
3,008500	0,5	13,743200
3,016833	0,5	12,671650
3,025167	0,5	11,236750
3,033500	0,5	9,777300
3,041833	0,5	8,517050
3,050167	0,5	7,487150
3,058500	0,5	6,717450
3,066833	0,5	6,194350
3,075167	0,5	5,893450
3,083500	0,5	5,794450
3,091833	0,5	5,827150
3,100167	0,5	5,932950
3,108500	0,5	5,995950
3,116833	0,5	5,944550
3,125167	0,5	5,713000
3,133500	0,5	5,361800
3,141833	0,5	4,929850
3,150167	0,5	4,523050
3,158500	0,5	4,169700
3,166833	0,5	3,891800
3,175167	0,5	3,666550
3,183500	0,5	3,504900
3,191833	0,5	3,381350
3,200167	0,5	3,261850
3,208500	0,5	3,159050
3,216833	0,5	3,084650
3,225167	0,5	3,021000
3,233500	0,5	2,979100
3,241833	0,5	2,926950
3,250167	0,5	2,874600
3,258500	0,5	2,827050
3,266833	0,5	2,793000
3,275167	0,5	2,786050
3,283500	0,5	2,791300
3,291833	0,5	2,821550
3,300167	0,5	2,854500
3,308500	0,5	2,884200
3,316833	0,5	2,887650
3,325167	0,5	2,854650
3,333500	0,5	2,788350
3,341833	0,5	2,696900
3,350167	0,5	2,572950
3,358500	0,5	2,472550
3,366833	0,5	2,388200
3,375167	0,5	2,336400
3,383500	0,5	2,291800
3,391833	0,5	2,244700
3,400167	0,5	2,207550
3,408500	0,5	2,186900
3,416833	0,5	2,170450
3,425167	0,5	2,163200
3,433500	0,5	2,164650
3,441833	0,5	2,161450
3,450167	0,5	2,163400
3,458500	0,5	2,153950
3,466833	0,5	2,146950
3,475167	0,5	2,125300
3,483500	0,5	2,150850
3,491833	0,5	2,158900
3,500167	0,5	2,192150
3,508500	0,5	2,253700
3,516833	0,5	2,345000
3,525167	0,5	2,436050
3,533500	0,5	2,485750
3,541833	0,5	2,471050
3,550167	0,5	2,417000
3,558500	0,5	2,317150
3,566833	0,5	2,201450
3,575167	0,5	2,078400
3,583500	0,5	1,975900
3,591833	0,5	1,886300
3,600167	0,5	1,820200
3,608500	0,5	1,771250
3,616833	0,5	1,718850
3,625167	0,5	1,673400
3,633500	0,5	1,671700
3,641833	0,5	1,629450
3,650167	0,5	1,607000
3,658500	0,5	1,594950
3,666833	0,5	1,591500
3,675167	0,5	1,616850
3,683500	0,5	1,602550
3,691833	0,5	1,597550
3,700167	0,5	1,581900
3,708500	0,5	1,584550
3,716833	0,5	1,572450
3,725167	0,5	1,577350
3,733500	0,5	1,557550
3,741833	0,5	1,555300
3,750167	0,5	1,550700
3,758500	0,5	1,549950
3,766833	0,5	1,544300
3,775167	0,5	1,542150
3,783500	0,5	1,558100
3,791833	0,5	1,536300
3,800167	0,5	1,532500
3,808500	0,5	1,529800
3,816833	0,5	1,536800
3,825167	0,5	1,557250
3,833500	0,5	1,552000
3,841833	0,5	1,544750
3,850167	0,5	1,547200
3,858500	0,5	1,543100
3,866833	0,5	1,544400
3,875167	0,5	1,536000
3,883500	0,5	1,532350
3,891833	0,5	1,515050
3,900167	0,5	1,510550
3,908500	0,5	1,501750
3,916833	0,5	1,497000
3,925167	0,5	1,478400
3,933500	0,5	1,464350
3,941833	0,5	1,424750
3,950167	0,5	1,408000
3,958500	0,5	1,397050
3,966833	0,5	1,403650
3,975167	0,5	1,411200
3,983500	0,5	1,394650
3,991833	0,5	1,381700
4,000167	0,5	1,372750
4,008500	0,5	1,364350
4,016833	0,5	1,356050
4,025167	0,5	1,350350
4,033500	0,5	1,338250
4,041833	0,5	1,338150
4,050167	0,5	1,329350
4,058500	0,5	1,322850
4,066833	0,5	1,310900
4,075167	0,5	1,321350
4,083500	0,5	1,305800
4,091833	0,5	1,288750
4,100167	0,5	1,287500
4,108500	0,5	1,292650
4,116833	0,5	1,308000
4,125167	0,5	1,321650
4,133500	0,5	1,315700
4,141833	0,5	1,317400
4,150167	0,5	1,312050
4,158500	0,5	1,312850
4,166833	0,5	1,316850
4,175167	0,5	1,309150
4,183500	0,5	1,306800
4,191833	0,5	1,297050
4,200167	0,5	1,299550
4,208500	0,5	1,277300
4,216833	0,5	1,274150
4,225167	0,5	1,282950
4,233500	0,5	1,263750
4,241833	0,5	1,243250
4,250167	0,5	1,244650
4,258500	0,5	1,243400
4,266833	0,5	1,262950
4,275167	0,5	1,256650
4,283500	0,5	1,256350
4,291833	0,5	1,245350
4,300167	0,5	1,246250
4,308500	0,5	1,239000
4,316833	0,5	1,234050
4,325167	0,5	1,229300
4,333500	0,5	1,220000
4,341833	0,5	1,225050
4,350167	0,5	1,221250
4,358500	0,5	1,215300
4,366833	0,5	1,220850
4,375167	0,5	1,226150
4,383500	0,5	1,207050
4,391833	0,5	1,198650
4,400167	0,5	1,199950
4,408500	0,5	1,217450
4,416833	0,5	1,221400
4,425167	0,5	1,220350
4,433500	0,5	1,205650
4,441833	0,5	1,209300
4,450167	0,5	1,207400
4,458500	0,5	1,204550
4,466833	0,5	1,197450
4,475167	0,5	1,197150
4,483500	0,5	1,193500
4,491833	0,5	1,194200
4,500167	0,5	1,200350
4,508500	0,5	1,192850
4,516833	0,5	1,208350
4,525167	0,5	1,203450
4,533500	0,5	1,191850
4,541833	0,5	1,191250
4,550167	0,5	1,205500
4,558500	0,5	1,223100
4,566833	0,5	1,242200
4,575167	0,5	1,233850
4,583500	0,5	1,250450
4,591833	0,5	1,251600
4,600167	0,5	1,257150
4,608500	0,5	1,252050
4,616833	0,5	1,248800
4,625167	0,5	1,235950
4,633500	0,5	1,233350
4,641833	0,5	1,235050
4,650167	0,5	1,235250
4,658500	0,5	1,218100
4,666833	0,5	1,246000
4,675167	0,5	1,227500
4,683500	0,5	1,236100
4,691833	0,5	1,248450
4,700167	0,5	1,277500
4,708500	0,5	1,320150
4,716833	0,5	1,341850
4,725167	0,5	1,369200
4,733500	0,5	1,390550
4,741833	0,5	1,413500
4,750167	0,5	1,428450
4,758500	0,5	1,446350
4,766833	0,5	1,442050
4,775167	0,5	1,445500
4,783500	0,5	1,438150
4,791833	0,5	1,432400
4,800167	0,5	1,412550
4,808500	0,5	1,399500
4,816833	0,5	1,402800
4,825167	0,5	1,378850
4,833500	0,5	1,369050
4,841833	0,5	1,362100
4,850167	0,5	1,366000
4,858500	0,5	1,384900
4,866833	0,5	1,374800
4,875167	0,5	1,361900
4,883500	0,5	1,347650
4,891833	0,5	1,335600
4,900167	0,5	1,320500
4,908500	0,5	1,299550
4,916833	0,5	1,286950
4,925167	0,5	1,268900
4,933500	0,5	1,267800
4,941833	0,5	1,252700
4,950167	0,5	1,250800
4,958500	0,5	1,245000
4,966833	0,5	1,248750
4,975167	0,5	1,226900
4,983500	0,5	1,232850
4,991833	0,5	1,232150
5,000167	0,5	1,252100
5,008500	0,5	1,267300
5,016833	0,5	1,275000
5,025167	0,5	1,271200
5,033500	0,5	1,274400
5,041833	0,5	1,269250
5,050167	0,5	1,278650
5,058500	0,5	1,280850
5,066833	0,5	1,284950
5,075167	0,5	1,287000
5,083500	0,5	1,285150
5,091833	0,5	1,283750
5,100167	0,5	1,279700
5,108500	0,5	1,297300
5,116833	0,5	1,292800
5,125167	0,5	1,282250
5,133500	0,5	1,281700
5,141833	0,5	1,292450
5,150167	0,5	1,309550
5,158500	0,5	1,324550
5,166833	0,5	1,322100
5,175167	0,5	1,329550
5,183500	0,5	1,331600
5,191833	0,5	1,342250
5,200167	0,5	1,339400
5,208500	0,5	1,347500
5,216833	0,5	1,350250
5,225167	0,5	1,350600
5,233500	0,5	1,353550
5,241833	0,5	1,338200
5,250167	0,5	1,334450
5,258500	0,5	1,361950
5,266833	0,5	1,344900
5,275167	0,5	1,332100
5,283500	0,5	1,334450
5,291833	0,5	1,337650
5,300167	0,5	1,358100
5,308500	0,5	1,351550
5,316833	0,5	1,352900
5,325167	0,5	1,337850
5,333500	0,5	1,342750
5,341833	0,5	1,328550
5,350167	0,5	1,329800
5,358500	0,5	1,317600
5,366833	0,5	1,315400
5,375167	0,5	1,311250
5,383500	0,5	1,310650
5,391833	0,5	1,296700
5,400167	0,5	1,304600
5,408500	0,5	1,312500
5,416833	0,5	1,300550
5,425167	0,5	1,292850
5,433500	0,5	1,301550
5,441833	0,5	1,308750
5,450167	0,5	1,328900
5,458500	0,5	1,325450
5,466833	0,5	1,323000
5,475167	0,5	1,326250
5,483500	0,5	1,324250
5,491833	0,5	1,329600
5,500167	0,5	1,329300
5,508500	0,5	1,334700
5,516833	0,5	1,328050
5,525167	0,5	1,337650
5,533500	0,5	1,345250
5,541833	0,5	1,346550
5,550167	0,5	1,356300
5,558500	0,5	1,368450
5,566833	0,5	1,360400
5,575167	0,5	1,366850
5,583500	0,5	1,378350
5,591833	0,5	1,403050
5,600167	0,5	1,422550
5,608500	0,5	1,425250
5,616833	0,5	1,438300
5,625167	0,5	1,454750
5,633500	0,5	1,465500
5,641833	0,5	1,483200
5,650167	0,5	1,497350
5,658500	0,5	1,515950
5,666833	0,5	1,543150
5,675167	0,5	1,573350
5,683500	0,5	1,616550
5,691833	0,5	1,656800
5,700167	0,5	1,739500
5,708500	0,5	1,811700
5,716833	0,5	1,920800
5,725167	0,5	2,060600
5,733500	0,5	2,246650
5,741833	0,5	2,461600
5,750167	0,5	2,689200
5,758500	0,5	2,906950
5,766833	0,5	3,127400
5,775167	0,5	3,318500
5,783500	0,5	3,465700
5,791833	0,5	3,556200
5,800167	0,5	3,577350
5,808500	0,5	3,534800
5,816833	0,5	3,428700
5,825167	0,5	3,283100
5,833500	0,5	3,085900
5,841833	0,5	2,883950
5,850167	0,5	2,697450
5,858500	0,5	2,493550
5,866833	0,5	2,315350
5,875167	0,5	2,169200
5,883500	0,5	2,050450
5,891833	0,5	1,962350
5,900167	0,5	1,880600
5,908500	0,5	1,816800
5,916833	0,5	1,752400
5,925167	0,5	1,712900
5,933500	0,5	1,675650
5,941833	0,5	1,647400
5,950167	0,5	1,623500
5,958500	0,5	1,605850
5,966833	0,5	1,592650
5,975167	0,5	1,580050
5,983500	0,5	1,569350
5,991833	0,5	1,571450
6,000167	0,5	1,576000
6,008500	0,5	1,563800
6,016833	0,5	1,565950
6,025167	0,5	1,571550
6,033500	0,5	1,594550
6,041833	0,5	1,610850
6,050167	0,5	1,623750
6,058500	0,5	1,619450
6,066833	0,5	1,623850
6,075167	0,5	1,620300
6,083500	0,5	1,620250
6,091833	0,5	1,605350
6,100167	0,5	1,599300
6,108500	0,5	1,589000
6,116833	0,5	1,588200
6,125167	0,5	1,573150
6,133500	0,5	1,564800
6,141833	0,5	1,566900
6,150167	0,5	1,557050
6,158500	0,5	1,541100
6,166833	0,5	1,540700
6,175167	0,5	1,540250
6,183500	0,5	1,555350
6,191833	0,5	1,558900
6,200167	0,5	1,554900
6,208500	0,5	1,554450
6,216833	0,5	1,553650
6,225167	0,5	1,560400
6,233500	0,5	1,557750
6,241833	0,5	1,560400
6,250167	0,5	1,555250
6,258500	0,5	1,560000
6,266833	0,5	1,561450
6,275167	0,5	1,566550
6,283500	0,5	1,564050
6,291833	0,5	1,590200
6,300167	0,5	1,574950
6,308500	0,5	1,576800
6,316833	0,5	1,581750
6,325167	0,5	1,588350
6,333500	0,5	1,609400
6,341833	0,5	1,607700
6,350167	0,5	1,604700
6,358500	0,5	1,608250
6,366833	0,5	1,607850
6,375167	0,5	1,606100
6,383500	0,5	1,608300
6,391833	0,5	1,600350
6,400167	0,5	1,599550
6,408500	0,5	1,601350
6,416833	0,5	1,606950
6,425167	0,5	1,596350
6,433500	0,5	1,600000
6,441833	0,5	1,611950
6,450167	0,5	1,600550
6,458500	0,5	1,593750
6,466833	0,5	1,602550
6,475167	0,5	1,607850
6,483500	0,5	1,629400
6,491833	0,5	1,622150
6,500167	0,5	1,625750
6,508500	0,5	1,625350
6,516833	0,5	1,634150
6,525167	0,5	1,631600
6,533500	0,5	1,632150
6,541833	0,5	1,630850
6,550167	0,5	1,631850
6,558500	0,5	1,635900
6,566833	0,5	1,630150
6,575167	0,5	1,629100
6,583500	0,5	1,631400
6,591833	0,5	1,640250
6,600167	0,5	1,633550
6,608500	0,5	1,633550
6,616833	0,5	1,638900
6,625167	0,5	1,655750
6,633500	0,5	1,672500
6,641833	0,5	1,679500
6,650167	0,5	1,687800
6,658500	0,5	1,706350
6,666833	0,5	1,717900
6,675167	0,5	1,735500
6,683500	0,5	1,743400
6,691833	0,5	1,748550
6,700167	0,5	1,745300
6,708500	0,5	1,740500
6,716833	0,5	1,733400
6,725167	0,5	1,718900
6,733500	0,5	1,715950
6,741833	0,5	1,705150
6,750167	0,5	1,699600
6,758500	0,5	1,700300
6,766833	0,5	1,708900
6,775167	0,5	1,726950
6,783500	0,5	1,743300
6,791833	0,5	1,745150
6,800167	0,5	1,751250
6,808500	0,5	1,748300
6,816833	0,5	1,744500
6,825167	0,5	1,732450
6,833500	0,5	1,725600
6,841833	0,5	1,710000
6,850167	0,5	1,699650
6,858500	0,5	1,686300
6,866833	0,5	1,673200
6,875167	0,5	1,659750
6,883500	0,5	1,664300
6,891833	0,5	1,647050
6,900167	0,5	1,638000
6,908500	0,5	1,633000
6,916833	0,5	1,635150
6,925167	0,5	1,642100
6,933500	0,5	1,641350
6,941833	0,5	1,641100
6,950167	0,5	1,634600
6,958500	0,5	1,634600
6,966833	0,5	1,625800
6,975167	0,5	1,620900
6,983500	0,5	1,613500
6,991833	0,5	1,611100
7,000167	0,5	1,607200
7,008500	0,5	1,597650
7,016833	0,5	1,584600
7,025167	0,5	1,587250
7,033500	0,5	1,586100
7,041833	0,5	1,577800
7,050167	0,5	1,570850
7,058500	0,5	1,569550
7,066833	0,5	1,574650
7,075167	0,5	1,583300
7,083500	0,5	1,580200
7,091833	0,5	1,575350
7,100167	0,5	1,573650
7,108500	0,5	1,569500
7,116833	0,5	1,569650
7,125167	0,5	1,564050
7,133500	0,5	1,562050
7,141833	0,5	1,560100
7,150167	0,5	1,560800
7,158500	0,5	1,549600
7,166833	0,5	1,539050
7,175167	0,5	1,539350
7,183500	0,5	1,534550
7,191833	0,5	1,521050
7,200167	0,5	1,513400
7,208500	0,5	1,509400
7,216833	0,5	1,515400
7,225167	0,5	1,516350
7,233500	0,5	1,511350
7,241833	0,5	1,505200
7,250167	0,5	1,506300
7,258500	0,5	1,503000
7,266833	0,5	1,503450
7,275167	0,5	1,506450
7,283500	0,5	1,503750
7,291833	0,5	1,505500
7,300167	0,5	1,504150
7,308500	0,5	1,502400
7,316833	0,5	1,496300
7,325167	0,5	1,504450
7,333500	0,5	1,492050
7,341833	0,5	1,477150
7,350167	0,5	1,464850
7,358500	0,5	1,457650
7,366833	0,5	1,458750
7,375167	0,5	1,450700
7,383500	0,5	1,433700
7,391833	0,5	1,429750
7,400167	0,5	1,423800
7,408500	0,5	1,423100
7,416833	0,5	1,423650
7,425167	0,5	1,433300
7,433500	0,5	1,448700
7,441833	0,5	1,461250
7,450167	0,5	1,467250
7,458500	0,5	1,451300
7,466833	0,5	1,428900
7,475167	0,5	1,417800
7,483500	0,5	1,394250
7,491833	0,5	1,376600
7,500167	0,5	1,364700
7,508500	0,5	1,358000
7,516833	0,5	1,364850
7,525167	0,5	1,353650
7,533500	0,5	1,347950
7,541833	0,5	1,343700
7,550167	0,5	1,342100
7,558500	0,5	1,333150
7,566833	0,5	1,332350
7,575167	0,5	1,328250
7,583500	0,5	1,319850
7,591833	0,5	1,317550
7,600167	0,5	1,309600
7,608500	0,5	1,295450
7,616833	0,5	1,288300
7,625167	0,5	1,287400
7,633500	0,5	1,275000
7,641833	0,5	1,266250
7,650167	0,5	1,262100
7,658500	0,5	1,260200
7,666833	0,5	1,260150
7,675167	0,5	1,256450
7,683500	0,5	1,250850
7,691833	0,5	1,246100
7,700167	0,5	1,243850
7,708500	0,5	1,241900
7,716833	0,5	1,240700
7,725167	0,5	1,240700
7,733500	0,5	1,233850
7,741833	0,5	1,231300
7,750167	0,5	1,224300
7,758500	0,5	1,216600
7,766833	0,5	1,212200
7,775167	0,5	1,208100
7,783500	0,5	1,198250
7,791833	0,5	1,195400
7,800167	0,5	1,198900
7,808500	0,5	1,212000
7,816833	0,5	1,236850
7,825167	0,5	1,254250
7,833500	0,5	1,267700
7,841833	0,5	1,265900
7,850167	0,5	1,252650
7,858500	0,5	1,233550
7,866833	0,5	1,216150
7,875167	0,5	1,203000
7,883500	0,5	1,201900
7,891833	0,5	1,204250
7,900167	0,5	1,213250
7,908500	0,5	1,225550
7,916833	0,5	1,256750
7,925167	0,5	1,289050
7,933500	0,5	1,323700
7,941833	0,5	1,353700
7,950167	0,5	1,373300
7,958500	0,5	1,367700
7,966833	0,5	1,340950
7,975167	0,5	1,298400
7,983500	0,5	1,257250
7,991833	0,5	1,221650
8,000167	0,5	1,196700
8,008500	0,5	1,181350
8,016833	0,5	1,173650
8,025167	0,5	1,169150
8,033500	0,5	1,172250
8,041833	0,5	1,165650
8,050167	0,5	1,152600
8,058500	0,5	1,140950
8,066833	0,5	1,134450
8,075167	0,5	1,124950
8,083500	0,5	1,116900
8,091833	0,5	1,115200
8,100167	0,5	1,121000
8,108500	0,5	1,141700
8,116833	0,5	1,160250
8,125167	0,5	1,178200
8,133500	0,5	1,183850
8,141833	0,5	1,181200
8,150167	0,5	1,160200
8,158500	0,5	1,148100
8,166833	0,5	1,130300
8,175167	0,5	1,123550
8,183500	0,5	1,120600
8,191833	0,5	1,119300
8,200167	0,5	1,116300
8,208500	0,5	1,115800
8,216833	0,5	1,110550
8,225167	0,5	1,101200
8,233500	0,5	1,091200
8,241833	0,5	1,088850
8,250167	0,5	1,093350
8,258500	0,5	1,100550
8,266833	0,5	1,101200
8,275167	0,5	1,102650
8,283500	0,5	1,104350
8,291833	0,5	1,101300
8,300167	0,5	1,103000
8,308500	0,5	1,098250
8,316833	0,5	1,095800
8,325167	0,5	1,089950
8,333500	0,5	1,085950
8,341833	0,5	1,087200
8,350167	0,5	1,084850
8,358500	0,5	1,093850
8,366833	0,5	1,104200
8,375167	0,5	1,114250
8,383500	0,5	1,113600
8,391833	0,5	1,107950
8,400167	0,5	1,100300
8,408500	0,5	1,087900
8,416833	0,5	1,079600
8,425167	0,5	1,073850
8,433500	0,5	1,069000
8,441833	0,5	1,067800
8,450167	0,5	1,064300
8,458500	0,5	1,058250
8,466833	0,5	1,051250
8,475167	0,5	1,045950
8,483500	0,5	1,043800
8,491833	0,5	1,038450
8,500167	0,5	1,034750
8,508500	0,5	1,037400
8,516833	0,5	1,036000
8,525167	0,5	1,036800
8,533500	0,5	1,038800
8,541833	0,5	1,041300
8,550167	0,5	1,048250
8,558500	0,5	1,051950
8,566833	0,5	1,058350
8,575167	0,5	1,070000
8,583500	0,5	1,086750
8,591833	0,5	1,098150
8,600167	0,5	1,101400
8,608500	0,5	1,097600
8,616833	0,5	1,088150
8,625167	0,5	1,081950
8,633500	0,5	1,077600
8,641833	0,5	1,075850
8,650167	0,5	1,071550
8,658500	0,5	1,070300
8,666833	0,5	1,066150
8,675167	0,5	1,056050
8,683500	0,5	1,056700
8,691833	0,5	1,065050
8,700167	0,5	1,079700
8,708500	0,5	1,093800
8,716833	0,5	1,112350
8,725167	0,5	1,134800
8,733500	0,5	1,172150
8,741833	0,5	1,215600
8,750167	0,5	1,255750
8,758500	0,5	1,279050
8,766833	0,5	1,275800
8,775167	0,5	1,249650
8,783500	0,5	1,214450
8,791833	0,5	1,169750
8,800167	0,5	1,136100
8,808500	0,5	1,110700
8,816833	0,5	1,093700
8,825167	0,5	1,087650
8,833500	0,5	1,087200
8,841833	0,5	1,091850
8,850167	0,5	1,100550
8,858500	0,5	1,109000
8,866833	0,5	1,111350
8,875167	0,5	1,111350
8,883500	0,5	1,108050
8,891833	0,5	1,105900
8,900167	0,5	1,106500
8,908500	0,5	1,109400
8,916833	0,5	1,118250
8,925167	0,5	1,130100
8,933500	0,5	1,153950
8,941833	0,5	1,174700
8,950167	0,5	1,190500
8,958500	0,5	1,201900
8,966833	0,5	1,197800
8,975167	0,5	1,192750
8,983500	0,5	1,195150
8,991833	0,5	1,202350
9,000167	0,5	1,210300
9,008500	0,5	1,220150
9,016833	0,5	1,223250
9,025167	0,5	1,235500
9,033500	0,5	1,237850
9,041833	0,5	1,231900
9,050167	0,5	1,212050
9,058500	0,5	1,188700
9,066833	0,5	1,166850
9,075167	0,5	1,152400
9,083500	0,5	1,147050
9,091833	0,5	1,145800
9,100167	0,5	1,155500
9,108500	0,5	1,166350
9,116833	0,5	1,184550
9,125167	0,5	1,198050
9,133500	0,5	1,209350
9,141833	0,5	1,212800
9,150167	0,5	1,215050
9,158500	0,5	1,207000
9,166833	0,5	1,199700
9,175167	0,5	1,199150
9,183500	0,5	1,196800
9,191833	0,5	1,194700
9,200167	0,5	1,196600
9,208500	0,5	1,193650
9,216833	0,5	1,195800
9,225167	0,5	1,199600
9,233500	0,5	1,201700
9,241833	0,5	1,206250
9,250167	0,5	1,217650
9,258500	0,5	1,233200
9,266833	0,5	1,245250
9,275167	0,5	1,258900
9,283500	0,5	1,274100
9,291833	0,5	1,291250
9,300167	0,5	1,307950
9,308500	0,5	1,323400
9,316833	0,5	1,339550
9,325167	0,5	1,354950
9,333500	0,5	1,363600
9,341833	0,5	1,367800
9,350167	0,5	1,369050
9,358500	0,5	1,370500
9,366833	0,5	1,376200
9,375167	0,5	1,383000
9,383500	0,5	1,396900
9,391833	0,5	1,421150
9,400167	0,5	1,451550
9,408500	0,5	1,490400
9,416833	0,5	1,532800
9,425167	0,5	1,588850
9,433500	0,5	1,648900
9,441833	0,5	1,709650
9,450167	0,5	1,757050
9,458500	0,5	1,794100
9,466833	0,5	1,811700
9,475167	0,5	1,811900
9,483500	0,5	1,800550
9,491833	0,5	1,771450
9,500167	0,5	1,743800
9,508500	0,5	1,706100
9,516833	0,5	1,676050
9,525167	0,5	1,651450
9,533500	0,5	1,635450
9,541833	0,5	1,622600
9,550167	0,5	1,619750
9,558500	0,5	1,618550
9,566833	0,5	1,622550
9,575167	0,5	1,627650
9,583500	0,5	1,636150
9,591833	0,5	1,645900
9,600167	0,5	1,653300
9,608500	0,5	1,656200
9,616833	0,5	1,663300
9,625167	0,5	1,669550
9,633500	0,5	1,673050
9,641833	0,5	1,682200
9,650167	0,5	1,691100
9,658500	0,5	1,702100
9,666833	0,5	1,706150
9,675167	0,5	1,706000
9,683500	0,5	1,706100
9,691833	0,5	1,703700
9,700167	0,5	1,704300
9,708500	0,5	1,702400
9,716833	0,5	1,705500
9,725167	0,5	1,712300
9,733500	0,5	1,723250
9,741833	0,5	1,738700
9,750167	0,5	1,757700
9,758500	0,5	1,779800
9,766833	0,5	1,800400
9,775167	0,5	1,818200
9,783500	0,5	1,834500
9,791833	0,5	1,841900
9,800167	0,5	1,849400
9,808500	0,5	1,852350
9,816833	0,5	1,864900
9,825167	0,5	1,868650
9,833500	0,5	1,879100
9,841833	0,5	1,902100
9,850167	0,5	1,933750
9,858500	0,5	1,976250
9,866833	0,5	2,036350
9,875167	0,5	2,116450
9,883500	0,5	2,219650
9,891833	0,5	2,351550
9,900167	0,5	2,497100
9,908500	0,5	2,651000
9,916833	0,5	2,799350
9,925167	0,5	2,929850
9,933500	0,5	3,021200
9,941833	0,5	3,064950
9,950167	0,5	3,049300
9,958500	0,5	2,973950
9,966833	0,5	2,852300
9,975167	0,5	2,700700
9,983500	0,5	2,540700
9,991833	0,5	2,388600
10,000167	0,5	2,255600
10,008500	0,5	2,148750
10,016833	0,5	2,066650
10,025167	0,5	2,002050
10,033500	0,5	1,960300
10,041833	0,5	1,928600
10,050167	0,5	1,907350
10,058500	0,5	1,893700
10,066833	0,5	1,889850
10,075167	0,5	1,891150
10,083500	0,5	1,892900
10,091833	0,5	1,898600
10,100167	0,5	1,905450
10,108500	0,5	1,912000
10,116833	0,5	1,913200
10,125167	0,5	1,908050
10,133500	0,5	1,899750
10,141833	0,5	1,894600
10,150167	0,5	1,885400
10,158500	0,5	1,876250
10,166833	0,5	1,868650
10,175167	0,5	1,863550
10,183500	0,5	1,866200
10,191833	0,5	1,863300
10,200167	0,5	1,858500
10,208500	0,5	1,853200
10,216833	0,5	1,854800
10,225167	0,5	1,854100
10,233500	0,5	1,853550
10,241833	0,5	1,855350
10,250167	0,5	1,855250
10,258500	0,5	1,857150
10,266833	0,5	1,858150
10,275167	0,5	1,850350
10,283500	0,5	1,853900
10,291833	0,5	1,854500
10,300167	0,5	1,856250
10,308500	0,5	1,852200
10,316833	0,5	1,858800
10,325167	0,5	1,864200
10,333500	0,5	1,872550
10,341833	0,5	1,878500
10,350167	0,5	1,882550
10,358500	0,5	1,886800
10,366833	0,5	1,894600
10,375167	0,5	1,897350
10,383500	0,5	1,902950
10,391833	0,5	1,908050
10,400167	0,5	1,905100
10,408500	0,5	1,906850
10,416833	0,5	1,893350
10,425167	0,5	1,876600
10,433500	0,5	1,865150
10,441833	0,5	1,850700
10,450167	0,5	1,838450
10,458500	0,5	1,821500
10,466833	0,5	1,806700
10,475167	0,5	1,801700
10,483500	0,5	1,793100
10,491833	0,5	1,786850
10,500167	0,5	1,777300
10,508500	0,5	1,773150
10,516833	0,5	1,765000
10,525167	0,5	1,761050
10,533500	0,5	1,757050
10,541833	0,5	1,749300
10,550167	0,5	1,743550
10,558500	0,5	1,734900
10,566833	0,5	1,729050
10,575167	0,5	1,719300
10,583500	0,5	1,721400
10,591833	0,5	1,718050
10,600167	0,5	1,719900
10,608500	0,5	1,722100
10,616833	0,5	1,724150
10,625167	0,5	1,729250
10,633500	0,5	1,732950
10,641833	0,5	1,729050
10,650167	0,5	1,722650
10,658500	0,5	1,705500
10,666833	0,5	1,690850
10,675167	0,5	1,674100
10,683500	0,5	1,655300
10,691833	0,5	1,636250
10,700167	0,5	1,621900
10,708500	0,5	1,605800
10,716833	0,5	1,588800
10,725167	0,5	1,579950
10,733500	0,5	1,573950
10,741833	0,5	1,563400
10,750167	0,5	1,558650
10,758500	0,5	1,553950
10,766833	0,5	1,549000
10,775167	0,5	1,547300
10,783500	0,5	1,546100
10,791833	0,5	1,543450
10,800167	0,5	1,543700
10,808500	0,5	1,546900
10,816833	0,5	1,553750
10,825167	0,5	1,565150
10,833500	0,5	1,575550
10,841833	0,5	1,580100
10,850167	0,5	1,580850
10,858500	0,5	1,572000
10,866833	0,5	1,551250
10,875167	0,5	1,537000
10,883500	0,5	1,523050
10,891833	0,5	1,504250
10,900167	0,5	1,484600
10,908500	0,5	1,470150
10,916833	0,5	1,455650
10,925167	0,5	1,448100
10,933500	0,5	1,444500
10,941833	0,5	1,437800
10,950167	0,5	1,438800
10,958500	0,5	1,431900
10,966833	0,5	1,435950
10,975167	0,5	1,436800
10,983500	0,5	1,435850
10,991833	0,5	1,440850
11,000167	0,5	1,455850
11,008500	0,5	1,462850
11,016833	0,5	1,474450
11,025167	0,5	1,489150
11,033500	0,5	1,492500
11,041833	0,5	1,487700
11,050167	0,5	1,473150
11,058500	0,5	1,453850
11,066833	0,5	1,437500
11,075167	0,5	1,419600
11,083500	0,5	1,404750
11,091833	0,5	1,390750
11,100167	0,5	1,382050
11,108500	0,5	1,375050
11,116833	0,5	1,372650
11,125167	0,5	1,367950
11,133500	0,5	1,363800
11,141833	0,5	1,366450
11,150167	0,5	1,370300
11,158500	0,5	1,376850
11,166833	0,5	1,382750
11,175167	0,5	1,401900
11,183500	0,5	1,409350
11,191833	0,5	1,416950
11,200167	0,5	1,414100
11,208500	0,5	1,403900
11,216833	0,5	1,386600
11,225167	0,5	1,360300
11,233500	0,5	1,334250
11,241833	0,5	1,307450
11,250167	0,5	1,289950
11,258500	0,5	1,272400
11,266833	0,5	1,267500
11,275167	0,5	1,263850
11,283500	0,5	1,269000
11,291833	0,5	1,278050
11,300167	0,5	1,292900
11,308500	0,5	1,302550
11,316833	0,5	1,322300
11,325167	0,5	1,344850
11,333500	0,5	1,361400
11,341833	0,5	1,372300
11,350167	0,5	1,382400
11,358500	0,5	1,386650
11,366833	0,5	1,388600
11,375167	0,5	1,375000
11,383500	0,5	1,363250
11,391833	0,5	1,345950
11,400167	0,5	1,332800
11,408500	0,5	1,320100
11,416833	0,5	1,306700
11,425167	0,5	1,298450
11,433500	0,5	1,288300
11,441833	0,5	1,286100
11,450167	0,5	1,284650
11,458500	0,5	1,274100
11,466833	0,5	1,281700
11,475167	0,5	1,282850
11,483500	0,5	1,284700
11,491833	0,5	1,281650
11,500167	0,5	1,275500
11,508500	0,5	1,274300
11,516833	0,5	1,266850
11,525167	0,5	1,264200
11,533500	0,5	1,252650
11,541833	0,5	1,248850
11,550167	0,5	1,239750
11,558500	0,5	1,240550
11,566833	0,5	1,234250
11,575167	0,5	1,231000
11,583500	0,5	1,231450
11,591833	0,5	1,236650
11,600167	0,5	1,235700
11,608500	0,5	1,238150
11,616833	0,5	1,247950
11,625167	0,5	1,251750
11,633500	0,5	1,252450
11,641833	0,5	1,254350
11,650167	0,5	1,258050
11,658500	0,5	1,261200
11,666833	0,5	1,267350
11,675167	0,5	1,271650
11,683500	0,5	1,276600
11,691833	0,5	1,277050
11,700167	0,5	1,279850
11,708500	0,5	1,280550
11,716833	0,5	1,285900
11,725167	0,5	1,287500
11,733500	0,5	1,292250
11,741833	0,5	1,296400
11,750167	0,5	1,300350
11,758500	0,5	1,302250
11,766833	0,5	1,313900
11,775167	0,5	1,315250
11,783500	0,5	1,319100
11,791833	0,5	1,315150
11,800167	0,5	1,321000
11,808500	0,5	1,329700
11,816833	0,5	1,343950
11,825167	0,5	1,355700
11,833500	0,5	1,367850
11,841833	0,5	1,386400
11,850167	0,5	1,407950
11,858500	0,5	1,436800
11,866833	0,5	1,463850
11,875167	0,5	1,500050
11,883500	0,5	1,532800
11,891833	0,5	1,562600
11,900167	0,5	1,578500
11,908500	0,5	1,598500
11,916833	0,5	1,599100
11,925167	0,5	1,583450
11,933500	0,5	1,557900
11,941833	0,5	1,529950
11,950167	0,5	1,501450
11,958500	0,5	1,477750
11,966833	0,5	1,455100
11,975167	0,5	1,440650
11,983500	0,5	1,430650
11,991833	0,5	1,420350
12,000167	0,5	1,414850
12,008500	0,5	1,412300
12,016833	0,5	1,412350
12,025167	0,5	1,413300
12,033500	0,5	1,422350
12,041833	0,5	1,425950
12,050167	0,5	1,429400
12,058500	0,5	1,438850
12,066833	0,5	1,450850
12,075167	0,5	1,449600
12,083500	0,5	1,448700
12,091833	0,5	1,441300
12,100167	0,5	1,445800
12,108500	0,5	1,443000
12,116833	0,5	1,439050
12,125167	0,5	1,431500
12,133500	0,5	1,428250
12,141833	0,5	1,423250
12,150167	0,5	1,424250
12,158500	0,5	1,425900
12,166833	0,5	1,425550
12,175167	0,5	1,429050
12,183500	0,5	1,432800
12,191833	0,5	1,429550
12,200167	0,5	1,429550
12,208500	0,5	1,438950
12,216833	0,5	1,436600
12,225167	0,5	1,436100
12,233500	0,5	1,426850
12,241833	0,5	1,420600
12,250167	0,5	1,418950
12,258500	0,5	1,418600
12,266833	0,5	1,416850
12,275167	0,5	1,412800
12,283500	0,5	1,411800
12,291833	0,5	1,408700
12,300167	0,5	1,409850
12,308500	0,5	1,410050
12,316833	0,5	1,408850
12,325167	0,5	1,401100
12,333500	0,5	1,405050
12,341833	0,5	1,398200
12,350167	0,5	1,401500
12,358500	0,5	1,401900
12,366833	0,5	1,397750
12,375167	0,5	1,389700
12,383500	0,5	1,385200
12,391833	0,5	1,381250
12,400167	0,5	1,389550
12,408500	0,5	1,386700
12,416833	0,5	1,389050
12,425167	0,5	1,387100
12,433500	0,5	1,389350
12,441833	0,5	1,387100
12,450167	0,5	1,390550
12,458500	0,5	1,387350
12,466833	0,5	1,385300
12,475167	0,5	1,385800
12,483500	0,5	1,386600
12,491833	0,5	1,377100
12,500167	0,5	1,386350
12,508500	0,5	1,383250
12,516833	0,5	1,383600
12,525167	0,5	1,376250
12,533500	0,5	1,375750
12,541833	0,5	1,379750
12,550167	0,5	1,383250
12,558500	0,5	1,387700
12,566833	0,5	1,388650
12,575167	0,5	1,391050
12,583500	0,5	1,392350
12,591833	0,5	1,397100
12,600167	0,5	1,395200
12,608500	0,5	1,400100
12,616833	0,5	1,398350
12,625167	0,5	1,403900
12,633500	0,5	1,394300
12,641833	0,5	1,391200
12,650167	0,5	1,394500
12,658500	0,5	1,387800
12,666833	0,5	1,380900
12,675167	0,5	1,366650
12,683500	0,5	1,358250
12,691833	0,5	1,349700
12,700167	0,5	1,347000
12,708500	0,5	1,344200
12,716833	0,5	1,335250
12,725167	0,5	1,332050
12,733500	0,5	1,326500
12,741833	0,5	1,318150
12,750167	0,5	1,319150
12,758500	0,5	1,311550
12,766833	0,5	1,312550
12,775167	0,5	1,310450
12,783500	0,5	1,304250
12,791833	0,5	1,300250
12,800167	0,5	1,303150
12,808500	0,5	1,295700
12,816833	0,5	1,291550
12,825167	0,5	1,277850
12,833500	0,5	1,277150
12,841833	0,5	1,273200
12,850167	0,5	1,275750
12,858500	0,5	1,274600
12,866833	0,5	1,279250
12,875167	0,5	1,278850
12,883500	0,5	1,278700
12,891833	0,5	1,280750
12,900167	0,5	1,277500
12,908500	0,5	1,281600
12,916833	0,5	1,286250
12,925167	0,5	1,288950
12,933500	0,5	1,282550
12,941833	0,5	1,292850
12,950167	0,5	1,292950
12,958500	0,5	1,285950
12,966833	0,5	1,279350
12,975167	0,5	1,272750
12,983500	0,5	1,272750
12,991833	0,5	1,280450
13,000167	0,5	1,285550
13,008500	0,5	1,289250
13,016833	0,5	1,291600
13,025167	0,5	1,296350
13,033500	0,5	1,296100
13,041833	0,5	1,297900
13,050167	0,5	1,301400
13,058500	0,5	1,304250
13,066833	0,5	1,317750
13,075167	0,5	1,319150
13,083500	0,5	1,313100
13,091833	0,5	1,320250
13,100167	0,5	1,310700
13,108500	0,5	1,302850
13,116833	0,5	1,300050
13,125167	0,5	1,299550
13,133500	0,5	1,312700
13,141833	0,5	1,316200
13,150167	0,5	1,314600
13,158500	0,5	1,306550
13,166833	0,5	1,300600
13,175167	0,5	1,296950
13,183500	0,5	1,300600
13,191833	0,5	1,307650
13,200167	0,5	1,311400
13,208500	0,5	1,308450
13,216833	0,5	1,303450
13,225167	0,5	1,284300
13,233500	0,5	1,279200
13,241833	0,5	1,281650
13,250167	0,5	1,280200
13,258500	0,5	1,279350
13,266833	0,5	1,270750
13,275167	0,5	1,266850
13,283500	0,5	1,264450
13,291833	0,5	1,269800
13,300167	0,5	1,272350
13,308500	0,5	1,280950
13,316833	0,5	1,280800
13,325167	0,5	1,284800
13,333500	0,5	1,281250
13,341833	0,5	1,277650
13,350167	0,5	1,275650
13,358500	0,5	1,269200
13,366833	0,5	1,265350
13,375167	0,5	1,249850
13,383500	0,5	1,244750
13,391833	0,5	1,237350
13,400167	0,5	1,230800
13,408500	0,5	1,218650
13,416833	0,5	1,199500
13,425167	0,5	1,195300
13,433500	0,5	1,193550
13,441833	0,5	1,188400
13,450167	0,5	1,188250
13,458500	0,5	1,181300
13,466833	0,5	1,177900
13,475167	0,5	1,172750
13,483500	0,5	1,171400
13,491833	0,5	1,165100
13,500167	0,5	1,165300
13,508500	0,5	1,159200
13,516833	0,5	1,160650
13,525167	0,5	1,152850
13,533500	0,5	1,162850
13,541833	0,5	1,159000
13,550167	0,5	1,157900
13,558500	0,5	1,149950
13,566833	0,5	1,146950
13,575167	0,5	1,147100
13,583500	0,5	1,155950
13,591833	0,5	1,159600
13,600167	0,5	1,161800
13,608500	0,5	1,170300
13,616833	0,5	1,170950
13,625167	0,5	1,174750
13,633500	0,5	1,173500
13,641833	0,5	1,171350
13,650167	0,5	1,168350
13,658500	0,5	1,169950
13,666833	0,5	1,158750
13,675167	0,5	1,155500
13,683500	0,5	1,157400
13,691833	0,5	1,152400
13,700167	0,5	1,145800
13,708500	0,5	1,132950
13,716833	0,5	1,129100
13,725167	0,5	1,126950
13,733500	0,5	1,126500
13,741833	0,5	1,126800
13,750167	0,5	1,124950
13,758500	0,5	1,131450
13,766833	0,5	1,130300
13,775167	0,5	1,134600
13,783500	0,5	1,136350
13,791833	0,5	1,137950
13,800167	0,5	1,144700
13,808500	0,5	1,147100
13,816833	0,5	1,137550
13,825167	0,5	1,153200
13,833500	0,5	1,163100
13,841833	0,5	1,149100
13,850167	0,5	1,135350
13,858500	0,5	1,106200
13,866833	0,5	1,095850
13,875167	0,5	1,079850
13,883500	0,5	1,065850
13,891833	0,5	1,042100
13,900167	0,5	1,017350
13,908500	0,5	0,977100
13,916833	0,5	0,912550
13,925167	0,5	0,796450
13,933500	0,5	0,578300
13,941833	0,5	0,319000
13,950167	0,5	0,107600
13,958500	0,5	-0,034050
13,966833	0,5	-0,124800
13,975167	0,5	-0,165300
13,983500	0,5	-0,196200
13,991833	0,5	-0,221250
14,000167	0,5	-0,249600
14,008500	0,5	-0,273700
14,016833	0,5	-0,290950
14,025167	0,5	-0,302350
14,033500	0,5	-0,321200
14,041833	0,5	-0,329400
14,050167	0,5	-0,341550
14,058500	0,5	-0,343600
14,066833	0,5	-0,346550
14,075167	0,5	-0,345800
14,083500	0,5	-0,347250
14,091833	0,5	-0,347150
14,100167	0,5	-0,340150
14,108500	0,5	-0,341950
14,116833	0,5	-0,340150
14,125167	0,5	-0,325800
14,133500	0,5	-0,322650
14,141833	0,5	-0,324400
14,150167	0,5	-0,324550
14,158500	0,5	-0,319550
14,166833	0,5	-0,302500
14,175167	0,5	-0,293900
14,183500	0,5	-0,278850
14,191833	0,5	-0,270900
14,200167	0,5	-0,251800
14,208500	0,5	-0,247400
14,216833	0,5	-0,237150
14,225167	0,5	-0,230400
14,233500	0,5	-0,224200
14,241833	0,5	-0,221550
14,250167	0,5	-0,210900
14,258500	0,5	-0,216500
14,266833	0,5	-0,204300
14,275167	0,5	-0,194900
14,283500	0,5	-0,192250
14,291833	0,5	-0,189800
14,300167	0,5	-0,194650
14,308500	0,5	-0,188750
14,316833	0,5	-0,183300
14,325167	0,5	-0,176100
14,333500	0,5	-0,171050
14,341833	0,5	-0,166600
14,350167	0,5	-0,162350
14,358500	0,5	-0,149100
14,366833	0,5	-0,140900
14,375167	0,5	-0,126500
14,383500	0,5	-0,118650
14,391833	0,5	-0,100100
14,400167	0,5	-0,089450
14,408500	0,5	-0,081200
14,416833	0,5	-0,064000
14,425167	0,5	-0,050350
14,433500	0,5	-0,040400
14,441833	0,5	-0,033100
14,450167	0,5	-0,030200
14,458500	0,5	-0,012600
14,466833	0,5	0,009100
14,475167	0,5	0,035200
14,483500	0,5	0,058200
14,491833	0,5	0,080450
14,500167	0,5	0,110100
14,508500	0,5	0,135150
14,516833	0,5	0,159550
14,525167	0,5	0,175850
14,533500	0,5	0,202350
14,541833	0,5	0,220450
14,550167	0,5	0,235550
14,558500	0,5	0,245650
14,566833	0,5	0,279750
14,575167	0,5	0,290950
14,583500	0,5	0,317350
14,591833	0,5	0,325550
14,600167	0,5	0,346450
14,608500	0,5	0,374650
14,616833	0,5	0,408700
14,625167	0,5	0,436150
14,633500	0,5	0,470250
14,641833	0,5	0,504100
14,650167	0,5	0,538100
14,658500	0,5	0,573850
14,666833	0,5	0,601250
14,675167	0,5	0,629450
14,683500	0,5	0,652350
14,691833	0,5	0,672150
14,700167	0,5	0,676750
14,708500	0,5	0,703400
14,716833	0,5	0,724800
14,725167	0,5	0,743600
14,733500	0,5	0,755750
14,741833	0,5	0,763400
14,750167	0,5	0,773950
14,758500	0,5	0,785450
14,766833	0,5	0,779950
14,775167	0,5	0,776600
14,783500	0,5	0,765450
14,791833	0,5	0,756950
14,800167	0,5	0,738900
14,808500	0,5	0,726950
14,816833	0,5	0,718300
14,825167	0,5	0,705700
14,833500	0,5	0,712100
14,841833	0,5	0,710800
14,850167	0,5	0,692800
14,858500	0,5	0,702250
14,866833	0,5	0,703800
14,875167	0,5	0,690650
14,883500	0,5	0,682600
14,891833	0,5	0,653800
14,900167	0,5	0,651800
14,908500	0,5	0,640400
14,916833	0,5	0,641950
14,925167	0,5	0,632350
14,933500	0,5	0,629800
14,941833	0,5	0,622950
14,950167	0,5	0,623650
14,958500	0,5	0,617950
14,966833	0,5	0,613350
14,975167	0,5	0,607600
14,983500	0,5	0,608100
14,991833	0,5	0,599500
15,000167	0,5	0,587500
15,008500	0,5	0,589950
15,016833	0,5	0,584550
15,025167	0,5	0,574250
15,033500	0,5	0,559500
15,041833	0,5	0,548450
15,050167	0,5	0,540700
15,058500	0,5	0,540300
15,066833	0,5	0,528900
15,075167	0,5	0,527100
15,083500	0,5	0,518050
15,091833	0,5	0,514800
15,100167	0,5	0,507450
15,108500	0,5	0,501000
15,116833	0,5	0,491550
15,125167	0,5	0,483750
15,133500	0,5	0,478250
15,141833	0,5	0,465400
15,150167	0,5	0,462850
15,158500	0,5	0,468000
15,166833	0,5	0,459350
15,175167	0,5	0,445950
15,183500	0,5	0,427800
15,191833	0,5	0,421750
15,200167	0,5	0,424150
15,208500	0,5	0,417950
15,216833	0,5	0,414850
15,225167	0,5	0,411800
15,233500	0,5	0,410700
15,241833	0,5	0,408150
15,250167	0,5	0,408550
15,258500	0,5	0,400400
15,266833	0,5	0,399250
15,275167	0,5	0,394750
15,283500	0,5	0,404450
15,291833	0,5	0,382650
15,300167	0,5	0,394350
15,308500	0,5	0,391800
15,316833	0,5	0,389650
15,325167	0,5	0,381100
15,333500	0,5	0,367850
15,341833	0,5	0,364200
15,350167	0,5	0,364850
15,358500	0,5	0,367050
15,366833	0,5	0,365050
15,375167	0,5	0,363300
15,383500	0,5	0,356900
15,391833	0,5	0,358600
15,400167	0,5	0,357600
15,408500	0,5	0,358950
15,416833	0,5	0,355850
15,425167	0,5	0,360550
15,433500	0,5	0,350200
15,441833	0,5	0,341350
15,450167	0,5	0,343750
15,458500	0,5	0,342100
15,466833	0,5	0,334450
15,475167	0,5	0,322150
15,483500	0,5	0,305250
15,491833	0,5	0,304200
15,500167	0,5	0,303000
15,508500	0,5	0,308400
15,516833	0,5	0,307300
15,525167	0,5	0,312450
15,533500	0,5	0,308250
15,541833	0,5	0,309150
15,550167	0,5	0,309700
15,558500	0,5	0,300800
15,566833	0,5	0,307700
15,575167	0,5	0,304550
15,583500	0,5	0,292400
15,591833	0,5	0,292850
15,600167	0,5	0,295700
15,608500	0,5	0,288100
15,616833	0,5	0,283750
15,625167	0,5	0,262400
15,633500	0,5	0,259700
15,641833	0,5	0,260700
15,650167	0,5	0,268450
15,658500	0,5	0,260100
15,666833	0,5	0,261800
15,675167	0,5	0,255500
15,683500	0,5	0,257350
15,691833	0,5	0,256000
15,700167	0,5	0,252800
15,708500	0,5	0,251650
15,716833	0,5	0,249700
15,725167	0,5	0,248700
15,733500	0,5	0,229700
15,741833	0,5	0,233650
15,750167	0,5	0,241200
15,758500	0,5	0,231600
15,766833	0,5	0,219850
15,775167	0,5	0,203950
15,783500	0,5	0,197700
15,791833	0,5	0,198050
15,800167	0,5	0,194500
15,808500	0,5	0,193000
15,816833	0,5	0,186000
15,825167	0,5	0,184200
15,833500	0,5	0,183150
15,841833	0,5	0,182400
15,850167	0,5	0,177450
15,858500	0,5	0,176050
15,866833	0,5	0,175850
15,875167	0,5	0,171000
15,883500	0,5	0,150800
15,891833	0,5	0,159200
15,900167	0,5	0,154150
15,908500	0,5	0,143050
15,916833	0,5	0,132300
15,925167	0,5	0,116400
15,933500	0,5	0,125250
15,941833	0,5	0,116900
15,950167	0,5	0,118350
15,958500	0,5	0,106850
15,966833	0,5	0,109750
15,975167	0,5	0,103400
15,983500	0,5	0,103550
15,991833	0,5	0,099500
16,000167	0,5	0,097000
16,008500	0,5	0,097250
16,016833	0,5	0,101600
16,025167	0,5	0,088150
16,033500	0,5	0,081650
16,041833	0,5	0,083850
16,050167	0,5	0,085000
16,058500	0,5	0,069300
16,066833	0,5	0,055850
16,075167	0,5	0,046950
16,083500	0,5	0,047350
16,091833	0,5	0,050850
16,100167	0,5	0,041250
16,108500	0,5	0,041200
16,116833	0,5	0,034600
16,125167	0,5	0,037900
16,133500	0,5	0,034500
16,141833	0,5	0,032100
16,150167	0,5	0,022300
16,158500	0,5	0,030250
16,166833	0,5	0,028750
16,175167	0,5	0,011150
16,183500	0,5	0,009800
16,191833	0,5	0,011900
16,200167	0,5	0,004400
16,208500	0,5	-0,006050
16,216833	0,5	-0,026050
16,225167	0,5	-0,031950
16,233500	0,5	-0,030750
16,241833	0,5	-0,035050
16,250167	0,5	-0,037400
16,258500	0,5	-0,040350
16,266833	0,5	-0,044000
16,275167	0,5	-0,046950
16,283500	0,5	-0,046650
16,291833	0,5	-0,054200
16,300167	0,5	-0,056200
16,308500	0,5	-0,057050
16,316833	0,5	-0,060600
16,325167	0,5	-0,075450
16,333500	0,5	-0,063850
16,341833	0,5	-0,071150
16,350167	0,5	-0,074250
16,358500	0,5	-0,092050
16,366833	0,5	-0,103800
16,375167	0,5	-0,104600
16,383500	0,5	-0,106700
16,391833	0,5	-0,112650
16,400167	0,5	-0,115500
16,408500	0,5	-0,115900
16,416833	0,5	-0,120400
16,425167	0,5	-0,118000
16,433500	0,5	-0,125200
16,441833	0,5	-0,130400
16,450167	0,5	-0,130550
16,458500	0,5	-0,129750
16,466833	0,5	-0,144100
16,475167	0,5	-0,142400
16,483500	0,5	-0,138950
16,491833	0,5	-0,146900
16,500167	0,5	-0,152250
16,508500	0,5	-0,168200
16,516833	0,5	-0,182100
16,525167	0,5	-0,183900
16,533500	0,5	-0,184250
16,541833	0,5	-0,185650
16,550167	0,5	-0,184050
16,558500	0,5	-0,186750
16,566833	0,5	-0,188800
16,575167	0,5	-0,191550
16,583500	0,5	-0,196900
16,591833	0,5	-0,203000
16,600167	0,5	-0,196450
16,608500	0,5	-0,198500
16,616833	0,5	-0,212500
16,625167	0,5	-0,209150
16,633500	0,5	-0,205000
16,641833	0,5	-0,213950
16,650167	0,5	-0,217850
16,658500	0,5	-0,239150
16,666833	0,5	-0,239450
16,675167	0,5	-0,242000
16,683500	0,5	-0,238350
16,691833	0,5	-0,246700
16,700167	0,5	-0,244600
16,708500	0,5	-0,250400
16,716833	0,5	-0,247400
16,725167	0,5	-0,252500
16,733500	0,5	-0,253800
16,741833	0,5	-0,256300
16,750167	0,5	-0,253600
16,758500	0,5	-0,260800
16,766833	0,5	-0,275300
16,775167	0,5	-0,263500
16,783500	0,5	-0,263450
16,791833	0,5	-0,273800
16,800167	0,5	-0,285600
16,808500	0,5	-0,295200
16,816833	0,5	-0,295950
16,825167	0,5	-0,297500
16,833500	0,5	-0,303800
16,841833	0,5	-0,303500
16,850167	0,5	-0,305950
16,858500	0,5	-0,303100
16,866833	0,5	-0,309350
16,875167	0,5	-0,311000
16,883500	0,5	-0,312400
16,891833	0,5	-0,316250
16,900167	0,5	-0,313250
16,908500	0,5	-0,326500
16,916833	0,5	-0,332050
16,925167	0,5	-0,324350
16,933500	0,5	-0,327850
16,941833	0,5	-0,341350
16,950167	0,5	-0,353750
16,958500	0,5	-0,363650
16,966833	0,5	-0,354350
16,975167	0,5	-0,359200
16,983500	0,5	-0,355700
16,991833	0,5	-0,367100
17,000167	0,5	-0,363050
17,008500	0,5	-0,370550
17,016833	0,5	-0,371650
17,025167	0,5	-0,376350
17,033500	0,5	-0,375300
17,041833	0,5	-0,377950
17,050167	0,5	-0,371600
17,058500	0,5	-0,392700
17,066833	0,5	-0,387100
17,075167	0,5	-0,389250
17,083500	0,5	-0,392150
17,091833	0,5	-0,403500
17,100167	0,5	-0,419350
17,108500	0,5	-0,424900
17,116833	0,5	-0,424400
17,125167	0,5	-0,425800
17,133500	0,5	-0,426600
17,141833	0,5	-0,428250
17,150167	0,5	-0,435100
17,158500	0,5	-0,430850
17,166833	0,5	-0,433850
17,175167	0,5	-0,430350
17,183500	0,5	-0,440300
17,191833	0,5	-0,436450
17,200167	0,5	-0,441050
17,208500	0,5	-0,448350
17,216833	0,5	-0,431900
17,225167	0,5	-0,431000
17,233500	0,5	-0,434250
17,241833	0,5	-0,446050
17,250167	0,5	-0,461000
17,258500	0,5	-0,460450
17,266833	0,5	-0,456900
17,275167	0,5	-0,457650
17,283500	0,5	-0,457950
17,291833	0,5	-0,456750
17,300167	0,5	-0,457800
17,308500	0,5	-0,459550
17,316833	0,5	-0,460550
17,325167	0,5	-0,463250
17,333500	0,5	-0,459950
17,341833	0,5	-0,464400
17,350167	0,5	-0,466400
17,358500	0,5	-0,469850
17,366833	0,5	-0,457400
17,375167	0,5	-0,463950
17,383500	0,5	-0,468350
17,391833	0,5	-0,486350
17,400167	0,5	-0,494850
17,408500	0,5	-0,498850
17,416833	0,5	-0,491900
17,425167	0,5	-0,494300
17,433500	0,5	-0,497800
17,441833	0,5	-0,497600
17,450167	0,5	-0,502650
17,458500	0,5	-0,497750
17,466833	0,5	-0,506800
17,475167	0,5	-0,505550
17,483500	0,5	-0,504550
17,491833	0,5	-0,506200
17,500167	0,5	-0,524400
17,508500	0,5	-0,522000
17,516833	0,5	-0,515150
17,525167	0,5	-0,517450
17,533500	0,5	-0,526750
17,541833	0,5	-0,543250
17,550167	0,5	-0,550050
17,558500	0,5	-0,547850
17,566833	0,5	-0,550550
17,575167	0,5	-0,545150
17,583500	0,5	-0,548150
17,591833	0,5	-0,546750
17,600167	0,5	-0,543650
17,608500	0,5	-0,540550
17,616833	0,5	-0,542100
17,625167	0,5	-0,543350
17,633500	0,5	-0,528500
17,641833	0,5	-0,535550
17,650167	0,5	-0,540950
17,658500	0,5	-0,527900
17,666833	0,5	-0,521650
17,675167	0,5	-0,527800
17,683500	0,5	-0,536000
17,691833	0,5	-0,543900
17,700167	0,5	-0,534050
17,708500	0,5	-0,529650
17,716833	0,5	-0,522250
17,725167	0,5	-0,523650
17,733500	0,5	-0,516150
17,741833	0,5	-0,513650
17,750167	0,5	-0,505250
17,758500	0,5	-0,503950
17,766833	0,5	-0,500350
17,775167	0,5	-0,493900
17,783500	0,5	-0,482900
17,791833	0,5	-0,489700
17,800167	0,5	-0,484700
17,808500	0,5	-0,469600
17,816833	0,5	-0,465500
17,825167	0,5	-0,465050
17,833500	0,5	-0,475850
17,841833	0,5	-0,465900
17,850167	0,5	-0,456850
17,858500	0,5	-0,442000
17,866833	0,5	-0,443500
17,875167	0,5	-0,432400
17,883500	0,5	-0,427700
17,891833	0,5	-0,420050
17,900167	0,5	-0,416000
17,908500	0,5	-0,419700
17,916833	0,5	-0,418900
17,925167	0,5	-0,422650
17,933500	0,5	-0,417700
17,941833	0,5	-0,433150
17,950167	0,5	-0,419800
17,958500	0,5	-0,414150
17,966833	0,5	-0,418300
17,975167	0,5	-0,430600
17,983500	0,5	-0,443750
17,991833	0,5	-0,446150
18,000167	0,5	-0,436000
18,008500	0,5	-0,439550
18,016833	0,5	-0,432950
18,025167	0,5	-0,438650
18,033500	0,5	-0,435250
18,041833	0,5	-0,438400
18,050167	0,5	-0,433600
18,058500	0,5	-0,437550
18,066833	0,5	-0,435150
18,075167	0,5	-0,431800
18,083500	0,5	-0,426500
18,091833	0,5	-0,444650
18,100167	0,5	-0,427600
18,108500	0,5	-0,435300
18,116833	0,5	-0,436500
18,125167	0,5	-0,447450
18,133500	0,5	-0,469000
18,141833	0,5	-0,459700
18,150167	0,5	-0,467050
18,158500	0,5	-0,468300
18,166833	0,5	-0,473800
18,175167	0,5	-0,474250
18,183500	0,5	-0,475650
18,191833	0,5	-0,475250
18,200167	0,5	-0,477850
18,208500	0,5	-0,481950
18,216833	0,5	-0,478800
18,225167	0,5	-0,473600
18,233500	0,5	-0,487200
18,241833	0,5	-0,496150
18,250167	0,5	-0,491100
18,258500	0,5	-0,498700
18,266833	0,5	-0,498950
18,275167	0,5	-0,530350
18,283500	0,5	-0,540650
18,291833	0,5	-0,545550
18,300167	0,5	-0,545450
18,308500	0,5	-0,550050
18,316833	0,5	-0,552300
18,325167	0,5	-0,558550
18,333500	0,5	-0,559300
18,341833	0,5	-0,566550
18,350167	0,5	-0,570550
18,358500	0,5	-0,579450
18,366833	0,5	-0,572500
18,375167	0,5	-0,576650
18,383500	0,5	-0,590750
18,391833	0,5	-0,593600
18,400167	0,5	-0,593650
18,408500	0,5	-0,605350
18,416833	0,5	-0,613350
18,425167	0,5	-0,637100
18,433500	0,5	-0,644750
18,441833	0,5	-0,650000
18,450167	0,5	-0,649300
18,458500	0,5	-0,656050
18,466833	0,5	-0,658550
18,475167	0,5	-0,660650
18,483500	0,5	-0,668300
18,491833	0,5	-0,671450
18,500167	0,5	-0,679300
18,508500	0,5	-0,676400
18,516833	0,5	-0,678050
18,525167	0,5	-0,690000
18,533500	0,5	-0,702800
18,541833	0,5	-0,699250
18,550167	0,5	-0,701700
18,558500	0,5	-0,708950
18,566833	0,5	-0,729550
18,575167	0,5	-0,745100
18,583500	0,5	-0,747800
18,591833	0,5	-0,750250
18,600167	0,5	-0,759550
18,608500	0,5	-0,759700
18,616833	0,5	-0,764250
18,625167	0,5	-0,767450
18,633500	0,5	-0,770400
18,641833	0,5	-0,778800
18,650167	0,5	-0,783150
18,658500	0,5	-0,784750
18,666833	0,5	-0,774450
18,675167	0,5	-0,796450
18,683500	0,5	-0,800500
18,691833	0,5	-0,800250
18,700167	0,5	-0,804650
18,708500	0,5	-0,820650
18,716833	0,5	-0,840650
18,725167	0,5	-0,850950
18,733500	0,5	-0,847800
18,741833	0,5	-0,854500
18,750167	0,5	-0,855350
18,758500	0,5	-0,866550
18,766833	0,5	-0,866700
18,775167	0,5	-0,873950
18,783500	0,5	-0,876250
18,791833	0,5	-0,880350
18,800167	0,5	-0,887150
18,808500	0,5	-0,879300
18,816833	0,5	-0,876500
18,825167	0,5	-0,903500
18,833500	0,5	-0,892450
18,841833	0,5	-0,896900
18,850167	0,5	-0,902950
18,858500	0,5	-0,910300
18,866833	0,5	-0,934100
18,875167	0,5	-0,929150
18,883500	0,5	-0,940200
18,891833	0,5	-0,938650
18,900167	0,5	-0,948800
18,908500	0,5	-0,942950
18,916833	0,5	-0,956250
18,925167	0,5	-0,948350
18,933500	0,5	-0,947900
18,941833	0,5	-0,951000
18,950167	0,5	-0,955000
18,958500	0,5	-0,953650
18,966833	0,5	-0,953900
18,975167	0,5	-0,968700
18,983500	0,5	-0,957550
18,991833	0,5	-0,962550
19,000167	0,5	-0,972450
19,008500	0,5	-0,990050
19,016833	0,5	-1,012350
19,025167	0,5	-1,015250
19,033500	0,5	-1,013650
19,041833	0,5	-1,024850
19,050167	0,5	-1,024500
19,058500	0,5	-1,036950
19,066833	0,5	-1,036800
19,075167	0,5	-1,046550
19,083500	0,5	-1,048300
19,091833	0,5	-1,058950
19,100167	0,5	-1,064900
19,108500	0,5	-1,070100
19,116833	0,5	-1,085200
19,125167	0,5	-1,095200
19,133500	0,5	-1,091150
19,141833	0,5	-1,099900
19,150167	0,5	-1,114000
19,158500	0,5	-1,130800
19,166833	0,5	-1,153000
19,175167	0,5	-1,148600
19,183500	0,5	-1,156600
19,191833	0,5	-1,163250
19,200167	0,5	-1,175700
19,208500	0,5	-1,177100
19,216833	0,5	-1,186900
19,225167	0,5	-1,183350
19,233500	0,5	-1,196100
19,241833	0,5	-1,198100
19,250167	0,5	-1,193350
19,258500	0,5	-1,193100
19,266833	0,5	-1,214850
19,275167	0,5	-1,206700
19,283500	0,5	-1,211200
19,291833	0,5	-1,218850
19,300167	0,5	-1,238050
19,308500	0,5	-1,255800
19,316833	0,5	-1,255950
19,325167	0,5	-1,260450
19,333500	0,5	-1,256400
19,341833	0,5	-1,261050
19,350167	0,5	-1,258100
19,358500	0,5	-1,264650
19,366833	0,5	-1,256650
19,375167	0,5	-1,266250
19,383500	0,5	-1,271850
19,391833	0,5	-1,279000
19,400167	0,5	-1,271100
19,408500	0,5	-1,287150
19,416833	0,5	-1,292450
19,425167	0,5	-1,288900
19,433500	0,5	-1,298250
19,441833	0,5	-1,309750
19,450167	0,5	-1,334600
19,458500	0,5	-1,344100
19,466833	0,5	-1,347500
19,475167	0,5	-1,345000
19,483500	0,5	-1,349750
19,491833	0,5	-1,355250
19,500167	0,5	-1,355500
19,508500	0,5	-1,357450
19,516833	0,5	-1,360650
19,525167	0,5	-1,360950
19,533500	0,5	-1,368350
19,541833	0,5	-1,361100
19,550167	0,5	-1,364200
19,558500	0,5	-1,382750
19,566833	0,5	-1,388100
19,575167	0,5	-1,380100
19,583500	0,5	-1,390200
19,591833	0,5	-1,398900
19,600167	0,5	-1,420850
19,608500	0,5	-1,429500
19,616833	0,5	-1,428250
19,625167	0,5	-1,426850
19,633500	0,5	-1,433950
19,641833	0,5	-1,435200
19,650167	0,5	-1,437000
19,658500	0,5	-1,442100
19,666833	0,5	-1,441300
19,675167	0,5	-1,453450
19,683500	0,5	-1,455250
19,691833	0,5	-1,452700
19,700167	0,5	-1,451150
19,708500	0,5	-1,479900
19,716833	0,5	-1,462850
19,725167	0,5	-1,469250
19,733500	0,5	-1,475550
19,741833	0,5	-1,493500
19,750167	0,5	-1,513400
19,758500	0,5	-1,505900
19,766833	0,5	-1,504400
19,775167	0,5	-1,514550
19,783500	0,5	-1,516950
19,791833	0,5	-1,519600
19,800167	0,5	-1,521950
19,808500	0,5	-1,523150
19,816833	0,5	-1,528500
19,825167	0,5	-1,527950
19,833500	0,5	-1,531000
19,841833	0,5	-1,518400
19,850167	0,5	-1,529400
19,858500	0,5	-1,539400
19,866833	0,5	-1,533300
19,875167	0,5	-1,534100
19,883500	0,5	-1,548950
19,891833	0,5	-1,561200
19,900167	0,5	-1,576950
19,908500	0,5	-1,570350
19,916833	0,5	-1,577950
19,925167	0,5	-1,581150
19,933500	0,5	-1,586350
19,941833	0,5	-1,587400
19,950167	0,5	-1,588750
19,958500	0,5	-1,588350
19,966833	0,5	-1,591650
19,975167	0,5	-1,596850
19,983500	0,5	-1,590000
19,991833	0,5	-1,586350
20,000167	0,5	-1,598950
20,008500	0,5	-1,601250
20,016833	0,5	-1,593050
20,025167	0,5	-1,600300
20,033500	0,5	-1,611500
20,041833	0,5	-1,635100
20,050167	0,5	-1,639450
20,058500	0,5	-1,645350
20,066833	0,5	-1,642400
20,075167	0,5	-1,645300
20,083500	0,5	-1,648100
20,091833	0,5	-1,652000
20,100167	0,5	-1,651250
20,108500	0,5	-1,656800
20,116833	0,5	-1,663400
20,125167	0,5	-1,663700
20,133500	0,5	-1,662550
20,141833	0,5	-1,668000
20,150167	0,5	-1,682050
20,158500	0,5	-1,678450
20,166833	0,5	-1,685950
20,175167	0,5	-1,690400
20,183500	0,5	-1,711150
20,191833	0,5	-1,720350
20,200167	0,5	-1,732850
20,208500	0,5	-1,721050
20,216833	0,5	-1,720800
20,225167	0,5	-1,719850
20,233500	0,5	-1,725950
20,241833	0,5	-1,721300
20,250167	0,5	-1,719950
20,258500	0,5	-1,719900
20,266833	0,5	-1,718650
20,275167	0,5	-1,711500
20,283500	0,5	-1,698950
20,291833	0,5	-1,707850
20,300167	0,5	-1,707200
20,308500	0,5	-1,697350
20,316833	0,5	-1,694600
20,325167	0,5	-1,699550
20,333500	0,5	-1,713100
20,341833	0,5	-1,722350
20,350167	0,5	-1,715200
20,358500	0,5	-1,716750
20,366833	0,5	-1,709650
20,375167	0,5	-1,711450
20,383500	0,5	-1,706000
20,391833	0,5	-1,705550
20,400167	0,5	-1,703800
20,408500	0,5	-1,702900
20,416833	0,5	-1,706750
20,425167	0,5	-1,691250
20,433500	0,5	-1,682900
20,441833	0,5	-1,700350
20,450167	0,5	-1,691450
20,458500	0,5	-1,687100
20,466833	0,5	-1,694100
20,475167	0,5	-1,697800
20,483500	0,5	-1,713800
20,491833	0,5	-1,704400
20,500167	0,5	-1,709500
20,508500	0,5	-1,699550
20,516833	0,5	-1,704850
20,525167	0,5	-1,696850
20,533500	0,5	-1,701850
20,541833	0,5	-1,690700
20,550167	0,5	-1,690150
20,558500	0,5	-1,680550
20,566833	0,5	-1,671900
20,575167	0,5	-1,651600
20,583500	0,5	-1,650100
20,591833	0,5	-1,649800
20,600167	0,5	-1,645450
20,608500	0,5	-1,641050
20,616833	0,5	-1,650150
20,625167	0,5	-1,665000
20,633500	0,5	-1,672700
20,641833	0,5	-1,673450
20,650167	0,5	-1,676400
20,658500	0,5	-1,684750
20,666833	0,5	-1,683900
20,675167	0,5	-1,686950
20,683500	0,5	-1,686250
20,691833	0,5	-1,690800
20,700167	0,5	-1,691350
20,708500	0,5	-1,696100
20,716833	0,5	-1,683100
20,725167	0,5	-1,675900
20,733500	0,5	-1,684000
20,741833	0,5	-1,692350
20,750167	0,5	-1,695100
20,758500	0,5	-1,697250
20,766833	0,5	-1,709400
20,775167	0,5	-1,731300
20,783500	0,5	-1,728450
20,791833	0,5	-1,718200
20,800167	0,5	-1,726900
20,808500	0,5	-1,723600
20,816833	0,5	-1,725950
20,825167	0,5	-1,722750
20,833500	0,5	-1,722800
20,841833	0,5	-1,719300
20,850167	0,5	-1,720050
20,858500	0,5	-1,719850
20,866833	0,5	-1,687700
20,875167	0,5	-1,678850
20,883500	0,5	-1,692300
20,891833	0,5	-1,683200
20,900167	0,5	-1,686600
20,908500	0,5	-1,691300
20,916833	0,5	-1,703050
20,925167	0,5	-1,715800
20,933500	0,5	-1,701650
20,941833	0,5	-1,698750
20,950167	0,5	-1,694350
20,958500	0,5	-1,694300
20,966833	0,5	-1,685050
20,975167	0,5	-1,681850
20,983500	0,5	-1,671500
20,991833	0,5	-1,666150
21,000167	0,5	-1,661750
21,008500	0,5	-1,644700
21,016833	0,5	-1,620950
21,025167	0,5	-1,612550
21,033500	0,5	-1,612950
21,041833	0,5	-1,610400
21,050167	0,5	-1,612300
21,058500	0,5	-1,625300
21,066833	0,5	-1,642100
21,075167	0,5	-1,643600
21,083500	0,5	-1,644450
21,091833	0,5	-1,635750
21,100167	0,5	-1,633450
21,108500	0,5	-1,626150
21,116833	0,5	-1,626850
21,125167	0,5	-1,619500
21,133500	0,5	-1,615850
21,141833	0,5	-1,607450
21,150167	0,5	-1,609700
21,158500	0,5	-1,579200
21,166833	0,5	-1,566550
21,175167	0,5	-1,571600
21,183500	0,5	-1,572350
21,191833	0,5	-1,574100
21,200167	0,5	-1,583100
21,208500	0,5	-1,590750
21,216833	0,5	-1,598900
21,225167	0,5	-1,600150
21,233500	0,5	-1,585550
21,241833	0,5	-1,580250
21,250167	0,5	-1,572850
21,258500	0,5	-1,569950
21,266833	0,5	-1,560700
21,275167	0,5	-1,552300
21,283500	0,5	-1,541750
21,291833	0,5	-1,540650
21,300167	0,5	-1,521800
21,308500	0,5	-1,495550
21,316833	0,5	-1,480700
21,325167	0,5	-1,482750
21,333500	0,5	-1,475750
21,341833	0,5	-1,477000
21,350167	0,5	-1,472850
21,358500	0,5	-1,486350
21,366833	0,5	-1,484500
21,375167	0,5	-1,472000
21,383500	0,5	-1,467450
21,391833	0,5	-1,456450
21,400167	0,5	-1,450750
21,408500	0,5	-1,434700
21,416833	0,5	-1,425200
21,425167	0,5	-1,412150
21,433500	0,5	-1,405850
21,441833	0,5	-1,396550
21,450167	0,5	-1,361400
21,458500	0,5	-1,335200
21,466833	0,5	-1,334000
21,475167	0,5	-1,324700
21,483500	0,5	-1,321450
21,491833	0,5	-1,319100
21,500167	0,5	-1,319400
21,508500	0,5	-1,322050
21,516833	0,5	-1,302050
21,525167	0,5	-1,292600
21,533500	0,5	-1,278100
21,541833	0,5	-1,267250
21,550167	0,5	-1,245600
21,558500	0,5	-1,231400
21,566833	0,5	-1,208850
21,575167	0,5	-1,195750
21,583500	0,5	-1,173350
21,591833	0,5	-1,140050
21,600167	0,5	-1,088250
21,608500	0,5	-1,055050
21,616833	0,5	-1,031050
21,625167	0,5	-1,004100
21,633500	0,5	-0,984550
21,641833	0,5	-0,988350
21,650167	0,5	-1,001600
21,658500	0,5	-1,007050
21,666833	0,5	-1,006250
21,675167	0,5	-1,011950
21,683500	0,5	-1,007400
21,691833	0,5	-0,990450
21,700167	0,5	-0,979200
21,708500	0,5	-0,958350
21,716833	0,5	-0,945300
21,725167	0,5	-0,928550
21,733500	0,5	-0,917950
21,741833	0,5	-0,882050
21,750167	0,5	-0,854700
21,758500	0,5	-0,846150
21,766833	0,5	-0,827300
21,775167	0,5	-0,807450
21,783500	0,5	-0,784850
21,791833	0,5	-0,775950
21,800167	0,5	-0,763650
21,808500	0,5	-0,733500
21,816833	0,5	-0,699600
21,825167	0,5	-0,669000
21,833500	0,5	-0,637250
21,841833	0,5	-0,609450
21,850167	0,5	-0,576200
21,858500	0,5	-0,553400
21,866833	0,5	-0,518300
21,875167	0,5	-0,491950
21,883500	0,5	-0,462200
21,891833	0,5	-0,423150
21,900167	0,5	-0,403850
21,908500	0,5	-0,394450
21,916833	0,5	-0,365300
21,925167	0,5	-0,352050
21,933500	0,5	-0,333350
21,941833	0,5	-0,320300
21,950167	0,5	-0,306100
21,958500	0,5	-0,271400
21,966833	0,5	-0,246600
21,975167	0,5	-0,214350
21,983500	0,5	-0,187800
21,991833	0,5	-0,153850
22,000167	0,5	-0,130550
22,008500	0,5	-0,094850
22,016833	0,5	-0,064350
22,025167	0,5	-0,025150
22,033500	0,5	0,014650
22,041833	0,5	0,054250
22,050167	0,5	0,076850
22,058500	0,5	0,117550
22,066833	0,5	0,156350
22,075167	0,5	0,188050
22,083500	0,5	0,209500
22,091833	0,5	0,238150
22,100167	0,5	0,278800
22,108500	0,5	0,324800
22,116833	0,5	0,376100
22,125167	0,5	0,420000
22,133500	0,5	0,473250
22,141833	0,5	0,519900
22,150167	0,5	0,581550
22,158500	0,5	0,629700
22,166833	0,5	0,693950
22,175167	0,5	0,750500
22,183500	0,5	0,814500
22,191833	0,5	0,868500
22,200167	0,5	0,944750
22,208500	0,5	1,014400
22,216833	0,5	1,072300
22,225167	0,5	1,125450
22,233500	0,5	1,165150
22,241833	0,5	1,209500
22,250167	0,5	1,262550
22,258500	0,5	1,321450
22,266833	0,5	1,375250
22,275167	0,5	1,430450
22,283500	0,5	1,478650
22,291833	0,5	1,538750
22,300167	0,5	1,590350
22,308500	0,5	1,650950
22,316833	0,5	1,693900
22,325167	0,5	1,737950
22,333500	0,5	1,764200
22,341833	0,5	1,816450
22,350167	0,5	1,886400
22,358500	0,5	1,952150
22,366833	0,5	2,002300
22,375167	0,5	2,059400
22,383500	0,5	2,103450
22,391833	0,5	2,167000
22,400167	0,5	2,231800
22,408500	0,5	2,293700
22,416833	0,5	2,360100
22,425167	0,5	2,428400
22,433500	0,5	2,495200
22,441833	0,5	2,563550
22,450167	0,5	2,638750
22,458500	0,5	2,704000
22,466833	0,5	2,773350
22,475167	0,5	2,808450
22,483500	0,5	2,880700
22,491833	0,5	2,956550
22,500167	0,5	3,051700
22,508500	0,5	3,114650
22,516833	0,5	3,178400
22,525167	0,5	3,222750
22,533500	0,5	3,277700
22,541833	0,5	3,347150
22,550167	0,5	3,407750
22,558500	0,5	3,462550
22,566833	0,5	3,510650
22,575167	0,5	3,558550
22,583500	0,5	3,597100
22,591833	0,5	3,633250
22,600167	0,5	3,657400
22,608500	0,5	3,683250
22,616833	0,5	3,665450
22,625167	0,5	3,663550
22,633500	0,5	3,670050
22,641833	0,5	3,697550
22,650167	0,5	3,691400
22,658500	0,5	3,673800
22,666833	0,5	3,636100
22,675167	0,5	3,594650
22,683500	0,5	3,554600
22,691833	0,5	3,513000
22,700167	0,5	3,466150
22,708500	0,5	3,415350
22,716833	0,5	3,361100
22,725167	0,5	3,303050
22,733500	0,5	3,249100
22,741833	0,5	3,187800
22,750167	0,5	3,129300
22,758500	0,5	3,060100
22,766833	0,5	2,921750
22,775167	0,5	2,845400
22,783500	0,5	2,759350
22,791833	0,5	2,654750
22,800167	0,5	2,519900
22,808500	0,5	2,374700
22,816833	0,5	2,220150
22,825167	0,5	2,061400
22,833500	0,5	1,907700
22,841833	0,5	1,751100
22,850167	0,5	1,597650
22,858500	0,5	1,446900
22,866833	0,5	1,298400
22,875167	0,5	1,145750
22,883500	0,5	0,995150
22,891833	0,5	0,839750
22,900167	0,5	0,692300
22,908500	0,5	0,544350
22,916833	0,5	0,349050
22,925167	0,5	0,225950
22,933500	0,5	0,087200
22,941833	0,5	-0,084250
22,950167	0,5	-0,225100
22,958500	0,5	-0,367100
22,966833	0,5	-0,497650
22,975167	0,5	-0,627300
22,983500	0,5	-0,760900
22,991833	0,5	-0,883400
23,000167	0,5	-0,991900
23,008500	0,5	-1,102700
23,016833	0,5	-1,207100
23,025167	0,5	-1,308250
23,033500	0,5	-1,415700
23,041833	0,5	-1,504950
23,050167	0,5	-1,605350
23,058500	0,5	-1,673000
23,066833	0,5	-1,772700
23,075167	0,5	-1,850600
23,083500	0,5	-1,960400
23,091833	0,5	-2,049200
23,100167	0,5	-2,117000
23,108500	0,5	-2,169350
23,116833	0,5	-2,222950
23,125167	0,5	-2,266200
23,133500	0,5	-2,315850
23,141833	0,5	-2,351000
23,150167	0,5	-2,386450
23,158500	0,5	-2,414550
23,166833	0,5	-2,442050
23,175167	0,5	-2,470150
23,183500	0,5	-2,493450
23,191833	0,5	-2,517350
23,200167	0,5	-2,533800
23,208500	0,5	-2,572650
23,216833	0,5	-2,585550
23,225167	0,5	-2,573150
23,233500	0,5	-2,622950
23,241833	0,5	-2,652900
23,250167	0,5	-2,656200
23,258500	0,5	-2,656350
23,266833	0,5	-2,645200
23,275167	0,5	-2,645800
23,283500	0,5	-2,630250
23,291833	0,5	-2,619450
23,300167	0,5	-2,597200
23,308500	0,5	-2,581200
23,316833	0,5	-2,560100
23,325167	0,5	-2,543700
23,333500	0,5	-2,522800
23,341833	0,5	-2,502700
23,350167	0,5	-2,483750
23,358500	0,5	-2,516850
23,366833	0,5	-2,477750
23,375167	0,5	-2,426700
23,383500	0,5	-2,434050
23,391833	0,5	-2,437100
23,400167	0,5	-2,421500
23,408500	0,5	-2,396550
23,416833	0,5	-2,381600
23,425167	0,5	-2,360350
23,433500	0,5	-2,342200
23,441833	0,5	-2,310300
23,450167	0,5	-2,284500
23,458500	0,5	-2,255650
23,466833	0,5	-2,230550
23,475167	0,5	-2,199550
23,483500	0,5	-2,173700
23,491833	0,5	-2,145300
23,500167	0,5	-2,204400
23,508500	0,5	-2,163750
23,516833	0,5	-2,121950
23,525167	0,5	-2,066400
23,533500	0,5	-2,056600
23,541833	0,5	-2,052800
23,550167	0,5	-2,040800
23,558500	0,5	-2,026250
23,566833	0,5	-2,015800
23,575167	0,5	-2,004300
23,583500	0,5	-1,991150
23,591833	0,5	-1,979100
23,600167	0,5	-1,967850
23,608500	0,5	-1,954000
23,616833	0,5	-1,941600
23,625167	0,5	-1,934450
23,633500	0,5	-1,922950
23,641833	0,5	-1,919950
23,650167	0,5	-2,038550
23,658500	0,5	-1,975950
23,666833	0,5	-1,951500
23,675167	0,5	-1,893550
23,683500	0,5	-1,888650
23,691833	0,5	-1,885400
23,700167	0,5	-1,882850
23,708500	0,5	-1,882450
23,716833	0,5	-1,868750
23,725167	0,5	-1,863900
23,733500	0,5	-1,854650
23,741833	0,5	-1,853100
23,750167	0,5	-1,849650
23,758500	0,5	-1,845350
23,766833	0,5	-1,842700
23,775167	0,5	-1,840850
23,783500	0,5	-1,840550
23,791833	0,5	-1,921250
23,800167	0,5	-1,988000
23,808500	0,5	-1,961200
23,816833	0,5	-1,915050
23,825167	0,5	-1,880750
23,833500	0,5	-1,879400
23,841833	0,5	-1,884150
23,850167	0,5	-1,893000
23,858500	0,5	-1,900050
23,866833	0,5	-1,894900
23,875167	0,5	-1,888950
23,883500	0,5	-1,882000
23,891833	0,5	-1,872750
23,900167	0,5	-1,865400
23,908500	0,5	-1,855850
23,916833	0,5	-1,848600
23,925167	0,5	-1,838500
23,933500	0,5	-1,840100
23,941833	0,5	-1,975050
23,950167	0,5	-1,972550
23,958500	0,5	-1,922150
23,966833	0,5	-1,875100
23,975167	0,5	-1,844200
23,983500	0,5	-1,840850
23,991833	0,5	-1,841450
24,000167	0,5	-1,849200
24,008500	0,5	-1,854400
24,016833	0,5	-1,845250
24,025167	0,5	-1,832200
24,033500	0,5	-1,828700
24,041833	0,5	-1,815650
24,050167	0,5	-1,813850
24,058500	0,5	-1,802250
24,066833	0,5	-1,792100
24,075167	0,5	-1,784350
24,083500	0,5	-1,787800
24,091833	0,5	-1,912150
24,100167	0,5	-1,876950
24,108500	0,5	-1,837350
24,116833	0,5	-1,781500
24,125167	0,5	-1,754650
24,133500	0,5	-1,742450
24,141833	0,5	-1,739350
24,150167	0,5	-1,735650
24,158500	0,5	-1,723750
24,166833	0,5	-1,701700
24,175167	0,5	-1,689500
24,183500	0,5	-1,666800
24,191833	0,5	-1,650100
24,200167	0,5	-1,634250
24,208500	0,5	-1,617450
24,216833	0,5	-1,602750
24,225167	0,5	-1,590250
24,233500	0,5	-1,656850
24,241833	0,5	-1,684500
24,250167	0,5	-1,662600
24,258500	0,5	-1,614550
24,266833	0,5	-1,577800
24,275167	0,5	-1,555250
24,283500	0,5	-1,544700
24,291833	0,5	-1,546150
24,300167	0,5	-1,540950
24,308500	0,5	-1,518000
24,316833	0,5	-1,506300
24,325167	0,5	-1,487600
24,333500	0,5	-1,476650
24,341833	0,5	-1,456950
24,350167	0,5	-1,438050
24,358500	0,5	-1,418400
24,366833	0,5	-1,403350
24,375167	0,5	-1,388450
24,383500	0,5	-1,461850
24,391833	0,5	-1,433750
24,400167	0,5	-1,413450
24,408500	0,5	-1,363600
24,416833	0,5	-1,333000
24,425167	0,5	-1,310850
24,433500	0,5	-1,301100
24,441833	0,5	-1,303200
24,450167	0,5	-1,284050
24,458500	0,5	-1,273200
24,466833	0,5	-1,253850
24,475167	0,5	-1,246400
24,483500	0,5	-1,226550
24,491833	0,5	-1,216150
24,500167	0,5	-1,198050
24,508500	0,5	-1,187750
24,516833	0,5	-1,170700
24,525167	0,5	-1,175500
24,533500	0,5	-1,230950
24,541833	0,5	-1,201700
24,550167	0,5	-1,177700
24,558500	0,5	-1,141450
24,566833	0,5	-1,116800
24,575167	0,5	-1,105800
24,583500	0,5	-1,096750
24,591833	0,5	-1,097600
24,600167	0,5	-1,079850
24,608500	0,5	-1,059950
24,616833	0,5	-1,045500
24,625167	0,5	-1,028150
24,633500	0,5	-1,015550
24,641833	0,5	-0,998400
24,650167	0,5	-0,986400
24,658500	0,5	-0,965600
24,666833	0,5	-0,960950
24,675167	0,5	-0,981650
24,683500	0,5	-0,990150
24,691833	0,5	-0,963200
24,700167	0,5	-0,946300
24,708500	0,5	-0,915900
24,716833	0,5	-0,909700
24,725167	0,5	-0,899600
24,733500	0,5	-0,899050
24,741833	0,5	-0,895200
24,750167	0,5	-0,880000
24,758500	0,5	-0,871900
24,766833	0,5	-0,860500
24,775167	0,5	-0,852450
24,783500	0,5	-0,840750
24,791833	0,5	-0,828800
24,800167	0,5	-0,816750
24,808500	0,5	-0,804400
24,816833	0,5	-0,792600
24,825167	0,5	-0,821000
24,833500	0,5	-0,806500
24,841833	0,5	-0,789500
24,850167	0,5	-0,767450
24,858500	0,5	-0,749100
24,866833	0,5	-0,736300
24,875167	0,5	-0,731900
24,883500	0,5	-0,729200
24,891833	0,5	-0,724050
24,900167	0,5	-0,713600
24,908500	0,5	-0,706550
24,916833	0,5	-0,696750
24,925167	0,5	-0,686750
24,933500	0,5	-0,678900
24,941833	0,5	-0,667650
24,950167	0,5	-0,660750
24,958500	0,5	-0,654350
24,966833	0,5	-0,652150
24,975167	0,5	-0,665850
24,983500	0,5	-0,653100
24,991833	0,5	-0,643150
25,000167	0,5	-0,630300
25,008500	0,5	-0,619450
25,016833	0,5	-0,614450
25,025167	0,5	-0,610800
25,033500	0,5	-0,608050
25,041833	0,5	-0,597800
25,050167	0,5	-0,592950
25,058500	0,5	-0,583650
25,066833	0,5	-0,575400
25,075167	0,5	-0,563950
25,083500	0,5	-0,559950
25,091833	0,5	-0,550750
25,100167	0,5	-0,541500
25,108500	0,5	-0,535250
25,116833	0,5	-0,534850
25,125167	0,5	-0,532050
25,133500	0,5	-0,525750
25,141833	0,5	-0,519250
25,150167	0,5	-0,512400
25,158500	0,5	-0,504750
25,166833	0,5	-0,501950
25,175167	0,5	-0,498300
25,183500	0,5	-0,497750
25,191833	0,5	-0,497350
25,200167	0,5	-0,493700
25,208500	0,5	-0,489200
25,216833	0,5	-0,485950
25,225167	0,5	-0,480500
25,233500	0,5	-0,476850
25,241833	0,5	-0,470650
25,250167	0,5	-0,465450
25,258500	0,5	-0,459650
25,266833	0,5	-0,458850
25,275167	0,5	-0,453500
25,283500	0,5	-0,445750
25,291833	0,5	-0,440750
25,300167	0,5	-0,438700
25,308500	0,5	-0,431650
25,316833	0,5	-0,430000
25,325167	0,5	-0,425250
25,333500	0,5	-0,425700
25,341833	0,5	-0,422550
25,350167	0,5	-0,421600
25,358500	0,5	-0,414750
25,366833	0,5	-0,417350
25,375167	0,5	-0,411900
25,383500	0,5	-0,407700
25,391833	0,5	-0,407350
25,400167	0,5	-0,404700
25,408500	0,5	-0,403800
25,416833	0,5	-0,396150
25,425167	0,5	-0,395100
25,433500	0,5	-0,391200
25,441833	0,5	-0,393950
25,450167	0,5	-0,392150
25,458500	0,5	-0,388550
25,466833	0,5	-0,384750
25,475167	0,5	-0,380050
25,483500	0,5	-0,380000
25,491833	0,5	-0,377050
25,500167	0,5	-0,372800
25,508500	0,5	-0,371200
25,516833	0,5	-0,368650
25,525167	0,5	-0,366900
25,533500	0,5	-0,363950
25,541833	0,5	-0,361400
25,550167	0,5	-0,359000
25,558500	0,5	-0,354500
25,566833	0,5	-0,349850
25,575167	0,5	-0,344550
25,583500	0,5	-0,346150
25,591833	0,5	-0,351250
25,600167	0,5	-0,351250
25,608500	0,5	-0,350900
25,616833	0,5	-0,349500
25,625167	0,5	-0,344450
25,633500	0,5	-0,344850
25,641833	0,5	-0,346050
25,650167	0,5	-0,342850
25,658500	0,5	-0,340850
25,666833	0,5	-0,339050
25,675167	0,5	-0,333700
25,683500	0,5	-0,331700
25,691833	0,5	-0,325250
25,700167	0,5	-0,321100
25,708500	0,5	-0,308800
25,716833	0,5	-0,302750
25,725167	0,5	-0,301500
25,733500	0,5	-0,303000
25,741833	0,5	-0,307150
25,750167	0,5	-0,302300
25,758500	0,5	-0,301100
25,766833	0,5	-0,296350
25,775167	0,5	-0,289300
25,783500	0,5	-0,290400
25,791833	0,5	-0,292650
25,800167	0,5	-0,290800
25,808500	0,5	-0,290200
25,816833	0,5	-0,287800
25,825167	0,5	-0,288500
25,833500	0,5	-0,289050
25,841833	0,5	-0,287600
25,850167	0,5	-0,289200
25,858500	0,5	-0,275300
25,866833	0,5	-0,276150
25,875167	0,5	-0,270650
25,883500	0,5	-0,276950
25,891833	0,5	-0,278300
25,900167	0,5	-0,277550
25,908500	0,5	-0,272550
25,916833	0,5	-0,263150
25,925167	0,5	-0,257150
25,933500	0,5	-0,261700
25,941833	0,5	-0,259400
25,950167	0,5	-0,260850
25,958500	0,5	-0,256850
25,966833	0,5	-0,258050
25,975167	0,5	-0,259750
25,983500	0,5	-0,260000
25,991833	0,5	-0,256100
26,000167	0,5	-0,249550
