File Path	chrom://chromeleon01/ikbm_chromeleon/2022/ICS-5000/ED1/Esteban/20220612_Cell_7_4_eg.seq/986.smp/ED_1.channel/ED_1.chm
Channel	ED_1

Injection Information:
Data Vault	ikbm_chromeleon
Injection	CelS2_24h-NT_NA
Injection Number	49
Position	GA2
Comment	
Processing Method	Stop sequence after Cell Death
Instrument Method	ICS5000_PA200_FullNative_Ox_26min_ED1
Type	Unknown
Status	Finished
Injection Date	13.06.2022
Injection Time	14:56:05
Injection Volume (µl)	5,0
Dilution Factor	1,0000
Weight	1,0000

Chromatogram Data Information:
Time Min. (min)	0,000167
Time Max. (min)	26,000167
Data Points	3121
Detector	EDet1
Generating Data System	Chromeleon 7.2.9.11323
Exporting Data System	Chromeleon 7.2.9.0
Operator	Instrument Controller
Signal Quantity	
Signal Unit	nC
Signal Min.	-2,040450
Signal Max.	8,100600
Channel	ED_1
Driver Name	DC-5000
Channel Type	Evaluation
Min. Step (s)	0,5
Max. Step (s)	0,5
Average Step (s)	0,5

Signal Parameter Information:
Signal Info	

Chromatogram Data:
Time (min)	Step (s)	Value (nC)
0,000167	n.a.	-0,025850
0,008500	0,5	-0,037300
0,016833	0,5	-0,031900
0,025167	0,5	-0,024600
0,033500	0,5	0,008250
0,041833	0,5	0,012000
0,050167	0,5	0,012900
0,058500	0,5	0,011300
0,066833	0,5	0,021450
0,075167	0,5	0,016400
0,083500	0,5	0,017850
0,091833	0,5	0,014150
0,100167	0,5	0,009100
0,108500	0,5	0,007150
0,116833	0,5	0,007850
0,125167	0,5	0,003650
0,133500	0,5	0,005050
0,141833	0,5	0,017900
0,150167	0,5	-0,004050
0,158500	0,5	-0,000500
0,166833	0,5	-0,001650
0,175167	0,5	0,014700
0,183500	0,5	0,028850
0,191833	0,5	0,029400
0,200167	0,5	0,021800
0,208500	0,5	0,027100
0,216833	0,5	0,016950
0,225167	0,5	0,017500
0,233500	0,5	0,012500
0,241833	0,5	0,011750
0,250167	0,5	0,009900
0,258500	0,5	0,016850
0,266833	0,5	0,010950
0,275167	0,5	0,004350
0,283500	0,5	0,013000
0,291833	0,5	0,019000
0,300167	0,5	0,003800
0,308500	0,5	0,005600
0,316833	0,5	0,000100
0,325167	0,5	0,004000
0,333500	0,5	0,017650
0,341833	0,5	0,009450
0,350167	0,5	0,017200
0,358500	0,5	0,011700
0,366833	0,5	0,015300
0,375167	0,5	0,008750
0,383500	0,5	0,014450
0,391833	0,5	0,002850
0,400167	0,5	0,008150
0,408500	0,5	0,005100
0,416833	0,5	-0,004750
0,425167	0,5	-0,008150
0,433500	0,5	0,010100
0,441833	0,5	-0,000800
0,450167	0,5	-0,007750
0,458500	0,5	-0,005000
0,466833	0,5	0,000250
0,475167	0,5	0,021500
0,483500	0,5	0,019300
0,491833	0,5	0,025200
0,500167	0,5	0,022700
0,508500	0,5	0,019450
0,516833	0,5	0,019750
0,525167	0,5	0,017500
0,533500	0,5	0,013400
0,541833	0,5	0,015800
0,550167	0,5	0,013250
0,558500	0,5	0,019550
0,566833	0,5	0,005250
0,575167	0,5	0,019000
0,583500	0,5	0,028350
0,591833	0,5	0,015600
0,600167	0,5	0,004550
0,608500	0,5	0,011550
0,616833	0,5	0,022150
0,625167	0,5	0,035750
0,633500	0,5	0,033300
0,641833	0,5	0,038950
0,650167	0,5	0,038450
0,658500	0,5	0,035050
0,666833	0,5	0,034350
0,675167	0,5	0,029850
0,683500	0,5	0,031000
0,691833	0,5	0,025750
0,700167	0,5	0,032850
0,708500	0,5	0,032000
0,716833	0,5	0,027600
0,725167	0,5	0,035450
0,733500	0,5	0,041250
0,741833	0,5	0,026850
0,750167	0,5	0,024200
0,758500	0,5	0,027850
0,766833	0,5	0,049150
0,775167	0,5	0,051600
0,783500	0,5	0,046000
0,791833	0,5	0,042600
0,800167	0,5	0,054000
0,808500	0,5	0,049350
0,816833	0,5	0,049550
0,825167	0,5	0,047950
0,833500	0,5	0,049100
0,841833	0,5	0,046900
0,850167	0,5	0,043800
0,858500	0,5	0,056750
0,866833	0,5	0,039850
0,875167	0,5	0,059900
0,883500	0,5	0,051700
0,891833	0,5	0,044950
0,900167	0,5	0,040800
0,908500	0,5	0,049950
0,916833	0,5	0,059950
0,925167	0,5	0,076650
0,933500	0,5	0,066050
0,941833	0,5	0,071850
0,950167	0,5	0,067050
0,958500	0,5	0,076300
0,966833	0,5	0,066400
0,975167	0,5	0,068050
0,983500	0,5	0,068150
0,991833	0,5	0,065950
1,000167	0,5	0,072550
1,008500	0,5	0,062500
1,016833	0,5	0,059100
1,025167	0,5	0,081650
1,033500	0,5	0,060950
1,041833	0,5	0,059400
1,050167	0,5	0,063750
1,058500	0,5	0,072250
1,066833	0,5	0,095250
1,075167	0,5	0,086850
1,083500	0,5	0,092000
1,091833	0,5	0,085400
1,100167	0,5	0,087950
1,108500	0,5	0,080400
1,116833	0,5	0,091850
1,125167	0,5	0,080850
1,133500	0,5	0,082100
1,141833	0,5	0,080650
1,150167	0,5	0,078800
1,158500	0,5	0,074650
1,166833	0,5	0,081750
1,175167	0,5	0,088250
1,183500	0,5	0,070700
1,191833	0,5	0,070100
1,200167	0,5	0,066700
1,208500	0,5	0,080650
1,216833	0,5	0,097350
1,225167	0,5	0,100950
1,233500	0,5	0,086400
1,241833	0,5	0,089950
1,250167	0,5	0,081000
1,258500	0,5	0,082300
1,266833	0,5	0,075500
1,275167	0,5	0,069350
1,283500	0,5	0,066250
1,291833	0,5	0,067650
1,300167	0,5	0,063750
1,308500	0,5	0,067050
1,316833	0,5	0,072000
1,325167	0,5	0,065950
1,333500	0,5	0,042950
1,341833	0,5	0,044100
1,350167	0,5	0,040850
1,358500	0,5	0,048800
1,366833	0,5	0,059600
1,375167	0,5	0,056200
1,383500	0,5	0,049350
1,391833	0,5	0,041050
1,400167	0,5	0,040400
1,408500	0,5	0,034650
1,416833	0,5	0,033250
1,425167	0,5	0,020850
1,433500	0,5	0,021250
1,441833	0,5	0,014400
1,450167	0,5	0,003750
1,458500	0,5	-0,002700
1,466833	0,5	0,015200
1,475167	0,5	-0,002800
1,483500	0,5	-0,013100
1,491833	0,5	-0,015350
1,500167	0,5	-0,008200
1,508500	0,5	-0,001450
1,516833	0,5	-0,005550
1,525167	0,5	-0,014000
1,533500	0,5	-0,015550
1,541833	0,5	-0,025300
1,550167	0,5	-0,033900
1,558500	0,5	-0,082150
1,566833	0,5	-0,252250
1,575167	0,5	-0,685050
1,583500	0,5	-1,287650
1,591833	0,5	-1,628550
1,600167	0,5	-1,340450
1,608500	0,5	-0,432200
1,616833	0,5	0,865700
1,625167	0,5	2,341600
1,633500	0,5	3,648000
1,641833	0,5	4,387350
1,650167	0,5	4,450800
1,658500	0,5	4,123850
1,666833	0,5	3,724400
1,675167	0,5	3,504050
1,683500	0,5	3,554050
1,691833	0,5	4,031000
1,700167	0,5	5,124400
1,708500	0,5	6,744200
1,716833	0,5	8,008950
1,725167	0,5	8,100600
1,733500	0,5	7,141750
1,741833	0,5	5,858450
1,750167	0,5	4,774700
1,758500	0,5	4,088900
1,766833	0,5	3,795100
1,775167	0,5	3,772100
1,783500	0,5	3,875650
1,791833	0,5	3,967800
1,800167	0,5	3,967950
1,808500	0,5	3,844300
1,816833	0,5	3,626750
1,825167	0,5	3,369900
1,833500	0,5	3,125800
1,841833	0,5	2,880950
1,850167	0,5	2,666950
1,858500	0,5	2,455850
1,866833	0,5	2,268850
1,875167	0,5	2,102550
1,883500	0,5	1,964150
1,891833	0,5	1,861750
1,900167	0,5	1,762700
1,908500	0,5	1,707550
1,916833	0,5	1,664200
1,925167	0,5	1,672550
1,933500	0,5	1,788900
1,941833	0,5	2,028700
1,950167	0,5	2,388000
1,958500	0,5	2,825750
1,966833	0,5	3,226250
1,975167	0,5	3,374450
1,983500	0,5	3,064000
1,991833	0,5	2,496200
2,000167	0,5	1,968850
2,008500	0,5	1,643000
2,016833	0,5	1,494650
2,025167	0,5	1,452400
2,033500	0,5	1,427350
2,041833	0,5	1,396450
2,050167	0,5	1,356600
2,058500	0,5	1,358500
2,066833	0,5	1,342750
2,075167	0,5	1,360050
2,083500	0,5	1,383550
2,091833	0,5	1,429800
2,100167	0,5	1,487150
2,108500	0,5	1,523450
2,116833	0,5	1,548200
2,125167	0,5	1,563800
2,133500	0,5	1,590850
2,141833	0,5	1,621450
2,150167	0,5	1,671300
2,158500	0,5	1,730850
2,166833	0,5	1,800850
2,175167	0,5	1,862950
2,183500	0,5	1,927450
2,191833	0,5	1,978250
2,200167	0,5	2,055800
2,208500	0,5	2,136950
2,216833	0,5	2,214200
2,225167	0,5	2,312400
2,233500	0,5	2,422950
2,241833	0,5	2,561450
2,250167	0,5	2,709050
2,258500	0,5	2,863150
2,266833	0,5	3,032050
2,275167	0,5	3,222750
2,283500	0,5	3,401250
2,291833	0,5	3,515900
2,300167	0,5	3,530100
2,308500	0,5	3,502900
2,316833	0,5	3,488450
2,325167	0,5	3,528250
2,333500	0,5	3,590350
2,341833	0,5	3,672550
2,350167	0,5	3,771400
2,358500	0,5	3,871750
2,366833	0,5	3,972150
2,375167	0,5	4,111350
2,383500	0,5	4,281550
2,391833	0,5	4,510150
2,400167	0,5	4,752750
2,408500	0,5	4,990800
2,416833	0,5	5,194550
2,425167	0,5	5,355900
2,433500	0,5	5,457350
2,441833	0,5	5,506200
2,450167	0,5	5,525850
2,458500	0,5	5,516050
2,466833	0,5	5,514250
2,475167	0,5	5,511300
2,483500	0,5	5,538850
2,491833	0,5	5,607550
2,500167	0,5	5,790000
2,508500	0,5	6,099300
2,516833	0,5	6,604650
2,525167	0,5	7,214400
2,533500	0,5	7,716400
2,541833	0,5	7,875650
2,550167	0,5	7,629350
2,558500	0,5	7,119800
2,566833	0,5	6,582600
2,575167	0,5	6,138500
2,583500	0,5	5,824300
2,591833	0,5	5,606150
2,600167	0,5	5,465950
2,608500	0,5	5,359650
2,616833	0,5	5,277800
2,625167	0,5	5,209050
2,633500	0,5	5,137550
2,641833	0,5	5,086250
2,650167	0,5	5,047100
2,658500	0,5	4,985200
2,666833	0,5	4,932150
2,675167	0,5	4,891300
2,683500	0,5	4,852650
2,691833	0,5	4,824900
2,700167	0,5	4,774800
2,708500	0,5	4,737800
2,716833	0,5	4,698600
2,725167	0,5	4,672750
2,733500	0,5	4,665150
2,741833	0,5	4,705500
2,750167	0,5	4,778800
2,758500	0,5	4,880100
2,766833	0,5	4,968550
2,775167	0,5	4,981600
2,783500	0,5	4,885650
2,791833	0,5	4,722250
2,800167	0,5	4,497850
2,808500	0,5	4,262800
2,816833	0,5	4,059100
2,825167	0,5	3,894600
2,833500	0,5	3,772850
2,841833	0,5	3,664950
2,850167	0,5	3,565700
2,858500	0,5	3,483300
2,866833	0,5	3,419200
2,875167	0,5	3,358300
2,883500	0,5	3,300300
2,891833	0,5	3,234450
2,900167	0,5	3,163750
2,908500	0,5	3,079750
2,916833	0,5	2,992600
2,925167	0,5	2,905050
2,933500	0,5	2,813250
2,941833	0,5	2,741900
2,950167	0,5	2,648000
2,958500	0,5	2,569550
2,966833	0,5	2,492550
2,975167	0,5	2,420450
2,983500	0,5	2,365200
2,991833	0,5	2,302450
3,000167	0,5	2,231900
3,008500	0,5	2,165950
3,016833	0,5	2,103900
3,025167	0,5	2,048100
3,033500	0,5	1,985400
3,041833	0,5	1,925500
3,050167	0,5	1,856900
3,058500	0,5	1,803300
3,066833	0,5	1,740450
3,075167	0,5	1,678800
3,083500	0,5	1,609250
3,091833	0,5	1,561850
3,100167	0,5	1,492500
3,108500	0,5	1,438250
3,116833	0,5	1,379250
3,125167	0,5	1,341850
3,133500	0,5	1,307350
3,141833	0,5	1,257600
3,150167	0,5	1,213900
3,158500	0,5	1,173400
3,166833	0,5	1,133500
3,175167	0,5	1,093100
3,183500	0,5	1,056150
3,191833	0,5	1,014350
3,200167	0,5	0,973900
3,208500	0,5	0,924600
3,216833	0,5	0,880600
3,225167	0,5	0,829800
3,233500	0,5	0,795300
3,241833	0,5	0,759200
3,250167	0,5	0,714350
3,258500	0,5	0,679200
3,266833	0,5	0,651800
3,275167	0,5	0,631800
3,283500	0,5	0,619250
3,291833	0,5	0,585600
3,300167	0,5	0,559000
3,308500	0,5	0,526250
3,316833	0,5	0,500250
3,325167	0,5	0,469000
3,333500	0,5	0,433550
3,341833	0,5	0,406000
3,350167	0,5	0,378750
3,358500	0,5	0,358200
3,366833	0,5	0,334750
3,375167	0,5	0,316850
3,383500	0,5	0,312650
3,391833	0,5	0,299250
3,400167	0,5	0,272450
3,408500	0,5	0,261800
3,416833	0,5	0,252750
3,425167	0,5	0,258000
3,433500	0,5	0,252650
3,441833	0,5	0,251250
3,450167	0,5	0,240400
3,458500	0,5	0,233550
3,466833	0,5	0,222600
3,475167	0,5	0,211800
3,483500	0,5	0,199750
3,491833	0,5	0,183350
3,500167	0,5	0,170050
3,508500	0,5	0,154000
3,516833	0,5	0,134300
3,525167	0,5	0,115400
3,533500	0,5	0,107950
3,541833	0,5	0,083050
3,550167	0,5	0,066700
3,558500	0,5	0,052050
3,566833	0,5	0,048250
3,575167	0,5	0,046400
3,583500	0,5	0,039200
3,591833	0,5	0,030700
3,600167	0,5	0,032900
3,608500	0,5	0,037300
3,616833	0,5	0,049200
3,625167	0,5	0,066000
3,633500	0,5	0,101350
3,641833	0,5	0,151800
3,650167	0,5	0,219750
3,658500	0,5	0,296950
3,666833	0,5	0,371750
3,675167	0,5	0,452200
3,683500	0,5	0,536650
3,691833	0,5	0,584750
3,700167	0,5	0,634550
3,708500	0,5	0,692350
3,716833	0,5	0,759600
3,725167	0,5	0,843250
3,733500	0,5	0,908550
3,741833	0,5	0,966350
3,750167	0,5	0,982600
3,758500	0,5	0,961850
3,766833	0,5	0,878600
3,775167	0,5	0,764500
3,783500	0,5	0,615850
3,791833	0,5	0,470950
3,800167	0,5	0,338050
3,808500	0,5	0,216900
3,816833	0,5	0,114500
3,825167	0,5	0,053150
3,833500	0,5	0,002900
3,841833	0,5	-0,039350
3,850167	0,5	-0,066250
3,858500	0,5	-0,073300
3,866833	0,5	-0,071850
3,875167	0,5	-0,073400
3,883500	0,5	-0,077000
3,891833	0,5	-0,077800
3,900167	0,5	-0,070850
3,908500	0,5	-0,070350
3,916833	0,5	-0,072850
3,925167	0,5	-0,079350
3,933500	0,5	-0,088050
3,941833	0,5	-0,098800
3,950167	0,5	-0,108600
3,958500	0,5	-0,123900
3,966833	0,5	-0,139250
3,975167	0,5	-0,141600
3,983500	0,5	-0,154150
3,991833	0,5	-0,166750
4,000167	0,5	-0,171450
4,008500	0,5	-0,173050
4,016833	0,5	-0,165300
4,025167	0,5	-0,169300
4,033500	0,5	-0,175150
4,041833	0,5	-0,178700
4,050167	0,5	-0,180850
4,058500	0,5	-0,183150
4,066833	0,5	-0,182700
4,075167	0,5	-0,188050
4,083500	0,5	-0,190300
4,091833	0,5	-0,185100
4,100167	0,5	-0,177900
4,108500	0,5	-0,169700
4,116833	0,5	-0,170150
4,125167	0,5	-0,154350
4,133500	0,5	-0,165700
4,141833	0,5	-0,163300
4,150167	0,5	-0,163200
4,158500	0,5	-0,159300
4,166833	0,5	-0,153450
4,175167	0,5	-0,150100
4,183500	0,5	-0,160800
4,191833	0,5	-0,159600
4,200167	0,5	-0,164700
4,208500	0,5	-0,165800
4,216833	0,5	-0,168900
4,225167	0,5	-0,173800
4,233500	0,5	-0,174650
4,241833	0,5	-0,174800
4,250167	0,5	-0,173750
4,258500	0,5	-0,180400
4,266833	0,5	-0,169050
4,275167	0,5	-0,165450
4,283500	0,5	-0,167950
4,291833	0,5	-0,162000
4,300167	0,5	-0,152100
4,308500	0,5	-0,133250
4,316833	0,5	-0,105500
4,325167	0,5	-0,093350
4,333500	0,5	-0,070350
4,341833	0,5	-0,048550
4,350167	0,5	-0,015600
4,358500	0,5	0,017000
4,366833	0,5	0,056250
4,375167	0,5	0,098450
4,383500	0,5	0,155300
4,391833	0,5	0,226400
4,400167	0,5	0,300750
4,408500	0,5	0,404200
4,416833	0,5	0,557950
4,425167	0,5	0,754050
4,433500	0,5	1,028300
4,441833	0,5	1,417350
4,450167	0,5	1,932600
4,458500	0,5	2,586600
4,466833	0,5	3,325550
4,475167	0,5	4,101500
4,483500	0,5	4,827900
4,491833	0,5	5,420800
4,500167	0,5	5,775250
4,508500	0,5	5,872100
4,516833	0,5	5,687200
4,525167	0,5	5,279300
4,533500	0,5	4,707550
4,541833	0,5	4,058100
4,550167	0,5	3,402600
4,558500	0,5	2,783100
4,566833	0,5	2,245450
4,575167	0,5	1,782150
4,583500	0,5	1,407150
4,591833	0,5	1,120250
4,600167	0,5	0,895850
4,608500	0,5	0,731500
4,616833	0,5	0,598350
4,625167	0,5	0,488750
4,633500	0,5	0,416200
4,641833	0,5	0,357300
4,650167	0,5	0,315200
4,658500	0,5	0,281700
4,666833	0,5	0,258900
4,675167	0,5	0,248550
4,683500	0,5	0,250200
4,691833	0,5	0,255700
4,700167	0,5	0,259500
4,708500	0,5	0,267850
4,716833	0,5	0,284150
4,725167	0,5	0,276150
4,733500	0,5	0,264400
4,741833	0,5	0,252150
4,750167	0,5	0,233800
4,758500	0,5	0,215950
4,766833	0,5	0,180250
4,775167	0,5	0,149300
4,783500	0,5	0,121350
4,791833	0,5	0,094450
4,800167	0,5	0,071550
4,808500	0,5	0,048600
4,816833	0,5	0,029800
4,825167	0,5	0,020250
4,833500	0,5	0,003900
4,841833	0,5	-0,001600
4,850167	0,5	-0,020300
4,858500	0,5	-0,019300
4,866833	0,5	-0,028200
4,875167	0,5	-0,036100
4,883500	0,5	-0,037100
4,891833	0,5	-0,037100
4,900167	0,5	-0,031150
4,908500	0,5	-0,028200
4,916833	0,5	-0,036450
4,925167	0,5	-0,032850
4,933500	0,5	-0,032250
4,941833	0,5	-0,035400
4,950167	0,5	-0,036600
4,958500	0,5	-0,039900
4,966833	0,5	-0,041100
4,975167	0,5	-0,043450
4,983500	0,5	-0,045650
4,991833	0,5	-0,053150
5,000167	0,5	-0,055550
5,008500	0,5	-0,048900
5,016833	0,5	-0,050350
5,025167	0,5	-0,059800
5,033500	0,5	-0,056400
5,041833	0,5	-0,053850
5,050167	0,5	-0,042550
5,058500	0,5	-0,035800
5,066833	0,5	-0,034850
5,075167	0,5	-0,033950
5,083500	0,5	-0,028100
5,091833	0,5	-0,028050
5,100167	0,5	-0,024850
5,108500	0,5	-0,022850
5,116833	0,5	-0,015000
5,125167	0,5	-0,004850
5,133500	0,5	0,008200
5,141833	0,5	0,015800
5,150167	0,5	0,027750
5,158500	0,5	0,042000
5,166833	0,5	0,043800
5,175167	0,5	0,043450
5,183500	0,5	0,041200
5,191833	0,5	0,042600
5,200167	0,5	0,042100
5,208500	0,5	0,034750
5,216833	0,5	0,017250
5,225167	0,5	0,006950
5,233500	0,5	-0,007700
5,241833	0,5	-0,014250
5,250167	0,5	-0,024650
5,258500	0,5	-0,033650
5,266833	0,5	-0,034600
5,275167	0,5	-0,040550
5,283500	0,5	-0,041450
5,291833	0,5	-0,046550
5,300167	0,5	-0,047150
5,308500	0,5	-0,043250
5,316833	0,5	-0,057150
5,325167	0,5	-0,055850
5,333500	0,5	-0,058300
5,341833	0,5	-0,052650
5,350167	0,5	-0,048250
5,358500	0,5	-0,050700
5,366833	0,5	-0,050050
5,375167	0,5	-0,052000
5,383500	0,5	-0,052650
5,391833	0,5	-0,058650
5,400167	0,5	-0,057400
5,408500	0,5	-0,063600
5,416833	0,5	-0,063300
5,425167	0,5	-0,065400
5,433500	0,5	-0,069750
5,441833	0,5	-0,074450
5,450167	0,5	-0,066400
5,458500	0,5	-0,073600
5,466833	0,5	-0,079750
5,475167	0,5	-0,081350
5,483500	0,5	-0,086700
5,491833	0,5	-0,078350
5,500167	0,5	-0,080050
5,508500	0,5	-0,081950
5,516833	0,5	-0,088150
5,525167	0,5	-0,086000
5,533500	0,5	-0,088300
5,541833	0,5	-0,090600
5,550167	0,5	-0,093850
5,558500	0,5	-0,097050
5,566833	0,5	-0,100100
5,575167	0,5	-0,099000
5,583500	0,5	-0,108700
5,591833	0,5	-0,111450
5,600167	0,5	-0,107650
5,608500	0,5	-0,113000
5,616833	0,5	-0,117850
5,625167	0,5	-0,118350
5,633500	0,5	-0,116300
5,641833	0,5	-0,107200
5,650167	0,5	-0,110650
5,658500	0,5	-0,112200
5,666833	0,5	-0,111000
5,675167	0,5	-0,111650
5,683500	0,5	-0,113150
5,691833	0,5	-0,117250
5,700167	0,5	-0,121000
5,708500	0,5	-0,125350
5,716833	0,5	-0,125100
5,725167	0,5	-0,127350
5,733500	0,5	-0,129450
5,741833	0,5	-0,130850
5,750167	0,5	-0,128650
5,758500	0,5	-0,138200
5,766833	0,5	-0,141050
5,775167	0,5	-0,140900
5,783500	0,5	-0,133350
5,791833	0,5	-0,125100
5,800167	0,5	-0,122200
5,808500	0,5	-0,116750
5,816833	0,5	-0,105450
5,825167	0,5	-0,093450
5,833500	0,5	-0,088650
5,841833	0,5	-0,082700
5,850167	0,5	-0,075700
5,858500	0,5	-0,068150
5,866833	0,5	-0,069000
5,875167	0,5	-0,061850
5,883500	0,5	-0,065300
5,891833	0,5	-0,078250
5,900167	0,5	-0,071350
5,908500	0,5	-0,074850
5,916833	0,5	-0,078150
5,925167	0,5	-0,075300
5,933500	0,5	-0,071200
5,941833	0,5	-0,068900
5,950167	0,5	-0,082900
5,958500	0,5	-0,087850
5,966833	0,5	-0,106750
5,975167	0,5	-0,117350
5,983500	0,5	-0,133550
5,991833	0,5	-0,149750
6,000167	0,5	-0,163000
6,008500	0,5	-0,173250
6,016833	0,5	-0,179250
6,025167	0,5	-0,192000
6,033500	0,5	-0,200200
6,041833	0,5	-0,196050
6,050167	0,5	-0,200550
6,058500	0,5	-0,205500
6,066833	0,5	-0,207150
6,075167	0,5	-0,203650
6,083500	0,5	-0,197750
6,091833	0,5	-0,193650
6,100167	0,5	-0,191900
6,108500	0,5	-0,192550
6,116833	0,5	-0,190900
6,125167	0,5	-0,188950
6,133500	0,5	-0,183150
6,141833	0,5	-0,182400
6,150167	0,5	-0,178750
6,158500	0,5	-0,172550
6,166833	0,5	-0,167500
6,175167	0,5	-0,166150
6,183500	0,5	-0,157750
6,191833	0,5	-0,157000
6,200167	0,5	-0,158400
6,208500	0,5	-0,161400
6,216833	0,5	-0,163150
6,225167	0,5	-0,162150
6,233500	0,5	-0,158050
6,241833	0,5	-0,155000
6,250167	0,5	-0,158200
6,258500	0,5	-0,158200
6,266833	0,5	-0,161100
6,275167	0,5	-0,165800
6,283500	0,5	-0,166400
6,291833	0,5	-0,165750
6,300167	0,5	-0,167700
6,308500	0,5	-0,161850
6,316833	0,5	-0,161600
6,325167	0,5	-0,156800
6,333500	0,5	-0,151600
6,341833	0,5	-0,146350
6,350167	0,5	-0,148500
6,358500	0,5	-0,147000
6,366833	0,5	-0,144900
6,375167	0,5	-0,135450
6,383500	0,5	-0,132250
6,391833	0,5	-0,130450
6,400167	0,5	-0,130700
6,408500	0,5	-0,129750
6,416833	0,5	-0,124400
6,425167	0,5	-0,125100
6,433500	0,5	-0,115650
6,441833	0,5	-0,109150
6,450167	0,5	-0,099600
6,458500	0,5	-0,088450
6,466833	0,5	-0,079950
6,475167	0,5	-0,073200
6,483500	0,5	-0,057600
6,491833	0,5	-0,055500
6,500167	0,5	-0,056200
6,508500	0,5	-0,059000
6,516833	0,5	-0,059300
6,525167	0,5	-0,056050
6,533500	0,5	-0,060850
6,541833	0,5	-0,063950
6,550167	0,5	-0,065500
6,558500	0,5	-0,066300
6,566833	0,5	-0,072750
6,575167	0,5	-0,071550
6,583500	0,5	-0,072200
6,591833	0,5	-0,069800
6,600167	0,5	-0,067900
6,608500	0,5	-0,063450
6,616833	0,5	-0,062500
6,625167	0,5	-0,059950
6,633500	0,5	-0,049050
6,641833	0,5	-0,049450
6,650167	0,5	-0,047400
6,658500	0,5	-0,040750
6,666833	0,5	-0,037850
6,675167	0,5	-0,022000
6,683500	0,5	-0,020400
6,691833	0,5	-0,013450
6,700167	0,5	-0,016750
6,708500	0,5	-0,011500
6,716833	0,5	-0,010550
6,725167	0,5	-0,011200
6,733500	0,5	-0,007800
6,741833	0,5	-0,009850
6,750167	0,5	-0,005250
6,758500	0,5	-0,002650
6,766833	0,5	-0,001500
6,775167	0,5	0,002650
6,783500	0,5	0,011300
6,791833	0,5	0,006400
6,800167	0,5	0,007200
6,808500	0,5	0,011400
6,816833	0,5	0,018250
6,825167	0,5	0,030500
6,833500	0,5	0,035500
6,841833	0,5	0,044550
6,850167	0,5	0,060500
6,858500	0,5	0,066750
6,866833	0,5	0,084100
6,875167	0,5	0,094150
6,883500	0,5	0,104300
6,891833	0,5	0,109500
6,900167	0,5	0,111950
6,908500	0,5	0,114950
6,916833	0,5	0,103250
6,925167	0,5	0,098250
6,933500	0,5	0,092350
6,941833	0,5	0,078350
6,950167	0,5	0,069750
6,958500	0,5	0,067700
6,966833	0,5	0,069500
6,975167	0,5	0,074050
6,983500	0,5	0,070150
6,991833	0,5	0,073900
7,000167	0,5	0,074950
7,008500	0,5	0,073200
7,016833	0,5	0,075100
7,025167	0,5	0,077400
7,033500	0,5	0,078300
7,041833	0,5	0,078800
7,050167	0,5	0,082650
7,058500	0,5	0,081850
7,066833	0,5	0,077900
7,075167	0,5	0,088750
7,083500	0,5	0,084500
7,091833	0,5	0,085700
7,100167	0,5	0,087150
7,108500	0,5	0,089200
7,116833	0,5	0,095750
7,125167	0,5	0,100200
7,133500	0,5	0,104800
7,141833	0,5	0,105550
7,150167	0,5	0,108200
7,158500	0,5	0,106700
7,166833	0,5	0,107800
7,175167	0,5	0,105050
7,183500	0,5	0,105750
7,191833	0,5	0,111050
7,200167	0,5	0,112550
7,208500	0,5	0,111750
7,216833	0,5	0,115750
7,225167	0,5	0,119900
7,233500	0,5	0,117200
7,241833	0,5	0,118150
7,250167	0,5	0,118050
7,258500	0,5	0,127000
7,266833	0,5	0,131200
7,275167	0,5	0,133300
7,283500	0,5	0,133450
7,291833	0,5	0,134950
7,300167	0,5	0,137350
7,308500	0,5	0,137250
7,316833	0,5	0,134700
7,325167	0,5	0,134600
7,333500	0,5	0,133500
7,341833	0,5	0,135200
7,350167	0,5	0,139600
7,358500	0,5	0,140100
7,366833	0,5	0,142150
7,375167	0,5	0,143850
7,383500	0,5	0,136900
7,391833	0,5	0,142800
7,400167	0,5	0,144100
7,408500	0,5	0,150050
7,416833	0,5	0,158400
7,425167	0,5	0,160850
7,433500	0,5	0,164700
7,441833	0,5	0,170650
7,450167	0,5	0,175600
7,458500	0,5	0,181000
7,466833	0,5	0,188800
7,475167	0,5	0,197200
7,483500	0,5	0,210600
7,491833	0,5	0,222650
7,500167	0,5	0,239550
7,508500	0,5	0,245850
7,516833	0,5	0,251450
7,525167	0,5	0,243150
7,533500	0,5	0,230900
7,541833	0,5	0,216950
7,550167	0,5	0,211500
7,558500	0,5	0,206250
7,566833	0,5	0,205250
7,575167	0,5	0,205150
7,583500	0,5	0,206200
7,591833	0,5	0,209650
7,600167	0,5	0,207350
7,608500	0,5	0,211150
7,616833	0,5	0,208200
7,625167	0,5	0,210150
7,633500	0,5	0,218100
7,641833	0,5	0,222800
7,650167	0,5	0,223800
7,658500	0,5	0,226800
7,666833	0,5	0,235900
7,675167	0,5	0,239200
7,683500	0,5	0,240450
7,691833	0,5	0,247100
7,700167	0,5	0,254450
7,708500	0,5	0,264200
7,716833	0,5	0,267200
7,725167	0,5	0,270700
7,733500	0,5	0,269450
7,741833	0,5	0,273200
7,750167	0,5	0,276450
7,758500	0,5	0,280350
7,766833	0,5	0,281750
7,775167	0,5	0,285000
7,783500	0,5	0,289800
7,791833	0,5	0,292900
7,800167	0,5	0,295200
7,808500	0,5	0,303450
7,816833	0,5	0,308900
7,825167	0,5	0,311100
7,833500	0,5	0,314150
7,841833	0,5	0,318500
7,850167	0,5	0,317850
7,858500	0,5	0,326100
7,866833	0,5	0,327500
7,875167	0,5	0,328850
7,883500	0,5	0,334250
7,891833	0,5	0,332950
7,900167	0,5	0,338300
7,908500	0,5	0,337100
7,916833	0,5	0,340550
7,925167	0,5	0,343700
7,933500	0,5	0,349250
7,941833	0,5	0,352650
7,950167	0,5	0,361150
7,958500	0,5	0,366800
7,966833	0,5	0,374800
7,975167	0,5	0,375050
7,983500	0,5	0,380450
7,991833	0,5	0,384600
8,000167	0,5	0,393600
8,008500	0,5	0,406150
8,016833	0,5	0,411800
8,025167	0,5	0,417750
8,033500	0,5	0,427900
8,041833	0,5	0,430950
8,050167	0,5	0,438200
8,058500	0,5	0,447900
8,066833	0,5	0,454450
8,075167	0,5	0,461950
8,083500	0,5	0,468500
8,091833	0,5	0,476000
8,100167	0,5	0,481450
8,108500	0,5	0,493600
8,116833	0,5	0,508550
8,125167	0,5	0,522750
8,133500	0,5	0,542650
8,141833	0,5	0,560150
8,150167	0,5	0,568500
8,158500	0,5	0,568450
8,166833	0,5	0,562650
8,175167	0,5	0,553400
8,183500	0,5	0,543800
8,191833	0,5	0,537950
8,200167	0,5	0,536750
8,208500	0,5	0,537250
8,216833	0,5	0,539250
8,225167	0,5	0,540350
8,233500	0,5	0,547400
8,241833	0,5	0,548700
8,250167	0,5	0,551350
8,258500	0,5	0,560600
8,266833	0,5	0,567050
8,275167	0,5	0,566550
8,283500	0,5	0,572150
8,291833	0,5	0,576850
8,300167	0,5	0,584900
8,308500	0,5	0,594000
8,316833	0,5	0,601600
8,325167	0,5	0,609900
8,333500	0,5	0,616650
8,341833	0,5	0,626000
8,350167	0,5	0,631850
8,358500	0,5	0,638650
8,366833	0,5	0,642300
8,375167	0,5	0,645400
8,383500	0,5	0,645500
8,391833	0,5	0,646500
8,400167	0,5	0,650200
8,408500	0,5	0,653150
8,416833	0,5	0,657200
8,425167	0,5	0,660300
8,433500	0,5	0,665600
8,441833	0,5	0,677350
8,450167	0,5	0,688400
8,458500	0,5	0,696500
8,466833	0,5	0,704650
8,475167	0,5	0,711950
8,483500	0,5	0,721250
8,491833	0,5	0,729050
8,500167	0,5	0,745200
8,508500	0,5	0,758750
8,516833	0,5	0,776150
8,525167	0,5	0,800050
8,533500	0,5	0,832000
8,541833	0,5	0,868600
8,550167	0,5	0,911300
8,558500	0,5	0,950100
8,566833	0,5	0,976050
8,575167	0,5	0,984250
8,583500	0,5	0,977900
8,591833	0,5	0,956550
8,600167	0,5	0,924200
8,608500	0,5	0,896050
8,616833	0,5	0,870950
8,625167	0,5	0,862050
8,633500	0,5	0,864000
8,641833	0,5	0,868100
8,650167	0,5	0,878300
8,658500	0,5	0,883000
8,666833	0,5	0,882100
8,675167	0,5	0,872300
8,683500	0,5	0,856900
8,691833	0,5	0,844950
8,700167	0,5	0,835800
8,708500	0,5	0,830400
8,716833	0,5	0,821400
8,725167	0,5	0,820000
8,733500	0,5	0,819150
8,741833	0,5	0,824550
8,750167	0,5	0,826950
8,758500	0,5	0,832550
8,766833	0,5	0,836500
8,775167	0,5	0,840050
8,783500	0,5	0,847800
8,791833	0,5	0,856000
8,800167	0,5	0,864050
8,808500	0,5	0,869350
8,816833	0,5	0,870400
8,825167	0,5	0,869100
8,833500	0,5	0,866650
8,841833	0,5	0,862050
8,850167	0,5	0,860900
8,858500	0,5	0,858850
8,866833	0,5	0,855250
8,875167	0,5	0,854650
8,883500	0,5	0,852650
8,891833	0,5	0,855000
8,900167	0,5	0,854400
8,908500	0,5	0,854400
8,916833	0,5	0,856950
8,925167	0,5	0,858050
8,933500	0,5	0,853550
8,941833	0,5	0,863450
8,950167	0,5	0,861800
8,958500	0,5	0,862900
8,966833	0,5	0,862500
8,975167	0,5	0,863550
8,983500	0,5	0,865000
8,991833	0,5	0,867750
9,000167	0,5	0,871900
9,008500	0,5	0,868200
9,016833	0,5	0,868800
9,025167	0,5	0,870950
9,033500	0,5	0,873300
9,041833	0,5	0,877500
9,050167	0,5	0,882150
9,058500	0,5	0,883600
9,066833	0,5	0,893750
9,075167	0,5	0,901550
9,083500	0,5	0,920200
9,091833	0,5	0,933600
9,100167	0,5	0,948450
9,108500	0,5	0,960000
9,116833	0,5	0,960350
9,125167	0,5	0,954500
9,133500	0,5	0,951950
9,141833	0,5	0,946050
9,150167	0,5	0,944550
9,158500	0,5	0,940700
9,166833	0,5	0,938950
9,175167	0,5	0,937200
9,183500	0,5	0,933600
9,191833	0,5	0,936250
9,200167	0,5	0,929850
9,208500	0,5	0,925600
9,216833	0,5	0,921500
9,225167	0,5	0,914100
9,233500	0,5	0,909200
9,241833	0,5	0,904900
9,250167	0,5	0,902400
9,258500	0,5	0,902450
9,266833	0,5	0,898900
9,275167	0,5	0,898800
9,283500	0,5	0,895050
9,291833	0,5	0,895350
9,300167	0,5	0,895800
9,308500	0,5	0,892900
9,316833	0,5	0,891150
9,325167	0,5	0,889900
9,333500	0,5	0,890900
9,341833	0,5	0,895200
9,350167	0,5	0,894100
9,358500	0,5	0,894450
9,366833	0,5	0,892850
9,375167	0,5	0,894050
9,383500	0,5	0,894850
9,391833	0,5	0,899300
9,400167	0,5	0,898400
9,408500	0,5	0,900950
9,416833	0,5	0,907650
9,425167	0,5	0,913650
9,433500	0,5	0,913900
9,441833	0,5	0,921050
9,450167	0,5	0,920450
9,458500	0,5	0,921500
9,466833	0,5	0,920500
9,475167	0,5	0,922850
9,483500	0,5	0,930500
9,491833	0,5	0,945000
9,500167	0,5	0,953550
9,508500	0,5	0,959100
9,516833	0,5	0,962450
9,525167	0,5	0,968150
9,533500	0,5	0,971300
9,541833	0,5	0,976000
9,550167	0,5	0,982550
9,558500	0,5	0,992300
9,566833	0,5	0,992100
9,575167	0,5	0,991000
9,583500	0,5	0,985100
9,591833	0,5	0,975400
9,600167	0,5	0,962450
9,608500	0,5	0,949250
9,616833	0,5	0,937500
9,625167	0,5	0,930550
9,633500	0,5	0,926550
9,641833	0,5	0,923850
9,650167	0,5	0,922300
9,658500	0,5	0,929750
9,666833	0,5	0,931000
9,675167	0,5	0,944950
9,683500	0,5	0,955000
9,691833	0,5	0,971000
9,700167	0,5	0,977700
9,708500	0,5	0,990050
9,716833	0,5	1,000600
9,725167	0,5	0,999750
9,733500	0,5	0,998550
9,741833	0,5	0,994750
9,750167	0,5	0,986150
9,758500	0,5	0,981800
9,766833	0,5	0,980350
9,775167	0,5	0,989800
9,783500	0,5	1,012500
9,791833	0,5	1,046050
9,800167	0,5	1,088000
9,808500	0,5	1,151950
9,816833	0,5	1,210700
9,825167	0,5	1,261800
9,833500	0,5	1,297300
9,841833	0,5	1,297700
9,850167	0,5	1,267500
9,858500	0,5	1,215450
9,866833	0,5	1,147000
9,875167	0,5	1,079750
9,883500	0,5	1,026450
9,891833	0,5	0,982300
9,900167	0,5	0,947950
9,908500	0,5	0,925300
9,916833	0,5	0,905800
9,925167	0,5	0,897250
9,933500	0,5	0,890300
9,941833	0,5	0,890150
9,950167	0,5	0,888350
9,958500	0,5	0,890700
9,966833	0,5	0,890550
9,975167	0,5	0,896400
9,983500	0,5	0,895900
9,991833	0,5	0,892400
10,000167	0,5	0,882050
10,008500	0,5	0,880650
10,016833	0,5	0,870050
10,025167	0,5	0,861100
10,033500	0,5	0,859400
10,041833	0,5	0,850150
10,050167	0,5	0,841350
10,058500	0,5	0,839800
10,066833	0,5	0,831800
10,075167	0,5	0,832050
10,083500	0,5	0,827850
10,091833	0,5	0,828900
10,100167	0,5	0,823700
10,108500	0,5	0,826300
10,116833	0,5	0,828150
10,125167	0,5	0,830300
10,133500	0,5	0,841850
10,141833	0,5	0,854450
10,150167	0,5	0,869050
10,158500	0,5	0,880600
10,166833	0,5	0,884550
10,175167	0,5	0,878950
10,183500	0,5	0,872900
10,191833	0,5	0,852350
10,200167	0,5	0,834450
10,208500	0,5	0,817250
10,216833	0,5	0,802600
10,225167	0,5	0,793300
10,233500	0,5	0,783600
10,241833	0,5	0,774500
10,250167	0,5	0,765850
10,258500	0,5	0,758850
10,266833	0,5	0,750500
10,275167	0,5	0,747200
10,283500	0,5	0,745100
10,291833	0,5	0,741000
10,300167	0,5	0,736750
10,308500	0,5	0,736400
10,316833	0,5	0,729800
10,325167	0,5	0,731250
10,333500	0,5	0,735600
10,341833	0,5	0,726050
10,350167	0,5	0,722550
10,358500	0,5	0,715800
10,366833	0,5	0,708850
10,375167	0,5	0,712200
10,383500	0,5	0,711100
10,391833	0,5	0,711200
10,400167	0,5	0,713900
10,408500	0,5	0,717050
10,416833	0,5	0,717350
10,425167	0,5	0,716450
10,433500	0,5	0,716100
10,441833	0,5	0,706800
10,450167	0,5	0,702500
10,458500	0,5	0,694500
10,466833	0,5	0,683850
10,475167	0,5	0,681950
10,483500	0,5	0,683900
10,491833	0,5	0,683650
10,500167	0,5	0,683400
10,508500	0,5	0,690950
10,516833	0,5	0,704250
10,525167	0,5	0,714300
10,533500	0,5	0,730350
10,541833	0,5	0,733950
10,550167	0,5	0,735400
10,558500	0,5	0,728150
10,566833	0,5	0,716700
10,575167	0,5	0,701600
10,583500	0,5	0,684800
10,591833	0,5	0,668800
10,600167	0,5	0,658650
10,608500	0,5	0,645450
10,616833	0,5	0,632300
10,625167	0,5	0,624500
10,633500	0,5	0,616850
10,641833	0,5	0,606150
10,650167	0,5	0,595650
10,658500	0,5	0,589600
10,666833	0,5	0,587550
10,675167	0,5	0,588850
10,683500	0,5	0,586250
10,691833	0,5	0,585300
10,700167	0,5	0,584800
10,708500	0,5	0,587350
10,716833	0,5	0,584350
10,725167	0,5	0,583650
10,733500	0,5	0,579550
10,741833	0,5	0,576150
10,750167	0,5	0,576500
10,758500	0,5	0,573100
10,766833	0,5	0,568200
10,775167	0,5	0,569400
10,783500	0,5	0,569150
10,791833	0,5	0,564150
10,800167	0,5	0,564800
10,808500	0,5	0,567350
10,816833	0,5	0,573800
10,825167	0,5	0,577700
10,833500	0,5	0,583600
10,841833	0,5	0,586550
10,850167	0,5	0,595150
10,858500	0,5	0,603500
10,866833	0,5	0,609150
10,875167	0,5	0,611450
10,883500	0,5	0,610200
10,891833	0,5	0,604450
10,900167	0,5	0,596000
10,908500	0,5	0,578250
10,916833	0,5	0,566400
10,925167	0,5	0,551400
10,933500	0,5	0,539500
10,941833	0,5	0,524600
10,950167	0,5	0,510900
10,958500	0,5	0,500100
10,966833	0,5	0,502700
10,975167	0,5	0,492100
10,983500	0,5	0,486750
10,991833	0,5	0,481200
11,000167	0,5	0,483100
11,008500	0,5	0,480650
11,016833	0,5	0,478750
11,025167	0,5	0,479100
11,033500	0,5	0,476900
11,041833	0,5	0,483050
11,050167	0,5	0,480550
11,058500	0,5	0,475450
11,066833	0,5	0,482950
11,075167	0,5	0,478600
11,083500	0,5	0,476050
11,091833	0,5	0,467100
11,100167	0,5	0,458000
11,108500	0,5	0,460050
11,116833	0,5	0,452450
11,125167	0,5	0,457400
11,133500	0,5	0,457050
11,141833	0,5	0,469500
11,150167	0,5	0,481000
11,158500	0,5	0,496950
11,166833	0,5	0,505900
11,175167	0,5	0,510700
11,183500	0,5	0,514150
11,191833	0,5	0,505100
11,200167	0,5	0,502350
11,208500	0,5	0,487350
11,216833	0,5	0,475650
11,225167	0,5	0,461900
11,233500	0,5	0,449000
11,241833	0,5	0,436050
11,250167	0,5	0,427950
11,258500	0,5	0,423250
11,266833	0,5	0,422150
11,275167	0,5	0,419050
11,283500	0,5	0,415500
11,291833	0,5	0,414200
11,300167	0,5	0,414950
11,308500	0,5	0,417100
11,316833	0,5	0,417600
11,325167	0,5	0,420600
11,333500	0,5	0,427850
11,341833	0,5	0,431150
11,350167	0,5	0,430650
11,358500	0,5	0,435950
11,366833	0,5	0,436900
11,375167	0,5	0,431400
11,383500	0,5	0,424000
11,391833	0,5	0,417600
11,400167	0,5	0,418100
11,408500	0,5	0,426100
11,416833	0,5	0,429000
11,425167	0,5	0,444100
11,433500	0,5	0,452900
11,441833	0,5	0,462500
11,450167	0,5	0,463400
11,458500	0,5	0,464750
11,466833	0,5	0,457500
11,475167	0,5	0,451150
11,483500	0,5	0,441800
11,491833	0,5	0,434050
11,500167	0,5	0,423100
11,508500	0,5	0,422000
11,516833	0,5	0,422300
11,525167	0,5	0,419750
11,533500	0,5	0,419700
11,541833	0,5	0,419100
11,550167	0,5	0,429450
11,558500	0,5	0,433650
11,566833	0,5	0,441050
11,575167	0,5	0,444900
11,583500	0,5	0,451350
11,591833	0,5	0,454250
11,600167	0,5	0,458800
11,608500	0,5	0,458350
11,616833	0,5	0,460000
11,625167	0,5	0,456950
11,633500	0,5	0,452950
11,641833	0,5	0,444500
11,650167	0,5	0,433900
11,658500	0,5	0,427150
11,666833	0,5	0,412850
11,675167	0,5	0,395800
11,683500	0,5	0,382750
11,691833	0,5	0,369550
11,700167	0,5	0,365550
11,708500	0,5	0,359600
11,716833	0,5	0,358750
11,725167	0,5	0,360450
11,733500	0,5	0,362550
11,741833	0,5	0,371400
11,750167	0,5	0,375800
11,758500	0,5	0,379900
11,766833	0,5	0,376750
11,775167	0,5	0,369000
11,783500	0,5	0,357600
11,791833	0,5	0,339250
11,800167	0,5	0,327750
11,808500	0,5	0,314850
11,816833	0,5	0,302450
11,825167	0,5	0,290600
11,833500	0,5	0,273500
11,841833	0,5	0,265750
11,850167	0,5	0,265000
11,858500	0,5	0,260100
11,866833	0,5	0,254500
11,875167	0,5	0,252150
11,883500	0,5	0,249050
11,891833	0,5	0,251200
11,900167	0,5	0,254150
11,908500	0,5	0,255150
11,916833	0,5	0,256300
11,925167	0,5	0,258500
11,933500	0,5	0,260350
11,941833	0,5	0,250500
11,950167	0,5	0,250650
11,958500	0,5	0,247100
11,966833	0,5	0,240550
11,975167	0,5	0,232250
11,983500	0,5	0,228700
11,991833	0,5	0,232950
12,000167	0,5	0,238400
12,008500	0,5	0,242200
12,016833	0,5	0,253900
12,025167	0,5	0,257300
12,033500	0,5	0,264000
12,041833	0,5	0,262850
12,050167	0,5	0,259450
12,058500	0,5	0,252100
12,066833	0,5	0,245800
12,075167	0,5	0,240300
12,083500	0,5	0,233150
12,091833	0,5	0,222400
12,100167	0,5	0,222950
12,108500	0,5	0,222200
12,116833	0,5	0,217150
12,125167	0,5	0,211950
12,133500	0,5	0,204900
12,141833	0,5	0,207300
12,150167	0,5	0,207800
12,158500	0,5	0,212150
12,166833	0,5	0,207450
12,175167	0,5	0,207550
12,183500	0,5	0,206250
12,191833	0,5	0,204100
12,200167	0,5	0,203850
12,208500	0,5	0,201550
12,216833	0,5	0,196350
12,225167	0,5	0,196750
12,233500	0,5	0,190850
12,241833	0,5	0,189050
12,250167	0,5	0,189100
12,258500	0,5	0,180550
12,266833	0,5	0,164100
12,275167	0,5	0,126700
12,283500	0,5	0,063850
12,291833	0,5	-0,031550
12,300167	0,5	-0,131800
12,308500	0,5	-0,215900
12,316833	0,5	-0,280150
12,325167	0,5	-0,330350
12,333500	0,5	-0,358750
12,341833	0,5	-0,377350
12,350167	0,5	-0,391300
12,358500	0,5	-0,400850
12,366833	0,5	-0,415800
12,375167	0,5	-0,418100
12,383500	0,5	-0,432000
12,391833	0,5	-0,435000
12,400167	0,5	-0,436000
12,408500	0,5	-0,444350
12,416833	0,5	-0,447450
12,425167	0,5	-0,455850
12,433500	0,5	-0,457900
12,441833	0,5	-0,453450
12,450167	0,5	-0,454550
12,458500	0,5	-0,452150
12,466833	0,5	-0,452150
12,475167	0,5	-0,450050
12,483500	0,5	-0,447600
12,491833	0,5	-0,442800
12,500167	0,5	-0,445650
12,508500	0,5	-0,442150
12,516833	0,5	-0,439400
12,525167	0,5	-0,436150
12,533500	0,5	-0,439900
12,541833	0,5	-0,430350
12,550167	0,5	-0,431150
12,558500	0,5	-0,432000
12,566833	0,5	-0,434450
12,575167	0,5	-0,436400
12,583500	0,5	-0,425350
12,591833	0,5	-0,423500
12,600167	0,5	-0,420750
12,608500	0,5	-0,420550
12,616833	0,5	-0,415350
12,625167	0,5	-0,412550
12,633500	0,5	-0,406450
12,641833	0,5	-0,402650
12,650167	0,5	-0,398300
12,658500	0,5	-0,397650
12,666833	0,5	-0,390550
12,675167	0,5	-0,400800
12,683500	0,5	-0,397300
12,691833	0,5	-0,396150
12,700167	0,5	-0,395400
12,708500	0,5	-0,399850
12,716833	0,5	-0,400250
12,725167	0,5	-0,398500
12,733500	0,5	-0,396300
12,741833	0,5	-0,391050
12,750167	0,5	-0,388400
12,758500	0,5	-0,383150
12,766833	0,5	-0,384850
12,775167	0,5	-0,377450
12,783500	0,5	-0,371950
12,791833	0,5	-0,366100
12,800167	0,5	-0,366550
12,808500	0,5	-0,361750
12,816833	0,5	-0,352100
12,825167	0,5	-0,354350
12,833500	0,5	-0,344700
12,841833	0,5	-0,337050
12,850167	0,5	-0,333250
12,858500	0,5	-0,332400
12,866833	0,5	-0,338650
12,875167	0,5	-0,330000
12,883500	0,5	-0,326400
12,891833	0,5	-0,320750
12,900167	0,5	-0,315500
12,908500	0,5	-0,308550
12,916833	0,5	-0,303150
12,925167	0,5	-0,299200
12,933500	0,5	-0,293750
12,941833	0,5	-0,292350
12,950167	0,5	-0,285000
12,958500	0,5	-0,286100
12,966833	0,5	-0,279050
12,975167	0,5	-0,280500
12,983500	0,5	-0,271750
12,991833	0,5	-0,265750
13,000167	0,5	-0,262500
13,008500	0,5	-0,261850
13,016833	0,5	-0,263050
13,025167	0,5	-0,256200
13,033500	0,5	-0,246150
13,041833	0,5	-0,238650
13,050167	0,5	-0,231700
13,058500	0,5	-0,231350
13,066833	0,5	-0,219800
13,075167	0,5	-0,212950
13,083500	0,5	-0,204350
13,091833	0,5	-0,195350
13,100167	0,5	-0,188600
13,108500	0,5	-0,176100
13,116833	0,5	-0,173000
13,125167	0,5	-0,171000
13,133500	0,5	-0,156200
13,141833	0,5	-0,152500
13,150167	0,5	-0,147900
13,158500	0,5	-0,154100
13,166833	0,5	-0,150350
13,175167	0,5	-0,141000
13,183500	0,5	-0,137850
13,191833	0,5	-0,127500
13,200167	0,5	-0,123750
13,208500	0,5	-0,114800
13,216833	0,5	-0,110500
13,225167	0,5	-0,103350
13,233500	0,5	-0,101100
13,241833	0,5	-0,093700
13,250167	0,5	-0,084800
13,258500	0,5	-0,087600
13,266833	0,5	-0,089400
13,275167	0,5	-0,082350
13,283500	0,5	-0,073950
13,291833	0,5	-0,075650
13,300167	0,5	-0,070400
13,308500	0,5	-0,074050
13,316833	0,5	-0,075800
13,325167	0,5	-0,073500
13,333500	0,5	-0,066100
13,341833	0,5	-0,066600
13,350167	0,5	-0,063950
13,358500	0,5	-0,070050
13,366833	0,5	-0,067950
13,375167	0,5	-0,068850
13,383500	0,5	-0,065850
13,391833	0,5	-0,068800
13,400167	0,5	-0,062950
13,408500	0,5	-0,067450
13,416833	0,5	-0,070900
13,425167	0,5	-0,066300
13,433500	0,5	-0,063250
13,441833	0,5	-0,063250
13,450167	0,5	-0,063950
13,458500	0,5	-0,075450
13,466833	0,5	-0,072250
13,475167	0,5	-0,068750
13,483500	0,5	-0,067700
13,491833	0,5	-0,061350
13,500167	0,5	-0,060800
13,508500	0,5	-0,052100
13,516833	0,5	-0,048700
13,525167	0,5	-0,047100
13,533500	0,5	-0,054750
13,541833	0,5	-0,058400
13,550167	0,5	-0,062550
13,558500	0,5	-0,072100
13,566833	0,5	-0,075000
13,575167	0,5	-0,072750
13,583500	0,5	-0,070150
13,591833	0,5	-0,074750
13,600167	0,5	-0,077350
13,608500	0,5	-0,080800
13,616833	0,5	-0,075500
13,625167	0,5	-0,068100
13,633500	0,5	-0,060450
13,641833	0,5	-0,055350
13,650167	0,5	-0,045900
13,658500	0,5	-0,044000
13,666833	0,5	-0,039650
13,675167	0,5	-0,048250
13,683500	0,5	-0,051850
13,691833	0,5	-0,062300
13,700167	0,5	-0,064450
13,708500	0,5	-0,078500
13,716833	0,5	-0,079700
13,725167	0,5	-0,072300
13,733500	0,5	-0,070700
13,741833	0,5	-0,071400
13,750167	0,5	-0,071250
13,758500	0,5	-0,058150
13,766833	0,5	-0,043850
13,775167	0,5	-0,033100
13,783500	0,5	-0,024150
13,791833	0,5	-0,022950
13,800167	0,5	-0,029250
13,808500	0,5	-0,037950
13,816833	0,5	-0,047950
13,825167	0,5	-0,059250
13,833500	0,5	-0,072050
13,841833	0,5	-0,077600
13,850167	0,5	-0,078350
13,858500	0,5	-0,089100
13,866833	0,5	-0,074800
13,875167	0,5	-0,062200
13,883500	0,5	-0,059450
13,891833	0,5	-0,057700
13,900167	0,5	-0,062900
13,908500	0,5	-0,057250
13,916833	0,5	-0,063500
13,925167	0,5	-0,070500
13,933500	0,5	-0,083000
13,941833	0,5	-0,092700
13,950167	0,5	-0,107950
13,958500	0,5	-0,110350
13,966833	0,5	-0,110300
13,975167	0,5	-0,110750
13,983500	0,5	-0,101000
13,991833	0,5	-0,096200
14,000167	0,5	-0,091950
14,008500	0,5	-0,097200
14,016833	0,5	-0,090050
14,025167	0,5	-0,100300
14,033500	0,5	-0,108300
14,041833	0,5	-0,126500
14,050167	0,5	-0,140800
14,058500	0,5	-0,145500
14,066833	0,5	-0,146700
14,075167	0,5	-0,151200
14,083500	0,5	-0,147700
14,091833	0,5	-0,148600
14,100167	0,5	-0,148600
14,108500	0,5	-0,150400
14,116833	0,5	-0,154600
14,125167	0,5	-0,156800
14,133500	0,5	-0,167850
14,141833	0,5	-0,171250
14,150167	0,5	-0,188050
14,158500	0,5	-0,186800
14,166833	0,5	-0,181500
14,175167	0,5	-0,183900
14,183500	0,5	-0,185750
14,191833	0,5	-0,189600
14,200167	0,5	-0,197100
14,208500	0,5	-0,187100
14,216833	0,5	-0,191500
14,225167	0,5	-0,189350
14,233500	0,5	-0,197000
14,241833	0,5	-0,197900
14,250167	0,5	-0,211400
14,258500	0,5	-0,212200
14,266833	0,5	-0,218700
14,275167	0,5	-0,223950
14,283500	0,5	-0,219800
14,291833	0,5	-0,224050
14,300167	0,5	-0,238350
14,308500	0,5	-0,236900
14,316833	0,5	-0,237500
14,325167	0,5	-0,243850
14,333500	0,5	-0,248450
14,341833	0,5	-0,262600
14,350167	0,5	-0,259850
14,358500	0,5	-0,262950
14,366833	0,5	-0,259500
14,375167	0,5	-0,260050
14,383500	0,5	-0,261500
14,391833	0,5	-0,266900
14,400167	0,5	-0,264150
14,408500	0,5	-0,271050
14,416833	0,5	-0,273350
14,425167	0,5	-0,275400
14,433500	0,5	-0,275750
14,441833	0,5	-0,282950
14,450167	0,5	-0,288800
14,458500	0,5	-0,287500
14,466833	0,5	-0,285900
14,475167	0,5	-0,287600
14,483500	0,5	-0,294250
14,491833	0,5	-0,301250
14,500167	0,5	-0,305600
14,508500	0,5	-0,302450
14,516833	0,5	-0,307900
14,525167	0,5	-0,305850
14,533500	0,5	-0,310050
14,541833	0,5	-0,313000
14,550167	0,5	-0,316600
14,558500	0,5	-0,312650
14,566833	0,5	-0,319100
14,575167	0,5	-0,321050
14,583500	0,5	-0,320550
14,591833	0,5	-0,327750
14,600167	0,5	-0,327200
14,608500	0,5	-0,322350
14,616833	0,5	-0,325750
14,625167	0,5	-0,330500
14,633500	0,5	-0,341950
14,641833	0,5	-0,348450
14,650167	0,5	-0,338100
14,658500	0,5	-0,341300
14,666833	0,5	-0,340150
14,675167	0,5	-0,341600
14,683500	0,5	-0,342200
14,691833	0,5	-0,343450
14,700167	0,5	-0,342200
14,708500	0,5	-0,347700
14,716833	0,5	-0,347650
14,725167	0,5	-0,349600
14,733500	0,5	-0,343800
14,741833	0,5	-0,361450
14,750167	0,5	-0,353250
14,758500	0,5	-0,353850
14,766833	0,5	-0,355350
14,775167	0,5	-0,362400
14,783500	0,5	-0,372900
14,791833	0,5	-0,367100
14,800167	0,5	-0,366650
14,808500	0,5	-0,372000
14,816833	0,5	-0,370400
14,825167	0,5	-0,370900
14,833500	0,5	-0,371600
14,841833	0,5	-0,371700
14,850167	0,5	-0,377200
14,858500	0,5	-0,372650
14,866833	0,5	-0,373250
14,875167	0,5	-0,366500
14,883500	0,5	-0,370700
14,891833	0,5	-0,380600
14,900167	0,5	-0,378050
14,908500	0,5	-0,379650
14,916833	0,5	-0,387900
14,925167	0,5	-0,394700
14,933500	0,5	-0,409850
14,941833	0,5	-0,409850
14,950167	0,5	-0,408500
14,958500	0,5	-0,406900
14,966833	0,5	-0,409900
14,975167	0,5	-0,408450
14,983500	0,5	-0,409500
14,991833	0,5	-0,413000
15,000167	0,5	-0,410350
15,008500	0,5	-0,419100
15,016833	0,5	-0,413650
15,025167	0,5	-0,412200
15,033500	0,5	-0,419650
15,041833	0,5	-0,425100
15,050167	0,5	-0,415100
15,058500	0,5	-0,419500
15,066833	0,5	-0,424450
15,075167	0,5	-0,432400
15,083500	0,5	-0,439200
15,091833	0,5	-0,438300
15,100167	0,5	-0,433550
15,108500	0,5	-0,438500
15,116833	0,5	-0,437500
15,125167	0,5	-0,438550
15,133500	0,5	-0,442250
15,141833	0,5	-0,441600
15,150167	0,5	-0,441650
15,158500	0,5	-0,441300
15,166833	0,5	-0,438200
15,175167	0,5	-0,440100
15,183500	0,5	-0,448900
15,191833	0,5	-0,445650
15,200167	0,5	-0,443150
15,208500	0,5	-0,445400
15,216833	0,5	-0,449900
15,225167	0,5	-0,458150
15,233500	0,5	-0,463750
15,241833	0,5	-0,457700
15,250167	0,5	-0,457850
15,258500	0,5	-0,452400
15,266833	0,5	-0,453400
15,275167	0,5	-0,446650
15,283500	0,5	-0,446800
15,291833	0,5	-0,447450
15,300167	0,5	-0,446250
15,308500	0,5	-0,448150
15,316833	0,5	-0,445150
15,325167	0,5	-0,446450
15,333500	0,5	-0,455000
15,341833	0,5	-0,445450
15,350167	0,5	-0,448250
15,358500	0,5	-0,448450
15,366833	0,5	-0,457550
15,375167	0,5	-0,461350
15,383500	0,5	-0,458650
15,391833	0,5	-0,457950
15,400167	0,5	-0,453800
15,408500	0,5	-0,454400
15,416833	0,5	-0,452000
15,425167	0,5	-0,449800
15,433500	0,5	-0,451700
15,441833	0,5	-0,453350
15,450167	0,5	-0,454200
15,458500	0,5	-0,449500
15,466833	0,5	-0,443200
15,475167	0,5	-0,457850
15,483500	0,5	-0,449200
15,491833	0,5	-0,444450
15,500167	0,5	-0,451300
15,508500	0,5	-0,452700
15,516833	0,5	-0,468750
15,525167	0,5	-0,472050
15,533500	0,5	-0,481400
15,541833	0,5	-0,477950
15,550167	0,5	-0,485050
15,558500	0,5	-0,486950
15,566833	0,5	-0,491250
15,575167	0,5	-0,488900
15,583500	0,5	-0,493850
15,591833	0,5	-0,494300
15,600167	0,5	-0,498700
15,608500	0,5	-0,498650
15,616833	0,5	-0,496000
15,625167	0,5	-0,511400
15,633500	0,5	-0,509100
15,641833	0,5	-0,499900
15,650167	0,5	-0,504800
15,658500	0,5	-0,508550
15,666833	0,5	-0,521150
15,675167	0,5	-0,517250
15,683500	0,5	-0,515750
15,691833	0,5	-0,518850
15,700167	0,5	-0,516950
15,708500	0,5	-0,519950
15,716833	0,5	-0,524350
15,725167	0,5	-0,525450
15,733500	0,5	-0,524900
15,741833	0,5	-0,527200
15,750167	0,5	-0,522350
15,758500	0,5	-0,527000
15,766833	0,5	-0,522850
15,775167	0,5	-0,531550
15,783500	0,5	-0,522250
15,791833	0,5	-0,526150
15,800167	0,5	-0,527000
15,808500	0,5	-0,534250
15,816833	0,5	-0,544500
15,825167	0,5	-0,540250
15,833500	0,5	-0,542350
15,841833	0,5	-0,543500
15,850167	0,5	-0,544650
15,858500	0,5	-0,547650
15,866833	0,5	-0,545350
15,875167	0,5	-0,546500
15,883500	0,5	-0,549950
15,891833	0,5	-0,548250
15,900167	0,5	-0,550450
15,908500	0,5	-0,542950
15,916833	0,5	-0,551150
15,925167	0,5	-0,560950
15,933500	0,5	-0,553200
15,941833	0,5	-0,554350
15,950167	0,5	-0,561300
15,958500	0,5	-0,569200
15,966833	0,5	-0,576800
15,975167	0,5	-0,570500
15,983500	0,5	-0,576200
15,991833	0,5	-0,570150
16,000167	0,5	-0,575350
16,008500	0,5	-0,570200
16,016833	0,5	-0,569100
16,025167	0,5	-0,574700
16,033500	0,5	-0,569050
16,041833	0,5	-0,571450
16,050167	0,5	-0,567450
16,058500	0,5	-0,561500
16,066833	0,5	-0,568050
16,075167	0,5	-0,565100
16,083500	0,5	-0,563700
16,091833	0,5	-0,565900
16,100167	0,5	-0,573450
16,108500	0,5	-0,584400
16,116833	0,5	-0,583850
16,125167	0,5	-0,590250
16,133500	0,5	-0,586250
16,141833	0,5	-0,585300
16,150167	0,5	-0,573400
16,158500	0,5	-0,580200
16,166833	0,5	-0,574600
16,175167	0,5	-0,573400
16,183500	0,5	-0,577250
16,191833	0,5	-0,576450
16,200167	0,5	-0,575050
16,208500	0,5	-0,581650
16,216833	0,5	-0,589250
16,225167	0,5	-0,584000
16,233500	0,5	-0,584150
16,241833	0,5	-0,588200
16,250167	0,5	-0,594050
16,258500	0,5	-0,600900
16,266833	0,5	-0,604100
16,275167	0,5	-0,597700
16,283500	0,5	-0,599450
16,291833	0,5	-0,595550
16,300167	0,5	-0,599050
16,308500	0,5	-0,591300
16,316833	0,5	-0,594000
16,325167	0,5	-0,594800
16,333500	0,5	-0,599200
16,341833	0,5	-0,595250
16,350167	0,5	-0,591500
16,358500	0,5	-0,600300
16,366833	0,5	-0,595250
16,375167	0,5	-0,591750
16,383500	0,5	-0,588700
16,391833	0,5	-0,591700
16,400167	0,5	-0,603150
16,408500	0,5	-0,605650
16,416833	0,5	-0,600600
16,425167	0,5	-0,605250
16,433500	0,5	-0,598500
16,441833	0,5	-0,607150
16,450167	0,5	-0,596300
16,458500	0,5	-0,601200
16,466833	0,5	-0,597650
16,475167	0,5	-0,595750
16,483500	0,5	-0,598300
16,491833	0,5	-0,587900
16,500167	0,5	-0,585400
16,508500	0,5	-0,600250
16,516833	0,5	-0,588400
16,525167	0,5	-0,585600
16,533500	0,5	-0,585250
16,541833	0,5	-0,586000
16,550167	0,5	-0,597300
16,558500	0,5	-0,589600
16,566833	0,5	-0,590950
16,575167	0,5	-0,587450
16,583500	0,5	-0,591000
16,591833	0,5	-0,580100
16,600167	0,5	-0,584450
16,608500	0,5	-0,577500
16,616833	0,5	-0,578750
16,625167	0,5	-0,574650
16,633500	0,5	-0,575800
16,641833	0,5	-0,566000
16,650167	0,5	-0,567900
16,658500	0,5	-0,571950
16,666833	0,5	-0,558100
16,675167	0,5	-0,554200
16,683500	0,5	-0,554700
16,691833	0,5	-0,559650
16,700167	0,5	-0,566750
16,708500	0,5	-0,564600
16,716833	0,5	-0,559800
16,725167	0,5	-0,561750
16,733500	0,5	-0,557000
16,741833	0,5	-0,553400
16,750167	0,5	-0,549400
16,758500	0,5	-0,552950
16,766833	0,5	-0,545200
16,775167	0,5	-0,548950
16,783500	0,5	-0,543500
16,791833	0,5	-0,539150
16,800167	0,5	-0,538750
16,808500	0,5	-0,537150
16,816833	0,5	-0,528950
16,825167	0,5	-0,527150
16,833500	0,5	-0,529950
16,841833	0,5	-0,539450
16,850167	0,5	-0,536250
16,858500	0,5	-0,523350
16,866833	0,5	-0,523350
16,875167	0,5	-0,520750
16,883500	0,5	-0,520500
16,891833	0,5	-0,514950
16,900167	0,5	-0,511850
16,908500	0,5	-0,503800
16,916833	0,5	-0,505150
16,925167	0,5	-0,499950
16,933500	0,5	-0,497800
16,941833	0,5	-0,484300
16,950167	0,5	-0,491050
16,958500	0,5	-0,478950
16,966833	0,5	-0,475950
16,975167	0,5	-0,470400
16,983500	0,5	-0,475100
16,991833	0,5	-0,476100
17,000167	0,5	-0,478600
17,008500	0,5	-0,468550
17,016833	0,5	-0,472400
17,025167	0,5	-0,465050
17,033500	0,5	-0,457900
17,041833	0,5	-0,456150
17,050167	0,5	-0,456450
17,058500	0,5	-0,450950
17,066833	0,5	-0,445350
17,075167	0,5	-0,447350
17,083500	0,5	-0,437750
17,091833	0,5	-0,439800
17,100167	0,5	-0,440650
17,108500	0,5	-0,433950
17,116833	0,5	-0,435450
17,125167	0,5	-0,436400
17,133500	0,5	-0,440750
17,141833	0,5	-0,448500
17,150167	0,5	-0,444050
17,158500	0,5	-0,445600
17,166833	0,5	-0,441100
17,175167	0,5	-0,437550
17,183500	0,5	-0,441650
17,191833	0,5	-0,438300
17,200167	0,5	-0,435650
17,208500	0,5	-0,435750
17,216833	0,5	-0,437150
17,225167	0,5	-0,429700
17,233500	0,5	-0,428600
17,241833	0,5	-0,434150
17,250167	0,5	-0,435000
17,258500	0,5	-0,426750
17,266833	0,5	-0,432050
17,275167	0,5	-0,432150
17,283500	0,5	-0,444950
17,291833	0,5	-0,449650
17,300167	0,5	-0,453200
17,308500	0,5	-0,447550
17,316833	0,5	-0,453200
17,325167	0,5	-0,448550
17,333500	0,5	-0,450550
17,341833	0,5	-0,448650
17,350167	0,5	-0,446850
17,358500	0,5	-0,451550
17,366833	0,5	-0,452550
17,375167	0,5	-0,451450
17,383500	0,5	-0,455600
17,391833	0,5	-0,462950
17,400167	0,5	-0,455000
17,408500	0,5	-0,453500
17,416833	0,5	-0,458700
17,425167	0,5	-0,470100
17,433500	0,5	-0,476900
17,441833	0,5	-0,481550
17,450167	0,5	-0,476950
17,458500	0,5	-0,481150
17,466833	0,5	-0,478650
17,475167	0,5	-0,478400
17,483500	0,5	-0,481800
17,491833	0,5	-0,484100
17,500167	0,5	-0,482350
17,508500	0,5	-0,491200
17,516833	0,5	-0,492500
17,525167	0,5	-0,483100
17,533500	0,5	-0,491350
17,541833	0,5	-0,502550
17,550167	0,5	-0,494900
17,558500	0,5	-0,494250
17,566833	0,5	-0,501650
17,575167	0,5	-0,512050
17,583500	0,5	-0,522800
17,591833	0,5	-0,514500
17,600167	0,5	-0,520700
17,608500	0,5	-0,529450
17,616833	0,5	-0,532200
17,625167	0,5	-0,528050
17,633500	0,5	-0,533650
17,641833	0,5	-0,530850
17,650167	0,5	-0,535000
17,658500	0,5	-0,538550
17,666833	0,5	-0,542100
17,675167	0,5	-0,538250
17,683500	0,5	-0,554500
17,691833	0,5	-0,551150
17,700167	0,5	-0,551050
17,708500	0,5	-0,559000
17,716833	0,5	-0,559350
17,725167	0,5	-0,580900
17,733500	0,5	-0,579700
17,741833	0,5	-0,584450
17,750167	0,5	-0,584700
17,758500	0,5	-0,589500
17,766833	0,5	-0,588450
17,775167	0,5	-0,594500
17,783500	0,5	-0,590900
17,791833	0,5	-0,601450
17,800167	0,5	-0,604050
17,808500	0,5	-0,614550
17,816833	0,5	-0,618050
17,825167	0,5	-0,615850
17,833500	0,5	-0,629350
17,841833	0,5	-0,620200
17,850167	0,5	-0,622600
17,858500	0,5	-0,630450
17,866833	0,5	-0,639550
17,875167	0,5	-0,660150
17,883500	0,5	-0,659350
17,891833	0,5	-0,658350
17,900167	0,5	-0,668850
17,908500	0,5	-0,676900
17,916833	0,5	-0,678000
17,925167	0,5	-0,675900
17,933500	0,5	-0,680850
17,941833	0,5	-0,679800
17,950167	0,5	-0,684700
17,958500	0,5	-0,686900
17,966833	0,5	-0,691700
17,975167	0,5	-0,690450
17,983500	0,5	-0,706350
17,991833	0,5	-0,693400
18,000167	0,5	-0,700900
18,008500	0,5	-0,708000
18,016833	0,5	-0,715950
18,025167	0,5	-0,729300
18,033500	0,5	-0,723250
18,041833	0,5	-0,727850
18,050167	0,5	-0,729000
18,058500	0,5	-0,731850
18,066833	0,5	-0,730200
18,075167	0,5	-0,730600
18,083500	0,5	-0,727150
18,091833	0,5	-0,732850
18,100167	0,5	-0,740900
18,108500	0,5	-0,741800
18,116833	0,5	-0,736800
18,125167	0,5	-0,743800
18,133500	0,5	-0,742250
18,141833	0,5	-0,743500
18,150167	0,5	-0,746700
18,158500	0,5	-0,754600
18,166833	0,5	-0,767100
18,175167	0,5	-0,779400
18,183500	0,5	-0,776000
18,191833	0,5	-0,777600
18,200167	0,5	-0,779600
18,208500	0,5	-0,778000
18,216833	0,5	-0,780150
18,225167	0,5	-0,780450
18,233500	0,5	-0,786200
18,241833	0,5	-0,784100
18,250167	0,5	-0,788150
18,258500	0,5	-0,781150
18,266833	0,5	-0,781600
18,275167	0,5	-0,791100
18,283500	0,5	-0,787900
18,291833	0,5	-0,790650
18,300167	0,5	-0,799800
18,308500	0,5	-0,807300
18,316833	0,5	-0,818500
18,325167	0,5	-0,819300
18,333500	0,5	-0,823150
18,341833	0,5	-0,824800
18,350167	0,5	-0,828900
18,358500	0,5	-0,824600
18,366833	0,5	-0,826950
18,375167	0,5	-0,826750
18,383500	0,5	-0,827400
18,391833	0,5	-0,832550
18,400167	0,5	-0,837500
18,408500	0,5	-0,834000
18,416833	0,5	-0,841200
18,425167	0,5	-0,840900
18,433500	0,5	-0,837650
18,441833	0,5	-0,838300
18,450167	0,5	-0,842250
18,458500	0,5	-0,854350
18,466833	0,5	-0,856700
18,475167	0,5	-0,860400
18,483500	0,5	-0,854550
18,491833	0,5	-0,862350
18,500167	0,5	-0,866850
18,508500	0,5	-0,864100
18,516833	0,5	-0,862100
18,525167	0,5	-0,864900
18,533500	0,5	-0,864900
18,541833	0,5	-0,862150
18,550167	0,5	-0,866200
18,558500	0,5	-0,858850
18,566833	0,5	-0,877150
18,575167	0,5	-0,864100
18,583500	0,5	-0,864150
18,591833	0,5	-0,865150
18,600167	0,5	-0,872600
18,608500	0,5	-0,887700
18,616833	0,5	-0,883200
18,625167	0,5	-0,879900
18,633500	0,5	-0,879700
18,641833	0,5	-0,880200
18,650167	0,5	-0,884150
18,658500	0,5	-0,883900
18,666833	0,5	-0,886150
18,675167	0,5	-0,882400
18,683500	0,5	-0,879600
18,691833	0,5	-0,887550
18,700167	0,5	-0,880250
18,708500	0,5	-0,873250
18,716833	0,5	-0,893950
18,725167	0,5	-0,872750
18,733500	0,5	-0,874300
18,741833	0,5	-0,875600
18,750167	0,5	-0,878800
18,758500	0,5	-0,898400
18,766833	0,5	-0,884350
18,775167	0,5	-0,889900
18,783500	0,5	-0,885100
18,791833	0,5	-0,892600
18,800167	0,5	-0,885850
18,808500	0,5	-0,892050
18,816833	0,5	-0,885250
18,825167	0,5	-0,886350
18,833500	0,5	-0,890850
18,841833	0,5	-0,886900
18,850167	0,5	-0,883200
18,858500	0,5	-0,888300
18,866833	0,5	-0,886450
18,875167	0,5	-0,880500
18,883500	0,5	-0,881200
18,891833	0,5	-0,894200
18,900167	0,5	-0,903500
18,908500	0,5	-0,909350
18,916833	0,5	-0,908800
18,925167	0,5	-0,905900
18,933500	0,5	-0,916050
18,941833	0,5	-0,915150
18,950167	0,5	-0,922800
18,958500	0,5	-0,920700
18,966833	0,5	-0,922150
18,975167	0,5	-0,925350
18,983500	0,5	-0,926650
18,991833	0,5	-0,936450
19,000167	0,5	-0,934150
19,008500	0,5	-0,942650
19,016833	0,5	-0,943550
19,025167	0,5	-0,941400
19,033500	0,5	-0,948250
19,041833	0,5	-0,957200
19,050167	0,5	-0,973800
19,058500	0,5	-0,986550
19,066833	0,5	-0,977300
19,075167	0,5	-0,982950
19,083500	0,5	-0,983100
19,091833	0,5	-0,989750
19,100167	0,5	-0,984950
19,108500	0,5	-0,987550
19,116833	0,5	-0,986300
19,125167	0,5	-0,987650
19,133500	0,5	-0,993350
19,141833	0,5	-0,988400
19,150167	0,5	-0,992600
19,158500	0,5	-1,000450
19,166833	0,5	-0,990650
19,175167	0,5	-0,996800
19,183500	0,5	-1,002150
19,191833	0,5	-1,017150
19,200167	0,5	-1,028100
19,208500	0,5	-1,027250
19,216833	0,5	-1,030950
19,225167	0,5	-1,027800
19,233500	0,5	-1,032650
19,241833	0,5	-1,027050
19,250167	0,5	-1,031400
19,258500	0,5	-1,029450
19,266833	0,5	-1,028700
19,275167	0,5	-1,027450
19,283500	0,5	-1,029100
19,291833	0,5	-1,024100
19,300167	0,5	-1,040550
19,308500	0,5	-1,031100
19,316833	0,5	-1,029400
19,325167	0,5	-1,032350
19,333500	0,5	-1,038000
19,341833	0,5	-1,052250
19,350167	0,5	-1,053900
19,358500	0,5	-1,054450
19,366833	0,5	-1,048650
19,375167	0,5	-1,054450
19,383500	0,5	-1,057750
19,391833	0,5	-1,054950
19,400167	0,5	-1,048400
19,408500	0,5	-1,050600
19,416833	0,5	-1,046900
19,425167	0,5	-1,048750
19,433500	0,5	-1,044800
19,441833	0,5	-1,044100
19,450167	0,5	-1,053850
19,458500	0,5	-1,048450
19,466833	0,5	-1,040150
19,475167	0,5	-1,046300
19,483500	0,5	-1,055850
19,491833	0,5	-1,070300
19,500167	0,5	-1,064650
19,508500	0,5	-1,062900
19,516833	0,5	-1,063800
19,525167	0,5	-1,062650
19,533500	0,5	-1,064850
19,541833	0,5	-1,062650
19,550167	0,5	-1,066050
19,558500	0,5	-1,058350
19,566833	0,5	-1,065600
19,575167	0,5	-1,064150
19,583500	0,5	-1,065800
19,591833	0,5	-1,069300
19,600167	0,5	-1,072250
19,608500	0,5	-1,060800
19,616833	0,5	-1,062150
19,625167	0,5	-1,065700
19,633500	0,5	-1,078500
19,641833	0,5	-1,084000
19,650167	0,5	-1,076100
19,658500	0,5	-1,079100
19,666833	0,5	-1,079150
19,675167	0,5	-1,081750
19,683500	0,5	-1,083550
19,691833	0,5	-1,082850
19,700167	0,5	-1,076550
19,708500	0,5	-1,077500
19,716833	0,5	-1,076150
19,725167	0,5	-1,076050
19,733500	0,5	-1,065600
19,741833	0,5	-1,077200
19,750167	0,5	-1,072900
19,758500	0,5	-1,072600
19,766833	0,5	-1,067550
19,775167	0,5	-1,075750
19,783500	0,5	-1,094900
19,791833	0,5	-1,093700
19,800167	0,5	-1,085900
19,808500	0,5	-1,084550
19,816833	0,5	-1,085050
19,825167	0,5	-1,081650
19,833500	0,5	-1,081500
19,841833	0,5	-1,075000
19,850167	0,5	-1,081300
19,858500	0,5	-1,077350
19,866833	0,5	-1,080100
19,875167	0,5	-1,074500
19,883500	0,5	-1,074600
19,891833	0,5	-1,078850
19,900167	0,5	-1,068150
19,908500	0,5	-1,069350
19,916833	0,5	-1,070900
19,925167	0,5	-1,076050
19,933500	0,5	-1,091900
19,941833	0,5	-1,087500
19,950167	0,5	-1,084050
19,958500	0,5	-1,082600
19,966833	0,5	-1,082000
19,975167	0,5	-1,086450
19,983500	0,5	-1,081450
19,991833	0,5	-1,081100
20,000167	0,5	-1,075100
20,008500	0,5	-1,077250
20,016833	0,5	-1,070400
20,025167	0,5	-1,071100
20,033500	0,5	-1,068950
20,041833	0,5	-1,072700
20,050167	0,5	-1,064000
20,058500	0,5	-1,065550
20,066833	0,5	-1,064750
20,075167	0,5	-1,086450
20,083500	0,5	-1,087850
20,091833	0,5	-1,082400
20,100167	0,5	-1,075800
20,108500	0,5	-1,076850
20,116833	0,5	-1,072350
20,125167	0,5	-1,064100
20,133500	0,5	-1,064750
20,141833	0,5	-1,057850
20,150167	0,5	-1,060700
20,158500	0,5	-1,056600
20,166833	0,5	-1,057150
20,175167	0,5	-1,056750
20,183500	0,5	-1,063550
20,191833	0,5	-1,053100
20,200167	0,5	-1,048500
20,208500	0,5	-1,048150
20,216833	0,5	-1,060450
20,225167	0,5	-1,073350
20,233500	0,5	-1,082850
20,241833	0,5	-1,075150
20,250167	0,5	-1,073750
20,258500	0,5	-1,073300
20,266833	0,5	-1,076100
20,275167	0,5	-1,079100
20,283500	0,5	-1,073350
20,291833	0,5	-1,071750
20,300167	0,5	-1,074650
20,308500	0,5	-1,075250
20,316833	0,5	-1,063750
20,325167	0,5	-1,068350
20,333500	0,5	-1,073300
20,341833	0,5	-1,072150
20,350167	0,5	-1,069950
20,358500	0,5	-1,077200
20,366833	0,5	-1,095850
20,375167	0,5	-1,103200
20,383500	0,5	-1,096900
20,391833	0,5	-1,097550
20,400167	0,5	-1,093200
20,408500	0,5	-1,094850
20,416833	0,5	-1,092650
20,425167	0,5	-1,094450
20,433500	0,5	-1,091050
20,441833	0,5	-1,087350
20,450167	0,5	-1,088600
20,458500	0,5	-1,078950
20,466833	0,5	-1,071600
20,475167	0,5	-1,084850
20,483500	0,5	-1,080400
20,491833	0,5	-1,075100
20,500167	0,5	-1,077900
20,508500	0,5	-1,082950
20,516833	0,5	-1,099500
20,525167	0,5	-1,090000
20,533500	0,5	-1,091750
20,541833	0,5	-1,088450
20,550167	0,5	-1,092200
20,558500	0,5	-1,084700
20,566833	0,5	-1,087850
20,575167	0,5	-1,083850
20,583500	0,5	-1,082250
20,591833	0,5	-1,079100
20,600167	0,5	-1,074950
20,608500	0,5	-1,053900
20,616833	0,5	-1,048250
20,625167	0,5	-1,056400
20,633500	0,5	-1,047350
20,641833	0,5	-1,046950
20,650167	0,5	-1,051000
20,658500	0,5	-1,059250
20,666833	0,5	-1,069400
20,675167	0,5	-1,063300
20,683500	0,5	-1,053050
20,691833	0,5	-1,057550
20,700167	0,5	-1,052200
20,708500	0,5	-1,051250
20,716833	0,5	-1,047900
20,725167	0,5	-1,045350
20,733500	0,5	-1,041000
20,741833	0,5	-1,036700
20,750167	0,5	-1,027400
20,758500	0,5	-1,012650
20,766833	0,5	-1,011400
20,775167	0,5	-1,017600
20,783500	0,5	-1,015550
20,791833	0,5	-1,012750
20,800167	0,5	-1,019300
20,808500	0,5	-1,025650
20,816833	0,5	-1,032500
20,825167	0,5	-1,021500
20,833500	0,5	-1,024200
20,841833	0,5	-1,018050
20,850167	0,5	-1,015900
20,858500	0,5	-1,009200
20,866833	0,5	-1,012900
20,875167	0,5	-1,008000
20,883500	0,5	-1,003050
20,891833	0,5	-0,999750
20,900167	0,5	-0,979800
20,908500	0,5	-0,964950
20,916833	0,5	-0,966900
20,925167	0,5	-0,966650
20,933500	0,5	-0,964850
20,941833	0,5	-0,963050
20,950167	0,5	-0,968200
20,958500	0,5	-0,984700
20,966833	0,5	-0,974350
20,975167	0,5	-0,971350
20,983500	0,5	-0,957100
20,991833	0,5	-0,957900
21,000167	0,5	-0,945700
21,008500	0,5	-0,944150
21,016833	0,5	-0,938600
21,025167	0,5	-0,933350
21,033500	0,5	-0,931000
21,041833	0,5	-0,918850
21,050167	0,5	-0,902100
21,058500	0,5	-0,894500
21,066833	0,5	-0,900250
21,075167	0,5	-0,897150
21,083500	0,5	-0,899450
21,091833	0,5	-0,903900
21,100167	0,5	-0,913750
21,108500	0,5	-0,914050
21,116833	0,5	-0,915600
21,125167	0,5	-0,903600
21,133500	0,5	-0,904550
21,141833	0,5	-0,895450
21,150167	0,5	-0,893850
21,158500	0,5	-0,882350
21,166833	0,5	-0,880500
21,175167	0,5	-0,875750
21,183500	0,5	-0,870800
21,191833	0,5	-0,847100
21,200167	0,5	-0,832550
21,208500	0,5	-0,822000
21,216833	0,5	-0,824000
21,225167	0,5	-0,817700
21,233500	0,5	-0,824250
21,241833	0,5	-0,826550
21,250167	0,5	-0,830850
21,258500	0,5	-0,839100
21,266833	0,5	-0,825550
21,275167	0,5	-0,821600
21,283500	0,5	-0,808150
21,291833	0,5	-0,800950
21,300167	0,5	-0,791050
21,308500	0,5	-0,779550
21,316833	0,5	-0,768200
21,325167	0,5	-0,755350
21,333500	0,5	-0,745600
21,341833	0,5	-0,709700
21,350167	0,5	-0,682650
21,358500	0,5	-0,676100
21,366833	0,5	-0,663400
21,375167	0,5	-0,644150
21,383500	0,5	-0,629550
21,391833	0,5	-0,616550
21,400167	0,5	-0,597400
21,408500	0,5	-0,574800
21,416833	0,5	-0,573300
21,425167	0,5	-0,573450
21,433500	0,5	-0,581600
21,441833	0,5	-0,576800
21,450167	0,5	-0,580600
21,458500	0,5	-0,573300
21,466833	0,5	-0,566300
21,475167	0,5	-0,557750
21,483500	0,5	-0,536750
21,491833	0,5	-0,522400
21,500167	0,5	-0,520050
21,508500	0,5	-0,521000
21,516833	0,5	-0,522750
21,525167	0,5	-0,527300
21,533500	0,5	-0,527500
21,541833	0,5	-0,541500
21,550167	0,5	-0,522250
21,558500	0,5	-0,522050
21,566833	0,5	-0,504400
21,575167	0,5	-0,496350
21,583500	0,5	-0,475900
21,591833	0,5	-0,463650
21,600167	0,5	-0,449350
21,608500	0,5	-0,426650
21,616833	0,5	-0,411100
21,625167	0,5	-0,396700
21,633500	0,5	-0,368800
21,641833	0,5	-0,349100
21,650167	0,5	-0,347250
21,658500	0,5	-0,339600
21,666833	0,5	-0,329950
21,675167	0,5	-0,324200
21,683500	0,5	-0,322400
21,691833	0,5	-0,312100
21,700167	0,5	-0,290500
21,708500	0,5	-0,275200
21,716833	0,5	-0,264350
21,725167	0,5	-0,246400
21,733500	0,5	-0,234050
21,741833	0,5	-0,213200
21,750167	0,5	-0,203050
21,758500	0,5	-0,190450
21,766833	0,5	-0,175200
21,775167	0,5	-0,152250
21,783500	0,5	-0,123550
21,791833	0,5	-0,113200
21,800167	0,5	-0,097100
21,808500	0,5	-0,081500
21,816833	0,5	-0,065900
21,825167	0,5	-0,062450
21,833500	0,5	-0,052000
21,841833	0,5	-0,032350
21,850167	0,5	-0,007000
21,858500	0,5	0,005150
21,866833	0,5	0,033850
21,875167	0,5	0,054650
21,883500	0,5	0,089250
21,891833	0,5	0,109200
21,900167	0,5	0,141600
21,908500	0,5	0,158450
21,916833	0,5	0,189450
21,925167	0,5	0,230700
21,933500	0,5	0,260800
21,941833	0,5	0,286550
21,950167	0,5	0,321050
21,958500	0,5	0,348100
21,966833	0,5	0,367250
21,975167	0,5	0,386450
21,983500	0,5	0,397550
21,991833	0,5	0,428350
22,000167	0,5	0,444750
22,008500	0,5	0,471900
22,016833	0,5	0,483150
22,025167	0,5	0,504250
22,033500	0,5	0,525450
22,041833	0,5	0,555850
22,050167	0,5	0,572250
22,058500	0,5	0,597100
22,066833	0,5	0,625450
22,075167	0,5	0,656200
22,083500	0,5	0,676800
22,091833	0,5	0,713650
22,100167	0,5	0,747300
22,108500	0,5	0,770150
22,116833	0,5	0,794750
22,125167	0,5	0,815600
22,133500	0,5	0,846100
22,141833	0,5	0,875700
22,150167	0,5	0,920200
22,158500	0,5	0,954750
22,166833	0,5	0,994950
22,175167	0,5	1,032350
22,183500	0,5	1,071050
22,191833	0,5	1,104500
22,200167	0,5	1,145200
22,208500	0,5	1,180050
22,216833	0,5	1,215350
22,225167	0,5	1,256600
22,233500	0,5	1,306850
22,241833	0,5	1,362700
22,250167	0,5	1,410700
22,258500	0,5	1,455550
22,266833	0,5	1,488050
22,275167	0,5	1,527000
22,283500	0,5	1,568650
22,291833	0,5	1,619700
22,300167	0,5	1,657650
22,308500	0,5	1,707650
22,316833	0,5	1,744100
22,325167	0,5	1,799550
22,333500	0,5	1,840900
22,341833	0,5	1,883600
22,350167	0,5	1,932700
22,358500	0,5	1,977700
22,366833	0,5	2,020200
22,375167	0,5	2,066700
22,383500	0,5	2,141150
22,391833	0,5	2,204450
22,400167	0,5	2,258650
22,408500	0,5	2,306550
22,416833	0,5	2,351300
22,425167	0,5	2,414650
22,433500	0,5	2,476400
22,441833	0,5	2,522150
22,450167	0,5	2,585850
22,458500	0,5	2,640900
22,466833	0,5	2,701950
22,475167	0,5	2,751200
22,483500	0,5	2,810950
22,491833	0,5	2,861150
22,500167	0,5	2,915100
22,508500	0,5	2,938100
22,516833	0,5	2,992450
22,525167	0,5	3,050300
22,533500	0,5	3,119300
22,541833	0,5	3,174650
22,550167	0,5	3,224100
22,558500	0,5	3,272600
22,566833	0,5	3,315700
22,575167	0,5	3,371000
22,583500	0,5	3,412050
22,591833	0,5	3,461000
22,600167	0,5	3,489450
22,608500	0,5	3,528250
22,616833	0,5	3,545200
22,625167	0,5	3,573100
22,633500	0,5	3,572600
22,641833	0,5	3,578350
22,650167	0,5	3,557000
22,658500	0,5	3,517900
22,666833	0,5	3,504400
22,675167	0,5	3,494650
22,683500	0,5	3,451950
22,691833	0,5	3,396750
22,700167	0,5	3,328950
22,708500	0,5	3,245150
22,716833	0,5	3,164350
22,725167	0,5	3,082150
22,733500	0,5	2,995150
22,741833	0,5	2,901650
22,750167	0,5	2,814700
22,758500	0,5	2,712250
22,766833	0,5	2,619350
22,775167	0,5	2,512450
22,783500	0,5	2,406150
22,791833	0,5	2,291300
22,800167	0,5	2,132450
22,808500	0,5	2,011000
22,816833	0,5	1,892300
22,825167	0,5	1,772300
22,833500	0,5	1,629950
22,841833	0,5	1,486400
22,850167	0,5	1,346750
22,858500	0,5	1,211800
22,866833	0,5	1,071650
22,875167	0,5	0,927150
22,883500	0,5	0,801450
22,891833	0,5	0,664500
22,900167	0,5	0,541350
22,908500	0,5	0,413300
22,916833	0,5	0,293650
22,925167	0,5	0,169050
22,933500	0,5	0,053500
22,941833	0,5	-0,062300
22,950167	0,5	-0,184450
22,958500	0,5	-0,285850
22,966833	0,5	-0,416750
22,975167	0,5	-0,552450
22,983500	0,5	-0,655250
22,991833	0,5	-0,752750
23,000167	0,5	-0,845300
23,008500	0,5	-0,925750
23,016833	0,5	-1,016150
23,025167	0,5	-1,096250
23,033500	0,5	-1,169900
23,041833	0,5	-1,233150
23,050167	0,5	-1,300350
23,058500	0,5	-1,347900
23,066833	0,5	-1,412200
23,075167	0,5	-1,457300
23,083500	0,5	-1,514300
23,091833	0,5	-1,533450
23,100167	0,5	-1,593300
23,108500	0,5	-1,631550
23,116833	0,5	-1,710100
23,125167	0,5	-1,769550
23,133500	0,5	-1,808650
23,141833	0,5	-1,838100
23,150167	0,5	-1,864250
23,158500	0,5	-1,892200
23,166833	0,5	-1,909400
23,175167	0,5	-1,930800
23,183500	0,5	-1,943100
23,191833	0,5	-1,954050
23,200167	0,5	-1,957000
23,208500	0,5	-1,968800
23,216833	0,5	-1,967350
23,225167	0,5	-1,979150
23,233500	0,5	-1,977700
23,241833	0,5	-1,979850
23,250167	0,5	-1,988250
23,258500	0,5	-1,974050
23,266833	0,5	-2,005150
23,275167	0,5	-2,032350
23,283500	0,5	-2,037800
23,291833	0,5	-2,040450
23,300167	0,5	-2,033600
23,308500	0,5	-2,030850
23,316833	0,5	-2,031500
23,325167	0,5	-2,027550
23,333500	0,5	-2,014200
23,341833	0,5	-2,000700
23,350167	0,5	-1,987600
23,358500	0,5	-1,970150
23,366833	0,5	-1,960150
23,375167	0,5	-1,936450
23,383500	0,5	-1,917750
23,391833	0,5	-1,949450
23,400167	0,5	-1,908800
23,408500	0,5	-1,872850
23,416833	0,5	-1,877600
23,425167	0,5	-1,877900
23,433500	0,5	-1,875500
23,441833	0,5	-1,862700
23,450167	0,5	-1,852900
23,458500	0,5	-1,850300
23,466833	0,5	-1,841700
23,475167	0,5	-1,828450
23,483500	0,5	-1,817450
23,491833	0,5	-1,805500
23,500167	0,5	-1,789100
23,508500	0,5	-1,772000
23,516833	0,5	-1,755350
23,525167	0,5	-1,744100
23,533500	0,5	-1,779650
23,541833	0,5	-1,769050
23,550167	0,5	-1,745300
23,558500	0,5	-1,676150
23,566833	0,5	-1,666850
23,575167	0,5	-1,655150
23,583500	0,5	-1,643400
23,591833	0,5	-1,633750
23,600167	0,5	-1,620750
23,608500	0,5	-1,605250
23,616833	0,5	-1,592650
23,625167	0,5	-1,579700
23,633500	0,5	-1,566500
23,641833	0,5	-1,550100
23,650167	0,5	-1,536000
23,658500	0,5	-1,522900
23,666833	0,5	-1,506950
23,675167	0,5	-1,498000
23,683500	0,5	-1,595450
23,691833	0,5	-1,549600
23,700167	0,5	-1,524750
23,708500	0,5	-1,460600
23,716833	0,5	-1,440450
23,725167	0,5	-1,426250
23,733500	0,5	-1,410750
23,741833	0,5	-1,407700
23,750167	0,5	-1,383800
23,758500	0,5	-1,368800
23,766833	0,5	-1,347450
23,775167	0,5	-1,330150
23,783500	0,5	-1,309200
23,791833	0,5	-1,294450
23,800167	0,5	-1,275750
23,808500	0,5	-1,253950
23,816833	0,5	-1,236950
23,825167	0,5	-1,258450
23,833500	0,5	-1,339650
23,841833	0,5	-1,282650
23,850167	0,5	-1,239700
23,858500	0,5	-1,185950
23,866833	0,5	-1,172400
23,875167	0,5	-1,157150
23,883500	0,5	-1,153500
23,891833	0,5	-1,150200
23,900167	0,5	-1,139350
23,908500	0,5	-1,116750
23,916833	0,5	-1,103050
23,925167	0,5	-1,082650
23,933500	0,5	-1,063750
23,941833	0,5	-1,047250
23,950167	0,5	-1,024700
23,958500	0,5	-1,005550
23,966833	0,5	-0,991850
23,975167	0,5	-1,078700
23,983500	0,5	-1,066850
23,991833	0,5	-1,031000
24,000167	0,5	-0,976650
24,008500	0,5	-0,930400
24,016833	0,5	-0,909850
24,025167	0,5	-0,899500
24,033500	0,5	-0,894850
24,041833	0,5	-0,894350
24,050167	0,5	-0,869150
24,058500	0,5	-0,858350
24,066833	0,5	-0,837200
24,075167	0,5	-0,826300
24,083500	0,5	-0,808250
24,091833	0,5	-0,799250
24,100167	0,5	-0,780950
24,108500	0,5	-0,770650
24,116833	0,5	-0,757450
24,125167	0,5	-0,848400
24,133500	0,5	-0,809900
24,141833	0,5	-0,781500
24,150167	0,5	-0,733200
24,158500	0,5	-0,706850
24,166833	0,5	-0,692250
24,175167	0,5	-0,681000
24,183500	0,5	-0,685700
24,191833	0,5	-0,667850
24,200167	0,5	-0,652550
24,208500	0,5	-0,630050
24,216833	0,5	-0,617900
24,225167	0,5	-0,600750
24,233500	0,5	-0,586000
24,241833	0,5	-0,569450
24,250167	0,5	-0,553100
24,258500	0,5	-0,538950
24,266833	0,5	-0,562000
24,275167	0,5	-0,604900
24,283500	0,5	-0,596050
24,291833	0,5	-0,552900
24,300167	0,5	-0,521800
24,308500	0,5	-0,502300
24,316833	0,5	-0,493000
24,325167	0,5	-0,493150
24,333500	0,5	-0,488450
24,341833	0,5	-0,477250
24,350167	0,5	-0,465350
24,358500	0,5	-0,450950
24,366833	0,5	-0,437400
24,375167	0,5	-0,426850
24,383500	0,5	-0,419250
24,391833	0,5	-0,401850
24,400167	0,5	-0,385500
24,408500	0,5	-0,378850
24,416833	0,5	-0,426100
24,425167	0,5	-0,418700
24,433500	0,5	-0,404600
24,441833	0,5	-0,370950
24,450167	0,5	-0,348200
24,458500	0,5	-0,335450
24,466833	0,5	-0,332550
24,475167	0,5	-0,344700
24,483500	0,5	-0,337750
24,491833	0,5	-0,321100
24,500167	0,5	-0,311350
24,508500	0,5	-0,307300
24,516833	0,5	-0,298650
24,525167	0,5	-0,291250
24,533500	0,5	-0,284750
24,541833	0,5	-0,272650
24,550167	0,5	-0,266850
24,558500	0,5	-0,260250
24,566833	0,5	-0,310650
24,575167	0,5	-0,286500
24,583500	0,5	-0,280150
24,591833	0,5	-0,247900
24,600167	0,5	-0,235150
24,608500	0,5	-0,225000
24,616833	0,5	-0,224100
24,625167	0,5	-0,228850
24,633500	0,5	-0,218700
24,641833	0,5	-0,208200
24,650167	0,5	-0,202600
24,658500	0,5	-0,195750
24,666833	0,5	-0,194650
24,675167	0,5	-0,189350
24,683500	0,5	-0,181200
24,691833	0,5	-0,176850
24,700167	0,5	-0,172350
24,708500	0,5	-0,189650
24,716833	0,5	-0,195650
24,725167	0,5	-0,185450
24,733500	0,5	-0,173700
24,741833	0,5	-0,153550
24,750167	0,5	-0,150950
24,758500	0,5	-0,145100
24,766833	0,5	-0,147150
24,775167	0,5	-0,154050
24,783500	0,5	-0,140000
24,791833	0,5	-0,137300
24,800167	0,5	-0,128250
24,808500	0,5	-0,124050
24,816833	0,5	-0,118700
24,825167	0,5	-0,118250
24,833500	0,5	-0,108850
24,841833	0,5	-0,104300
24,850167	0,5	-0,099650
24,858500	0,5	-0,117250
24,866833	0,5	-0,117500
24,875167	0,5	-0,110000
24,883500	0,5	-0,100050
24,891833	0,5	-0,088800
24,900167	0,5	-0,088200
24,908500	0,5	-0,086850
24,916833	0,5	-0,091400
24,925167	0,5	-0,089050
24,933500	0,5	-0,085600
24,941833	0,5	-0,077200
24,950167	0,5	-0,079550
24,958500	0,5	-0,074550
24,966833	0,5	-0,071400
24,975167	0,5	-0,065400
24,983500	0,5	-0,062250
24,991833	0,5	-0,056350
25,000167	0,5	-0,053100
25,008500	0,5	-0,064750
25,016833	0,5	-0,056850
25,025167	0,5	-0,053900
25,033500	0,5	-0,045900
25,041833	0,5	-0,040750
25,050167	0,5	-0,039250
25,058500	0,5	-0,043100
25,066833	0,5	-0,044150
25,075167	0,5	-0,044200
25,083500	0,5	-0,041750
25,091833	0,5	-0,038800
25,100167	0,5	-0,036000
25,108500	0,5	-0,038000
25,116833	0,5	-0,033800
25,125167	0,5	-0,034650
25,133500	0,5	-0,028050
25,141833	0,5	-0,025900
25,150167	0,5	-0,026300
25,158500	0,5	-0,032250
25,166833	0,5	-0,022450
25,175167	0,5	-0,020500
25,183500	0,5	-0,017600
25,191833	0,5	-0,013900
25,200167	0,5	-0,014350
25,208500	0,5	-0,015400
25,216833	0,5	-0,014800
25,225167	0,5	-0,015750
25,233500	0,5	-0,010100
25,241833	0,5	-0,010400
25,250167	0,5	-0,010000
25,258500	0,5	-0,010450
25,266833	0,5	-0,011150
25,275167	0,5	-0,012750
25,283500	0,5	-0,011750
25,291833	0,5	-0,007500
25,300167	0,5	-0,010000
25,308500	0,5	-0,008150
25,316833	0,5	-0,006650
25,325167	0,5	-0,006850
25,333500	0,5	-0,005650
25,341833	0,5	-0,003950
25,350167	0,5	-0,003350
25,358500	0,5	-0,000250
25,366833	0,5	-0,002200
25,375167	0,5	0,001450
25,383500	0,5	-0,001600
25,391833	0,5	0,002000
25,400167	0,5	0,002850
25,408500	0,5	0,001750
25,416833	0,5	0,000750
25,425167	0,5	0,003600
25,433500	0,5	0,004500
25,441833	0,5	0,003700
25,450167	0,5	0,002600
25,458500	0,5	0,003350
25,466833	0,5	0,007200
25,475167	0,5	0,003050
25,483500	0,5	0,001300
25,491833	0,5	0,004750
25,500167	0,5	0,006350
25,508500	0,5	0,006550
25,516833	0,5	0,004000
25,525167	0,5	0,005450
25,533500	0,5	0,009050
25,541833	0,5	0,013100
25,550167	0,5	0,006750
25,558500	0,5	0,008750
25,566833	0,5	0,008750
25,575167	0,5	0,009450
25,583500	0,5	0,010450
25,591833	0,5	0,010400
25,600167	0,5	0,017400
25,608500	0,5	0,016850
25,616833	0,5	0,017250
25,625167	0,5	0,010000
25,633500	0,5	0,010100
25,641833	0,5	0,009000
25,650167	0,5	0,010350
25,658500	0,5	0,012800
25,666833	0,5	0,013400
25,675167	0,5	0,012100
25,683500	0,5	0,012400
25,691833	0,5	0,012850
25,700167	0,5	0,015250
25,708500	0,5	0,014400
25,716833	0,5	0,013400
25,725167	0,5	0,014250
25,733500	0,5	0,017400
25,741833	0,5	0,023600
25,750167	0,5	0,022050
25,758500	0,5	0,022450
25,766833	0,5	0,020050
25,775167	0,5	0,018150
25,783500	0,5	0,018150
25,791833	0,5	0,018400
25,800167	0,5	0,019850
25,808500	0,5	0,024100
25,816833	0,5	0,018350
25,825167	0,5	0,022050
25,833500	0,5	0,024300
25,841833	0,5	0,024000
25,850167	0,5	0,022550
25,858500	0,5	0,021250
25,866833	0,5	0,022550
25,875167	0,5	0,021950
25,883500	0,5	0,024150
25,891833	0,5	0,026700
25,900167	0,5	0,025200
25,908500	0,5	0,030350
25,916833	0,5	0,027300
25,925167	0,5	0,027700
25,933500	0,5	0,028000
25,941833	0,5	0,030550
25,950167	0,5	0,038600
25,958500	0,5	0,039950
25,966833	0,5	0,042450
25,975167	0,5	0,036850
25,983500	0,5	0,042300
25,991833	0,5	0,039300
26,000167	0,5	0,040650
