File Path	chrom://chromeleon01/ikbm_chromeleon/2022/ICS-5000/ED1/Esteban/20220612_Cell_7_4_eg.seq/558.smp/ED_1.channel/ED_1.chm
Channel	ED_1

Injection Information:
Data Vault	ikbm_chromeleon
Injection	ne__
Injection Number	146
Position	BA7
Comment	
Processing Method	Stop sequence after Cell Death
Instrument Method	ICS5000_PA200_FullNative_Ox_26min_ED1
Type	Unknown
Status	Finished
Injection Date	15.06.2022
Injection Time	13:10:11
Injection Volume (µl)	5,0
Dilution Factor	1,0000
Weight	1,0000

Chromatogram Data Information:
Time Min. (min)	0,000333
Time Max. (min)	26,000333
Data Points	3121
Detector	EDet1
Generating Data System	Chromeleon 7.2.9.11323
Exporting Data System	Chromeleon 7.2.9.0
Operator	Instrument Controller
Signal Quantity	
Signal Unit	nC
Signal Min.	-2,296200
Signal Max.	1 323,170970
Channel	ED_1
Driver Name	DC-5000
Channel Type	Evaluation
Min. Step (s)	0,5
Max. Step (s)	0,5
Average Step (s)	0,5

Signal Parameter Information:
Signal Info	

Chromatogram Data:
Time (min)	Step (s)	Value (nC)
0,000333	n.a.	-0,026800
0,008667	0,5	-0,094350
0,017000	0,5	-0,080450
0,025333	0,5	-0,067450
0,033667	0,5	-0,053600
0,042000	0,5	-0,046650
0,050333	0,5	-0,043000
0,058667	0,5	-0,026050
0,067000	0,5	-0,047150
0,075333	0,5	-0,011250
0,083667	0,5	-0,022500
0,092000	0,5	-0,049100
0,100333	0,5	-0,059700
0,108667	0,5	-0,046300
0,117000	0,5	-0,016800
0,125333	0,5	-0,002950
0,133667	0,5	-0,028750
0,142000	0,5	-0,015500
0,150333	0,5	-0,024800
0,158667	0,5	-0,016300
0,167000	0,5	-0,032700
0,175333	0,5	-0,029600
0,183667	0,5	-0,037100
0,192000	0,5	-0,033150
0,200333	0,5	-0,034450
0,208667	0,5	-0,041150
0,217000	0,5	-0,060450
0,225333	0,5	-0,024050
0,233667	0,5	-0,051000
0,242000	0,5	-0,060550
0,250333	0,5	-0,060300
0,258667	0,5	-0,053050
0,267000	0,5	-0,014250
0,275333	0,5	-0,028050
0,283667	0,5	-0,031350
0,292000	0,5	-0,018650
0,300333	0,5	0,028800
0,308667	0,5	0,034900
0,317000	0,5	0,007400
0,325333	0,5	-0,042100
0,333667	0,5	-0,067750
0,342000	0,5	-0,076650
0,350333	0,5	-0,070550
0,358667	0,5	-0,067150
0,367000	0,5	-0,069350
0,375333	0,5	-0,050450
0,383667	0,5	-0,080100
0,392000	0,5	-0,077700
0,400333	0,5	-0,074300
0,408667	0,5	-0,062200
0,417000	0,5	-0,032650
0,425333	0,5	-0,039150
0,433667	0,5	-0,041400
0,442000	0,5	-0,040450
0,450333	0,5	-0,041950
0,458667	0,5	-0,044600
0,467000	0,5	-0,053500
0,475333	0,5	-0,051550
0,483667	0,5	-0,057950
0,492000	0,5	-0,051950
0,500333	0,5	-0,050500
0,508667	0,5	-0,034350
0,517000	0,5	-0,044450
0,525333	0,5	-0,025650
0,533667	0,5	-0,061850
0,542000	0,5	-0,056150
0,550333	0,5	-0,054600
0,558667	0,5	-0,024300
0,567000	0,5	0,001750
0,575333	0,5	0,003450
0,583667	0,5	-0,009800
0,592000	0,5	-0,003650
0,600333	0,5	-0,009950
0,608667	0,5	-0,007100
0,617000	0,5	-0,006450
0,625333	0,5	-0,009450
0,633667	0,5	-0,002400
0,642000	0,5	-0,004150
0,650333	0,5	-0,000300
0,658667	0,5	-0,009650
0,667000	0,5	0,014750
0,675333	0,5	0,007250
0,683667	0,5	-0,007550
0,692000	0,5	-0,004000
0,700333	0,5	0,007750
0,708667	0,5	0,028550
0,717000	0,5	0,053200
0,725333	0,5	0,043100
0,733667	0,5	0,050800
0,742000	0,5	0,043300
0,750333	0,5	0,051550
0,758667	0,5	0,046900
0,767000	0,5	0,048450
0,775333	0,5	0,043450
0,783667	0,5	0,039600
0,792000	0,5	0,049750
0,800333	0,5	0,030650
0,808667	0,5	0,039050
0,817000	0,5	0,069700
0,825333	0,5	0,051250
0,833667	0,5	0,038050
0,842000	0,5	0,050850
0,850333	0,5	0,066100
0,858667	0,5	0,104400
0,867000	0,5	0,099500
0,875333	0,5	0,109150
0,883667	0,5	0,098300
0,892000	0,5	0,109600
0,900333	0,5	0,098450
0,908667	0,5	0,102650
0,917000	0,5	0,097250
0,925333	0,5	0,102450
0,933667	0,5	0,105550
0,942000	0,5	0,107850
0,950333	0,5	0,105550
0,958667	0,5	0,115400
0,967000	0,5	0,130450
0,975333	0,5	0,108700
0,983667	0,5	0,099350
0,992000	0,5	0,111900
1,000333	0,5	0,130150
1,008667	0,5	0,146750
1,017000	0,5	0,144850
1,025333	0,5	0,132150
1,033667	0,5	0,144900
1,042000	0,5	0,142200
1,050333	0,5	0,151350
1,058667	0,5	0,145100
1,067000	0,5	0,147700
1,075333	0,5	0,145100
1,083667	0,5	0,146300
1,092000	0,5	0,156250
1,100333	0,5	0,150050
1,108667	0,5	0,161000
1,117000	0,5	0,173950
1,125333	0,5	0,150450
1,133667	0,5	0,144850
1,142000	0,5	0,151850
1,150333	0,5	0,175700
1,158667	0,5	0,198150
1,167000	0,5	0,175600
1,175333	0,5	0,182700
1,183667	0,5	0,185500
1,192000	0,5	0,187400
1,200333	0,5	0,181750
1,208667	0,5	0,185500
1,217000	0,5	0,181350
1,225333	0,5	0,186750
1,233667	0,5	0,184800
1,242000	0,5	0,203750
1,250333	0,5	0,178600
1,258667	0,5	0,212550
1,267000	0,5	0,187100
1,275333	0,5	0,181300
1,283667	0,5	0,179650
1,292000	0,5	0,200100
1,300333	0,5	0,226150
1,308667	0,5	0,224150
1,317000	0,5	0,217250
1,325333	0,5	0,217700
1,333667	0,5	0,216650
1,342000	0,5	0,219400
1,350333	0,5	0,223100
1,358667	0,5	0,219700
1,367000	0,5	0,224700
1,375333	0,5	0,218500
1,383667	0,5	0,224600
1,392000	0,5	0,214300
1,400333	0,5	0,214250
1,408667	0,5	0,235950
1,417000	0,5	0,213350
1,425333	0,5	0,210300
1,433667	0,5	0,213250
1,442000	0,5	0,226900
1,450333	0,5	0,258850
1,458667	0,5	0,257900
1,467000	0,5	0,260600
1,475333	0,5	0,252000
1,483667	0,5	0,256350
1,492000	0,5	0,249250
1,500333	0,5	0,249700
1,508667	0,5	0,241950
1,517000	0,5	0,237900
1,525333	0,5	0,242450
1,533667	0,5	0,240100
1,542000	0,5	0,245650
1,550333	0,5	0,258300
1,558667	0,5	0,329450
1,567000	0,5	0,478600
1,575333	0,5	0,806750
1,583667	0,5	1,452150
1,592000	0,5	4,925250
1,600333	0,5	21,415300
1,608667	0,5	81,802901
1,617000	0,5	259,777004
1,625333	0,5	619,515759
1,633667	0,5	1 045,605366
1,642000	0,5	1 307,526719
1,650333	0,5	1 323,170970
1,658667	0,5	1 134,962267
1,667000	0,5	845,966113
1,675333	0,5	579,662359
1,683667	0,5	393,300556
1,692000	0,5	276,681054
1,700333	0,5	200,119903
1,708667	0,5	151,216552
1,717000	0,5	118,651202
1,725333	0,5	96,122901
1,733667	0,5	79,809701
1,742000	0,5	67,711951
1,750333	0,5	58,679251
1,758667	0,5	51,905501
1,767000	0,5	46,921751
1,775333	0,5	43,471801
1,783667	0,5	41,568201
1,792000	0,5	41,136601
1,800333	0,5	42,072701
1,808667	0,5	44,123751
1,817000	0,5	46,781951
1,825333	0,5	48,655901
1,833667	0,5	48,262651
1,842000	0,5	45,597401
1,850333	0,5	41,974001
1,858667	0,5	38,416701
1,867000	0,5	35,538251
1,875333	0,5	33,414900
1,883667	0,5	31,870250
1,892000	0,5	30,709700
1,900333	0,5	29,782100
1,908667	0,5	29,162150
1,917000	0,5	28,578900
1,925333	0,5	27,758950
1,933667	0,5	26,657900
1,942000	0,5	25,571300
1,950333	0,5	24,768850
1,958667	0,5	24,486200
1,967000	0,5	24,861750
1,975333	0,5	25,949600
1,983667	0,5	27,402400
1,992000	0,5	28,593750
2,000333	0,5	29,048100
2,008667	0,5	28,971650
2,017000	0,5	28,930150
2,025333	0,5	29,248150
2,033667	0,5	30,014950
2,042000	0,5	31,351800
2,050333	0,5	33,325250
2,058667	0,5	36,032201
2,067000	0,5	39,255801
2,075333	0,5	42,470301
2,083667	0,5	45,444601
2,092000	0,5	48,728201
2,100333	0,5	53,133401
2,108667	0,5	58,843001
2,117000	0,5	65,456001
2,125333	0,5	72,232851
2,133667	0,5	77,781251
2,142000	0,5	79,666751
2,150333	0,5	76,407051
2,158667	0,5	69,490751
2,167000	0,5	62,058601
2,175333	0,5	56,065301
2,183667	0,5	52,200551
2,192000	0,5	50,873251
2,200333	0,5	52,477051
2,208667	0,5	55,940051
2,217000	0,5	57,973801
2,225333	0,5	56,419101
2,233667	0,5	52,791051
2,242000	0,5	49,292501
2,250333	0,5	46,076501
2,258667	0,5	42,609701
2,267000	0,5	39,179201
2,275333	0,5	36,390401
2,283667	0,5	34,348501
2,292000	0,5	32,942450
2,300333	0,5	31,917850
2,308667	0,5	31,198700
2,317000	0,5	30,725550
2,325333	0,5	30,439950
2,333667	0,5	30,227550
2,342000	0,5	30,009600
2,350333	0,5	29,788450
2,358667	0,5	29,699950
2,367000	0,5	29,743300
2,375333	0,5	29,771200
2,383667	0,5	29,529050
2,392000	0,5	28,999400
2,400333	0,5	28,341100
2,408667	0,5	27,724950
2,417000	0,5	27,197700
2,425333	0,5	26,731450
2,433667	0,5	26,344650
2,442000	0,5	26,053400
2,450333	0,5	25,782950
2,458667	0,5	25,594900
2,467000	0,5	25,485200
2,475333	0,5	25,446200
2,483667	0,5	25,468700
2,492000	0,5	25,425050
2,500333	0,5	25,338750
2,508667	0,5	25,367900
2,517000	0,5	26,231750
2,525333	0,5	28,936100
2,533667	0,5	31,040200
2,542000	0,5	29,879300
2,550333	0,5	27,585650
2,558667	0,5	25,931350
2,567000	0,5	24,898400
2,575333	0,5	24,232800
2,583667	0,5	23,817050
2,592000	0,5	23,558450
2,600333	0,5	23,399450
2,608667	0,5	23,353450
2,617000	0,5	23,369950
2,625333	0,5	23,389550
2,633667	0,5	23,323950
2,642000	0,5	23,138300
2,650333	0,5	22,849900
2,658667	0,5	22,538350
2,667000	0,5	22,229300
2,675333	0,5	21,977600
2,683667	0,5	21,757000
2,692000	0,5	21,581950
2,700333	0,5	21,424650
2,708667	0,5	21,306400
2,717000	0,5	21,203800
2,725333	0,5	21,155050
2,733667	0,5	21,189700
2,742000	0,5	21,289500
2,750333	0,5	21,436800
2,758667	0,5	21,640900
2,767000	0,5	21,843100
2,775333	0,5	22,080550
2,783667	0,5	22,351300
2,792000	0,5	22,757500
2,800333	0,5	23,442100
2,808667	0,5	24,459100
2,817000	0,5	25,710300
2,825333	0,5	26,884400
2,833667	0,5	27,589550
2,842000	0,5	27,520750
2,850333	0,5	26,719650
2,858667	0,5	25,467900
2,867000	0,5	24,210500
2,875333	0,5	23,269100
2,883667	0,5	22,826750
2,892000	0,5	22,721650
2,900333	0,5	22,875950
2,908667	0,5	23,121300
2,917000	0,5	23,337600
2,925333	0,5	23,440250
2,933667	0,5	23,329500
2,942000	0,5	23,021450
2,950333	0,5	22,559200
2,958667	0,5	21,988800
2,967000	0,5	21,401950
2,975333	0,5	20,914150
2,983667	0,5	20,677950
2,992000	0,5	20,902900
3,000333	0,5	21,806200
3,008667	0,5	23,525600
3,017000	0,5	25,850400
3,025333	0,5	28,289800
3,033667	0,5	30,147200
3,042000	0,5	30,861350
3,050333	0,5	30,375150
3,058667	0,5	28,936650
3,067000	0,5	26,921150
3,075333	0,5	24,732350
3,083667	0,5	22,574350
3,092000	0,5	20,692000
3,100333	0,5	19,134950
3,108667	0,5	17,934000
3,117000	0,5	17,021650
3,125333	0,5	16,367200
3,133667	0,5	15,894950
3,142000	0,5	15,580650
3,150333	0,5	15,411900
3,158667	0,5	15,381150
3,167000	0,5	15,491500
3,175333	0,5	15,755650
3,183667	0,5	16,118150
3,192000	0,5	16,425950
3,200333	0,5	16,634900
3,208667	0,5	16,625150
3,217000	0,5	16,389250
3,225333	0,5	15,941800
3,233667	0,5	15,374550
3,242000	0,5	14,802000
3,250333	0,5	14,322600
3,258667	0,5	13,927800
3,267000	0,5	13,639550
3,275333	0,5	13,409900
3,283667	0,5	13,231950
3,292000	0,5	13,083100
3,300333	0,5	12,948350
3,308667	0,5	12,834200
3,317000	0,5	12,710050
3,325333	0,5	12,621450
3,333667	0,5	12,533650
3,342000	0,5	12,445400
3,350333	0,5	12,396100
3,358667	0,5	12,370200
3,367000	0,5	12,367100
3,375333	0,5	12,386050
3,383667	0,5	12,389800
3,392000	0,5	12,445400
3,400333	0,5	12,553050
3,408667	0,5	12,779800
3,417000	0,5	13,168850
3,425333	0,5	13,821800
3,433667	0,5	14,738550
3,442000	0,5	15,893450
3,450333	0,5	17,076200
3,458667	0,5	18,007450
3,467000	0,5	18,424300
3,475333	0,5	18,258550
3,483667	0,5	17,505400
3,492000	0,5	16,425800
3,500333	0,5	15,259050
3,508667	0,5	14,201350
3,517000	0,5	13,349550
3,525333	0,5	12,695200
3,533667	0,5	12,231100
3,542000	0,5	11,891900
3,550333	0,5	11,650500
3,558667	0,5	11,451400
3,567000	0,5	11,306600
3,575333	0,5	11,184400
3,583667	0,5	11,097450
3,592000	0,5	11,025450
3,600333	0,5	10,980800
3,608667	0,5	10,933250
3,617000	0,5	10,931850
3,625333	0,5	10,965300
3,633667	0,5	11,035000
3,642000	0,5	11,173150
3,650333	0,5	11,400150
3,658667	0,5	11,673800
3,667000	0,5	11,918800
3,675333	0,5	12,077550
3,683667	0,5	12,140250
3,692000	0,5	12,137800
3,700333	0,5	12,104550
3,708667	0,5	12,048500
3,717000	0,5	11,992150
3,725333	0,5	11,943550
3,733667	0,5	11,905200
3,742000	0,5	11,895250
3,750333	0,5	11,875900
3,758667	0,5	11,873900
3,767000	0,5	11,900900
3,775333	0,5	11,921350
3,783667	0,5	11,951700
3,792000	0,5	12,027900
3,800333	0,5	12,149750
3,808667	0,5	12,372950
3,817000	0,5	12,702450
3,825333	0,5	13,323400
3,833667	0,5	14,533800
3,842000	0,5	16,777050
3,850333	0,5	20,221850
3,858667	0,5	24,560650
3,867000	0,5	29,012650
3,875333	0,5	32,676550
3,883667	0,5	34,877451
3,892000	0,5	35,339651
3,900333	0,5	34,264601
3,908667	0,5	32,080550
3,917000	0,5	29,412100
3,925333	0,5	26,611850
3,933667	0,5	24,045350
3,942000	0,5	21,846950
3,950333	0,5	20,051750
3,958667	0,5	18,613400
3,967000	0,5	17,432550
3,975333	0,5	16,448500
3,983667	0,5	15,661950
3,992000	0,5	14,984950
4,000333	0,5	14,416000
4,008667	0,5	13,916150
4,017000	0,5	13,488750
4,025333	0,5	13,117650
4,033667	0,5	12,794350
4,042000	0,5	12,508850
4,050333	0,5	12,242050
4,058667	0,5	12,006150
4,067000	0,5	11,826250
4,075333	0,5	11,615900
4,083667	0,5	11,443800
4,092000	0,5	11,289650
4,100333	0,5	11,157900
4,108667	0,5	11,054600
4,117000	0,5	10,911300
4,125333	0,5	10,797900
4,133667	0,5	10,675450
4,142000	0,5	10,585450
4,150333	0,5	10,481100
4,158667	0,5	10,399900
4,167000	0,5	10,303100
4,175333	0,5	10,225250
4,183667	0,5	10,149850
4,192000	0,5	10,074400
4,200333	0,5	9,991850
4,208667	0,5	9,936950
4,217000	0,5	9,886700
4,225333	0,5	9,808100
4,233667	0,5	9,754000
4,242000	0,5	9,710400
4,250333	0,5	9,675700
4,258667	0,5	9,650100
4,267000	0,5	9,602550
4,275333	0,5	9,552850
4,283667	0,5	9,516950
4,292000	0,5	9,468650
4,300333	0,5	9,427000
4,308667	0,5	9,379850
4,317000	0,5	9,339900
4,325333	0,5	9,292900
4,333667	0,5	9,258400
4,342000	0,5	9,213550
4,350333	0,5	9,183850
4,358667	0,5	9,155650
4,367000	0,5	9,131600
4,375333	0,5	9,081000
4,383667	0,5	9,058300
4,392000	0,5	9,038250
4,400333	0,5	9,042300
4,408667	0,5	9,039350
4,417000	0,5	9,018450
4,425333	0,5	9,002250
4,433667	0,5	8,984700
4,442000	0,5	8,972100
4,450333	0,5	8,953900
4,458667	0,5	8,940750
4,467000	0,5	8,921750
4,475333	0,5	8,912550
4,483667	0,5	8,894600
4,492000	0,5	8,883350
4,500333	0,5	8,878300
4,508667	0,5	8,912450
4,517000	0,5	8,930300
4,525333	0,5	8,971300
4,533667	0,5	9,043550
4,542000	0,5	9,146450
4,550333	0,5	9,273100
4,558667	0,5	9,403950
4,567000	0,5	9,521650
4,575333	0,5	9,639200
4,583667	0,5	9,727900
4,592000	0,5	9,794150
4,600333	0,5	9,822250
4,608667	0,5	9,801250
4,617000	0,5	9,744800
4,625333	0,5	9,652800
4,633667	0,5	9,543950
4,642000	0,5	9,397900
4,650333	0,5	9,275100
4,658667	0,5	9,157150
4,667000	0,5	9,027900
4,675333	0,5	8,909250
4,683667	0,5	8,820350
4,692000	0,5	8,743150
4,700333	0,5	8,690550
4,708667	0,5	8,625700
4,717000	0,5	8,575150
4,725333	0,5	8,517150
4,733667	0,5	8,478450
4,742000	0,5	8,432150
4,750333	0,5	8,400600
4,758667	0,5	8,366900
4,767000	0,5	8,339200
4,775333	0,5	8,319300
4,783667	0,5	8,290150
4,792000	0,5	8,257800
4,800333	0,5	8,253800
4,808667	0,5	8,237600
4,817000	0,5	8,209500
4,825333	0,5	8,190250
4,833667	0,5	8,178450
4,842000	0,5	8,188050
4,850333	0,5	8,176050
4,858667	0,5	8,158850
4,867000	0,5	8,135900
4,875333	0,5	8,134500
4,883667	0,5	8,109700
4,892000	0,5	8,098350
4,900333	0,5	8,075550
4,908667	0,5	8,056900
4,917000	0,5	8,031700
4,925333	0,5	8,011150
4,933667	0,5	7,986800
4,942000	0,5	7,954750
4,950333	0,5	7,952000
4,958667	0,5	7,919150
4,967000	0,5	7,883300
4,975333	0,5	7,856700
4,983667	0,5	7,835300
4,992000	0,5	7,831650
5,000333	0,5	7,807350
5,008667	0,5	7,770350
5,017000	0,5	7,746750
5,025333	0,5	7,717300
5,033667	0,5	7,697500
5,042000	0,5	7,669100
5,050333	0,5	7,651000
5,058667	0,5	7,625400
5,067000	0,5	7,611650
5,075333	0,5	7,599050
5,083667	0,5	7,585400
5,092000	0,5	7,561150
5,100333	0,5	7,581850
5,108667	0,5	7,555800
5,117000	0,5	7,555350
5,125333	0,5	7,555500
5,133667	0,5	7,568600
5,142000	0,5	7,597950
5,150333	0,5	7,590800
5,158667	0,5	7,587500
5,167000	0,5	7,581150
5,175333	0,5	7,581250
5,183667	0,5	7,574100
5,192000	0,5	7,568300
5,200333	0,5	7,550900
5,208667	0,5	7,539850
5,217000	0,5	7,521650
5,225333	0,5	7,504700
5,233667	0,5	7,474050
5,242000	0,5	7,458350
5,250333	0,5	7,455900
5,258667	0,5	7,416800
5,267000	0,5	7,395550
5,275333	0,5	7,379300
5,283667	0,5	7,372650
5,292000	0,5	7,377550
5,300333	0,5	7,355400
5,308667	0,5	7,340850
5,317000	0,5	7,328600
5,325333	0,5	7,318800
5,333667	0,5	7,310200
5,342000	0,5	7,298100
5,350333	0,5	7,290300
5,358667	0,5	7,282250
5,367000	0,5	7,283250
5,375333	0,5	7,264150
5,383667	0,5	7,256250
5,392000	0,5	7,254950
5,400333	0,5	7,258050
5,408667	0,5	7,232400
5,417000	0,5	7,228100
5,425333	0,5	7,219650
5,433667	0,5	7,235900
5,442000	0,5	7,241050
5,450333	0,5	7,233450
5,458667	0,5	7,213750
5,467000	0,5	7,207200
5,475333	0,5	7,196650
5,483667	0,5	7,193100
5,492000	0,5	7,182300
5,500333	0,5	7,182300
5,508667	0,5	7,173800
5,517000	0,5	7,167550
5,525333	0,5	7,161900
5,533667	0,5	7,156550
5,542000	0,5	7,170700
5,550333	0,5	7,155300
5,558667	0,5	7,141600
5,567000	0,5	7,141800
5,575333	0,5	7,144950
5,583667	0,5	7,148700
5,592000	0,5	7,151200
5,600333	0,5	7,131550
5,608667	0,5	7,122800
5,617000	0,5	7,102300
5,625333	0,5	7,089000
5,633667	0,5	7,072150
5,642000	0,5	7,055050
5,650333	0,5	7,036800
5,658667	0,5	7,026850
5,667000	0,5	7,011000
5,675333	0,5	6,992000
5,683667	0,5	6,979950
5,692000	0,5	6,987200
5,700333	0,5	6,970600
5,708667	0,5	6,952900
5,717000	0,5	6,951700
5,725333	0,5	6,959450
5,733667	0,5	6,976800
5,742000	0,5	6,963900
5,750333	0,5	6,962300
5,758667	0,5	6,952550
5,767000	0,5	6,955650
5,775333	0,5	6,941550
5,783667	0,5	6,942850
5,792000	0,5	6,930050
5,800333	0,5	6,928100
5,808667	0,5	6,920700
5,817000	0,5	6,915500
5,825333	0,5	6,896700
5,833667	0,5	6,900950
5,842000	0,5	6,892450
5,850333	0,5	6,874850
5,858667	0,5	6,862550
5,867000	0,5	6,862300
5,875333	0,5	6,870350
5,883667	0,5	6,873900
5,892000	0,5	6,863000
5,900333	0,5	6,856200
5,908667	0,5	6,857800
5,917000	0,5	6,854650
5,925333	0,5	6,858750
5,933667	0,5	6,860000
5,942000	0,5	6,866400
5,950333	0,5	6,864000
5,958667	0,5	6,879250
5,967000	0,5	6,889450
5,975333	0,5	6,893950
5,983667	0,5	6,914200
5,992000	0,5	6,917600
6,000333	0,5	6,906750
6,008667	0,5	6,902050
6,017000	0,5	6,893600
6,025333	0,5	6,898300
6,033667	0,5	6,880250
6,042000	0,5	6,851000
6,050333	0,5	6,829100
6,058667	0,5	6,808400
6,067000	0,5	6,785250
6,075333	0,5	6,764900
6,083667	0,5	6,752550
6,092000	0,5	6,732950
6,100333	0,5	6,727350
6,108667	0,5	6,718100
6,117000	0,5	6,712450
6,125333	0,5	6,697450
6,133667	0,5	6,708900
6,142000	0,5	6,689000
6,150333	0,5	6,684050
6,158667	0,5	6,679100
6,167000	0,5	6,688700
6,175333	0,5	6,700650
6,183667	0,5	6,701700
6,192000	0,5	6,692700
6,200333	0,5	6,695000
6,208667	0,5	6,690250
6,217000	0,5	6,692450
6,225333	0,5	6,689850
6,233667	0,5	6,687950
6,242000	0,5	6,692300
6,250333	0,5	6,695300
6,258667	0,5	6,701950
6,267000	0,5	6,699900
6,275333	0,5	6,713450
6,283667	0,5	6,749200
6,292000	0,5	6,770550
6,300333	0,5	6,811000
6,308667	0,5	6,869550
6,317000	0,5	6,934000
6,325333	0,5	7,015050
6,333667	0,5	7,062500
6,342000	0,5	7,106850
6,350333	0,5	7,120450
6,358667	0,5	7,117700
6,367000	0,5	7,083500
6,375333	0,5	7,035550
6,383667	0,5	6,966800
6,392000	0,5	6,896850
6,400333	0,5	6,828950
6,408667	0,5	6,758300
6,417000	0,5	6,695950
6,425333	0,5	6,656750
6,433667	0,5	6,618600
6,442000	0,5	6,574450
6,450333	0,5	6,552800
6,458667	0,5	6,532900
6,467000	0,5	6,540150
6,475333	0,5	6,545300
6,483667	0,5	6,554050
6,492000	0,5	6,556050
6,500333	0,5	6,578650
6,508667	0,5	6,600950
6,517000	0,5	6,646850
6,525333	0,5	6,697200
6,533667	0,5	6,755100
6,542000	0,5	6,804900
6,550333	0,5	6,851850
6,558667	0,5	6,866300
6,567000	0,5	6,872000
6,575333	0,5	6,858450
6,583667	0,5	6,813000
6,592000	0,5	6,757500
6,600333	0,5	6,715250
6,608667	0,5	6,685600
6,617000	0,5	6,680600
6,625333	0,5	6,670450
6,633667	0,5	6,655600
6,642000	0,5	6,647200
6,650333	0,5	6,635800
6,658667	0,5	6,616200
6,667000	0,5	6,582950
6,675333	0,5	6,548400
6,683667	0,5	6,503000
6,692000	0,5	6,462050
6,700333	0,5	6,425550
6,708667	0,5	6,381200
6,717000	0,5	6,344750
6,725333	0,5	6,326400
6,733667	0,5	6,294450
6,742000	0,5	6,268150
6,750333	0,5	6,251550
6,758667	0,5	6,238850
6,767000	0,5	6,240700
6,775333	0,5	6,225700
6,783667	0,5	6,218600
6,792000	0,5	6,208150
6,800333	0,5	6,202500
6,808667	0,5	6,197900
6,817000	0,5	6,193850
6,825333	0,5	6,188150
6,833667	0,5	6,185950
6,842000	0,5	6,181150
6,850333	0,5	6,177150
6,858667	0,5	6,162900
6,867000	0,5	6,154650
6,875333	0,5	6,152650
6,883667	0,5	6,134400
6,892000	0,5	6,115250
6,900333	0,5	6,106650
6,908667	0,5	6,098450
6,917000	0,5	6,094700
6,925333	0,5	6,073700
6,933667	0,5	6,060150
6,942000	0,5	6,041350
6,950333	0,5	6,031300
6,958667	0,5	6,014250
6,967000	0,5	6,004500
6,975333	0,5	5,992700
6,983667	0,5	5,979950
6,992000	0,5	5,972200
7,000333	0,5	5,957600
7,008667	0,5	5,946950
7,017000	0,5	5,946750
7,025333	0,5	5,945550
7,033667	0,5	5,931050
7,042000	0,5	5,921650
7,050333	0,5	5,914700
7,058667	0,5	5,918150
7,067000	0,5	5,909800
7,075333	0,5	5,899100
7,083667	0,5	5,885800
7,092000	0,5	5,882350
7,100333	0,5	5,877050
7,108667	0,5	5,880650
7,117000	0,5	5,879600
7,125333	0,5	5,886800
7,133667	0,5	5,891050
7,142000	0,5	5,891150
7,150333	0,5	5,886600
7,158667	0,5	5,869400
7,167000	0,5	5,853050
7,175333	0,5	5,823750
7,183667	0,5	5,792100
7,192000	0,5	5,768650
7,200333	0,5	5,752950
7,208667	0,5	5,747050
7,217000	0,5	5,735550
7,225333	0,5	5,719650
7,233667	0,5	5,714000
7,242000	0,5	5,707150
7,250333	0,5	5,709150
7,258667	0,5	5,707250
7,267000	0,5	5,709000
7,275333	0,5	5,702400
7,283667	0,5	5,694400
7,292000	0,5	5,692000
7,300333	0,5	5,662900
7,308667	0,5	5,648200
7,317000	0,5	5,657600
7,325333	0,5	5,679550
7,333667	0,5	5,745400
7,342000	0,5	5,839500
7,350333	0,5	5,936950
7,358667	0,5	5,998850
7,367000	0,5	5,985050
7,375333	0,5	5,925900
7,383667	0,5	5,838600
7,392000	0,5	5,766650
7,400333	0,5	5,698900
7,408667	0,5	5,645000
7,417000	0,5	5,598100
7,425333	0,5	5,559950
7,433667	0,5	5,527750
7,442000	0,5	5,504600
7,450333	0,5	5,482600
7,458667	0,5	5,474450
7,467000	0,5	5,466950
7,475333	0,5	5,454750
7,483667	0,5	5,441050
7,492000	0,5	5,439500
7,500333	0,5	5,448250
7,508667	0,5	5,454150
7,517000	0,5	5,455050
7,525333	0,5	5,447600
7,533667	0,5	5,437850
7,542000	0,5	5,424650
7,550333	0,5	5,420050
7,558667	0,5	5,417300
7,567000	0,5	5,427800
7,575333	0,5	5,443350
7,583667	0,5	5,473550
7,592000	0,5	5,503900
7,600333	0,5	5,536800
7,608667	0,5	5,578100
7,617000	0,5	5,622700
7,625333	0,5	5,677800
7,633667	0,5	5,765550
7,642000	0,5	5,871150
7,650333	0,5	5,963100
7,658667	0,5	5,999700
7,667000	0,5	5,966150
7,675333	0,5	5,888700
7,683667	0,5	5,798150
7,692000	0,5	5,714400
7,700333	0,5	5,655200
7,708667	0,5	5,631550
7,717000	0,5	5,653800
7,725333	0,5	5,721850
7,733667	0,5	5,823800
7,742000	0,5	5,939650
7,750333	0,5	6,043700
7,758667	0,5	6,141850
7,767000	0,5	6,206650
7,775333	0,5	6,238500
7,783667	0,5	6,228900
7,792000	0,5	6,172300
7,800333	0,5	6,078750
7,808667	0,5	5,959900
7,817000	0,5	5,831950
7,825333	0,5	5,720600
7,833667	0,5	5,627350
7,842000	0,5	5,555000
7,850333	0,5	5,497900
7,858667	0,5	5,460200
7,867000	0,5	5,448900
7,875333	0,5	5,464600
7,883667	0,5	5,530200
7,892000	0,5	5,634150
7,900333	0,5	5,751900
7,908667	0,5	5,842000
7,917000	0,5	5,847700
7,925333	0,5	5,794650
7,933667	0,5	5,710000
7,942000	0,5	5,627450
7,950333	0,5	5,571400
7,958667	0,5	5,521300
7,967000	0,5	5,494300
7,975333	0,5	5,479850
7,983667	0,5	5,486350
7,992000	0,5	5,496400
8,000333	0,5	5,523800
8,008667	0,5	5,555350
8,017000	0,5	5,598750
8,025333	0,5	5,654800
8,033667	0,5	5,706900
8,042000	0,5	5,752050
8,050333	0,5	5,797250
8,058667	0,5	5,834250
8,067000	0,5	5,855250
8,075333	0,5	5,868250
8,083667	0,5	5,876050
8,092000	0,5	5,907400
8,100333	0,5	5,957850
8,108667	0,5	6,021000
8,117000	0,5	6,070950
8,125333	0,5	6,083900
8,133667	0,5	6,051850
8,142000	0,5	6,004200
8,150333	0,5	5,960800
8,158667	0,5	5,948300
8,167000	0,5	5,959750
8,175333	0,5	5,982900
8,183667	0,5	5,976650
8,192000	0,5	5,918600
8,200333	0,5	5,798250
8,208667	0,5	5,626200
8,217000	0,5	5,436550
8,225333	0,5	5,269550
8,233667	0,5	5,135950
8,242000	0,5	5,052600
8,250333	0,5	4,994850
8,258667	0,5	4,963450
8,267000	0,5	4,957100
8,275333	0,5	4,955150
8,283667	0,5	4,962650
8,292000	0,5	4,962850
8,300333	0,5	4,963450
8,308667	0,5	4,961200
8,317000	0,5	4,965300
8,325333	0,5	4,979850
8,333667	0,5	5,009550
8,342000	0,5	5,044850
8,350333	0,5	5,091900
8,358667	0,5	5,120750
8,367000	0,5	5,130000
8,375333	0,5	5,123500
8,383667	0,5	5,124750
8,392000	0,5	5,136800
8,400333	0,5	5,131000
8,408667	0,5	5,095750
8,417000	0,5	5,025950
8,425333	0,5	4,945700
8,433667	0,5	4,880550
8,442000	0,5	4,836650
8,450333	0,5	4,818350
8,458667	0,5	4,814500
8,467000	0,5	4,829400
8,475333	0,5	4,852950
8,483667	0,5	4,866800
8,492000	0,5	4,873500
8,500333	0,5	4,866400
8,508667	0,5	4,842200
8,517000	0,5	4,818700
8,525333	0,5	4,795050
8,533667	0,5	4,788650
8,542000	0,5	4,793850
8,550333	0,5	4,814300
8,558667	0,5	4,850200
8,567000	0,5	4,904550
8,575333	0,5	4,953600
8,583667	0,5	4,976100
8,592000	0,5	4,966850
8,600333	0,5	4,944750
8,608667	0,5	4,933500
8,617000	0,5	4,950550
8,625333	0,5	4,969900
8,633667	0,5	4,995550
8,642000	0,5	5,046200
8,650333	0,5	5,131200
8,658667	0,5	5,244000
8,667000	0,5	5,314900
8,675333	0,5	5,312900
8,683667	0,5	5,245600
8,692000	0,5	5,159300
8,700333	0,5	5,080800
8,708667	0,5	5,022300
8,717000	0,5	4,978250
8,725333	0,5	4,948250
8,733667	0,5	4,927800
8,742000	0,5	4,919450
8,750333	0,5	4,926350
8,758667	0,5	4,956150
8,767000	0,5	5,017750
8,775333	0,5	5,113450
8,783667	0,5	5,233650
8,792000	0,5	5,365850
8,800333	0,5	5,494750
8,808667	0,5	5,617100
8,817000	0,5	5,750550
8,825333	0,5	5,895450
8,833667	0,5	6,052950
8,842000	0,5	6,206150
8,850333	0,5	6,345450
8,858667	0,5	6,462900
8,867000	0,5	6,557250
8,875333	0,5	6,618900
8,883667	0,5	6,641900
8,892000	0,5	6,630400
8,900333	0,5	6,585650
8,908667	0,5	6,525100
8,917000	0,5	6,444200
8,925333	0,5	6,361100
8,933667	0,5	6,273550
8,942000	0,5	6,187000
8,950333	0,5	6,090200
8,958667	0,5	5,975250
8,967000	0,5	5,841050
8,975333	0,5	5,697250
8,983667	0,5	5,554800
8,992000	0,5	5,420650
9,000333	0,5	5,313600
9,008667	0,5	5,238300
9,017000	0,5	5,192050
9,025333	0,5	5,161750
9,033667	0,5	5,135900
9,042000	0,5	5,105600
9,050333	0,5	5,070050
9,058667	0,5	5,036050
9,067000	0,5	5,020300
9,075333	0,5	5,019950
9,083667	0,5	5,036800
9,092000	0,5	5,069850
9,100333	0,5	5,112050
9,108667	0,5	5,155400
9,117000	0,5	5,190600
9,125333	0,5	5,208250
9,133667	0,5	5,210350
9,142000	0,5	5,187950
9,150333	0,5	5,146300
9,158667	0,5	5,096950
9,167000	0,5	5,046450
9,175333	0,5	4,999300
9,183667	0,5	4,964100
9,192000	0,5	4,944900
9,200333	0,5	4,931650
9,208667	0,5	4,931700
9,217000	0,5	4,935600
9,225333	0,5	4,941450
9,233667	0,5	4,947400
9,242000	0,5	4,956000
9,250333	0,5	4,972450
9,258667	0,5	5,010600
9,267000	0,5	5,063150
9,275333	0,5	5,131350
9,283667	0,5	5,188900
9,292000	0,5	5,218500
9,300333	0,5	5,220750
9,308667	0,5	5,201250
9,317000	0,5	5,180150
9,325333	0,5	5,155650
9,333667	0,5	5,126450
9,342000	0,5	5,092750
9,350333	0,5	5,041150
9,358667	0,5	4,992200
9,367000	0,5	4,959950
9,375333	0,5	4,947650
9,383667	0,5	4,950200
9,392000	0,5	4,961600
9,400333	0,5	4,966550
9,408667	0,5	4,968750
9,417000	0,5	4,963100
9,425333	0,5	4,948950
9,433667	0,5	4,929900
9,442000	0,5	4,915300
9,450333	0,5	4,891050
9,458667	0,5	4,871550
9,467000	0,5	4,856400
9,475333	0,5	4,846250
9,483667	0,5	4,846850
9,492000	0,5	4,851950
9,500333	0,5	4,869800
9,508667	0,5	4,888550
9,517000	0,5	4,904650
9,525333	0,5	4,919300
9,533667	0,5	4,923500
9,542000	0,5	4,921250
9,550333	0,5	4,912250
9,558667	0,5	4,902500
9,567000	0,5	4,895200
9,575333	0,5	4,892750
9,583667	0,5	4,898950
9,592000	0,5	4,911900
9,600333	0,5	4,928850
9,608667	0,5	4,954600
9,617000	0,5	4,991650
9,625333	0,5	5,036850
9,633667	0,5	5,091100
9,642000	0,5	5,155200
9,650333	0,5	5,221800
9,658667	0,5	5,273600
9,667000	0,5	5,298900
9,675333	0,5	5,295300
9,683667	0,5	5,262450
9,692000	0,5	5,203050
9,700333	0,5	5,131800
9,708667	0,5	5,061150
9,717000	0,5	4,997450
9,725333	0,5	4,945800
9,733667	0,5	4,899350
9,742000	0,5	4,857050
9,750333	0,5	4,823500
9,758667	0,5	4,788550
9,767000	0,5	4,752950
9,775333	0,5	4,720400
9,783667	0,5	4,691900
9,792000	0,5	4,664200
9,800333	0,5	4,638600
9,808667	0,5	4,613950
9,817000	0,5	4,594600
9,825333	0,5	4,581150
9,833667	0,5	4,580800
9,842000	0,5	4,578500
9,850333	0,5	4,587450
9,858667	0,5	4,592850
9,867000	0,5	4,609300
9,875333	0,5	4,622450
9,883667	0,5	4,643100
9,892000	0,5	4,659950
9,900333	0,5	4,675250
9,908667	0,5	4,687350
9,917000	0,5	4,696500
9,925333	0,5	4,704500
9,933667	0,5	4,725500
9,942000	0,5	4,759650
9,950333	0,5	4,815550
9,958667	0,5	4,890050
9,967000	0,5	4,973600
9,975333	0,5	5,051800
9,983667	0,5	5,117950
9,992000	0,5	5,141650
10,000333	0,5	5,134500
10,008667	0,5	5,092100
10,017000	0,5	5,022150
10,025333	0,5	4,940200
10,033667	0,5	4,849900
10,042000	0,5	4,770050
10,050333	0,5	4,692900
10,058667	0,5	4,628500
10,067000	0,5	4,570900
10,075333	0,5	4,527850
10,083667	0,5	4,486750
10,092000	0,5	4,457650
10,100333	0,5	4,438550
10,108667	0,5	4,429700
10,117000	0,5	4,426300
10,125333	0,5	4,436700
10,133667	0,5	4,452350
10,142000	0,5	4,477950
10,150333	0,5	4,504500
10,158667	0,5	4,533300
10,167000	0,5	4,556250
10,175333	0,5	4,584700
10,183667	0,5	4,601950
10,192000	0,5	4,610150
10,200333	0,5	4,615050
10,208667	0,5	4,608200
10,217000	0,5	4,600750
10,225333	0,5	4,586050
10,233667	0,5	4,574050
10,242000	0,5	4,568750
10,250333	0,5	4,570350
10,258667	0,5	4,565350
10,267000	0,5	4,558650
10,275333	0,5	4,535450
10,283667	0,5	4,497100
10,292000	0,5	4,445050
10,300333	0,5	4,386550
10,308667	0,5	4,327750
10,317000	0,5	4,276350
10,325333	0,5	4,232450
10,333667	0,5	4,194850
10,342000	0,5	4,160350
10,350333	0,5	4,134800
10,358667	0,5	4,106550
10,367000	0,5	4,088550
10,375333	0,5	4,073550
10,383667	0,5	4,063800
10,392000	0,5	4,055200
10,400333	0,5	4,052500
10,408667	0,5	4,048400
10,417000	0,5	4,047550
10,425333	0,5	4,051300
10,433667	0,5	4,053300
10,442000	0,5	4,060700
10,450333	0,5	4,079500
10,458667	0,5	4,105150
10,467000	0,5	4,144500
10,475333	0,5	4,190550
10,483667	0,5	4,225800
10,492000	0,5	4,248900
10,500333	0,5	4,255500
10,508667	0,5	4,237100
10,517000	0,5	4,193750
10,525333	0,5	4,134650
10,533667	0,5	4,069200
10,542000	0,5	4,005100
10,550333	0,5	3,945550
10,558667	0,5	3,889350
10,567000	0,5	3,840950
10,575333	0,5	3,798050
10,583667	0,5	3,757300
10,592000	0,5	3,721750
10,600333	0,5	3,695100
10,608667	0,5	3,678850
10,617000	0,5	3,675400
10,625333	0,5	3,679400
10,633667	0,5	3,686850
10,642000	0,5	3,698650
10,650333	0,5	3,718150
10,658667	0,5	3,743350
10,667000	0,5	3,782500
10,675333	0,5	3,827300
10,683667	0,5	3,870450
10,692000	0,5	3,901500
10,700333	0,5	3,910750
10,708667	0,5	3,889700
10,717000	0,5	3,859400
10,725333	0,5	3,806600
10,733667	0,5	3,748100
10,742000	0,5	3,697300
10,750333	0,5	3,649500
10,758667	0,5	3,614650
10,767000	0,5	3,583350
10,775333	0,5	3,561500
10,783667	0,5	3,539300
10,792000	0,5	3,526050
10,800333	0,5	3,511600
10,808667	0,5	3,505650
10,817000	0,5	3,509700
10,825333	0,5	3,517600
10,833667	0,5	3,534600
10,842000	0,5	3,563250
10,850333	0,5	3,600100
10,858667	0,5	3,636800
10,867000	0,5	3,677800
10,875333	0,5	3,699400
10,883667	0,5	3,689250
10,892000	0,5	3,658000
10,900333	0,5	3,604650
10,908667	0,5	3,549300
10,917000	0,5	3,489700
10,925333	0,5	3,434900
10,933667	0,5	3,384150
10,942000	0,5	3,338950
10,950333	0,5	3,292600
10,958667	0,5	3,247250
10,967000	0,5	3,197300
10,975333	0,5	3,141450
10,983667	0,5	3,089700
10,992000	0,5	3,039300
11,000333	0,5	3,002100
11,008667	0,5	2,971950
11,017000	0,5	2,969450
11,025333	0,5	2,973850
11,033667	0,5	2,993700
11,042000	0,5	3,015350
11,050333	0,5	3,036800
11,058667	0,5	3,053800
11,067000	0,5	3,063500
11,075333	0,5	3,064950
11,083667	0,5	3,066000
11,092000	0,5	3,068750
11,100333	0,5	3,063100
11,108667	0,5	3,062150
11,117000	0,5	3,055300
11,125333	0,5	3,055650
11,133667	0,5	3,056950
11,142000	0,5	3,064900
11,150333	0,5	3,077750
11,158667	0,5	3,100600
11,167000	0,5	3,128950
11,175333	0,5	3,156150
11,183667	0,5	3,176550
11,192000	0,5	3,187100
11,200333	0,5	3,188950
11,208667	0,5	3,178550
11,217000	0,5	3,156450
11,225333	0,5	3,135500
11,233667	0,5	3,110800
11,242000	0,5	3,085050
11,250333	0,5	3,064100
11,258667	0,5	3,046950
11,267000	0,5	3,028350
11,275333	0,5	3,011650
11,283667	0,5	3,003200
11,292000	0,5	2,986950
11,300333	0,5	2,973150
11,308667	0,5	2,969200
11,317000	0,5	2,961400
11,325333	0,5	2,950550
11,333667	0,5	2,935200
11,342000	0,5	2,913050
11,350333	0,5	2,895300
11,358667	0,5	2,879950
11,367000	0,5	2,868700
11,375333	0,5	2,858250
11,383667	0,5	2,849750
11,392000	0,5	2,841750
11,400333	0,5	2,839250
11,408667	0,5	2,836900
11,417000	0,5	2,836650
11,425333	0,5	2,839550
11,433667	0,5	2,847750
11,442000	0,5	2,847200
11,450333	0,5	2,851650
11,458667	0,5	2,858400
11,467000	0,5	2,862400
11,475333	0,5	2,860350
11,483667	0,5	2,851000
11,492000	0,5	2,848900
11,500333	0,5	2,848350
11,508667	0,5	2,856750
11,517000	0,5	2,860850
11,525333	0,5	2,868700
11,533667	0,5	2,881400
11,542000	0,5	2,899400
11,550333	0,5	2,916250
11,558667	0,5	2,935750
11,567000	0,5	2,949250
11,575333	0,5	2,963600
11,583667	0,5	2,977000
11,592000	0,5	2,985850
11,600333	0,5	2,998750
11,608667	0,5	3,021300
11,617000	0,5	3,034750
11,625333	0,5	3,055250
11,633667	0,5	3,080850
11,642000	0,5	3,119400
11,650333	0,5	3,180650
11,658667	0,5	3,268000
11,667000	0,5	3,390600
11,675333	0,5	3,551700
11,683667	0,5	3,755500
11,692000	0,5	3,978900
11,700333	0,5	4,207600
11,708667	0,5	4,396750
11,717000	0,5	4,536600
11,725333	0,5	4,590600
11,733667	0,5	4,574050
11,742000	0,5	4,472000
11,750333	0,5	4,332250
11,758667	0,5	4,152000
11,767000	0,5	3,962750
11,775333	0,5	3,772750
11,783667	0,5	3,600350
11,792000	0,5	3,461750
11,800333	0,5	3,352950
11,808667	0,5	3,272100
11,817000	0,5	3,219950
11,825333	0,5	3,190550
11,833667	0,5	3,180200
11,842000	0,5	3,190700
11,850333	0,5	3,205850
11,858667	0,5	3,232700
11,867000	0,5	3,264200
11,875333	0,5	3,297200
11,883667	0,5	3,318250
11,892000	0,5	3,323200
11,900333	0,5	3,325900
11,908667	0,5	3,315100
11,917000	0,5	3,287500
11,925333	0,5	3,257900
11,933667	0,5	3,218200
11,942000	0,5	3,189250
11,950333	0,5	3,159450
11,958667	0,5	3,129800
11,967000	0,5	3,102300
11,975333	0,5	3,084400
11,983667	0,5	3,072100
11,992000	0,5	3,061350
12,000333	0,5	3,055650
12,008667	0,5	3,052000
12,017000	0,5	3,051750
12,025333	0,5	3,053700
12,033667	0,5	3,054200
12,042000	0,5	3,055900
12,050333	0,5	3,069050
12,058667	0,5	3,067950
12,067000	0,5	3,068700
12,075333	0,5	3,059850
12,083667	0,5	3,053950
12,092000	0,5	3,052000
12,100333	0,5	3,050000
12,108667	0,5	3,043750
12,117000	0,5	3,041650
12,125333	0,5	3,036100
12,133667	0,5	3,029950
12,142000	0,5	3,025550
12,150333	0,5	3,020050
12,158667	0,5	3,016150
12,167000	0,5	3,006500
12,175333	0,5	3,002550
12,183667	0,5	2,991300
12,192000	0,5	2,983300
12,200333	0,5	2,978850
12,208667	0,5	2,968000
12,217000	0,5	2,953300
12,225333	0,5	2,943600
12,233667	0,5	2,934500
12,242000	0,5	2,933750
12,250333	0,5	2,924850
12,258667	0,5	2,922750
12,267000	0,5	2,915100
12,275333	0,5	2,912850
12,283667	0,5	2,907600
12,292000	0,5	2,905300
12,300333	0,5	2,896750
12,308667	0,5	2,893800
12,317000	0,5	2,891400
12,325333	0,5	2,887800
12,333667	0,5	2,877200
12,342000	0,5	2,880950
12,350333	0,5	2,882250
12,358667	0,5	2,875500
12,367000	0,5	2,871600
12,375333	0,5	2,864000
12,383667	0,5	2,864250
12,392000	0,5	2,868050
12,400333	0,5	2,867500
12,408667	0,5	2,870400
12,417000	0,5	2,875650
12,425333	0,5	2,879500
12,433667	0,5	2,895450
12,442000	0,5	2,903500
12,450333	0,5	2,914850
12,458667	0,5	2,920650
12,467000	0,5	2,926450
12,475333	0,5	2,921300
12,483667	0,5	2,924700
12,492000	0,5	2,934000
12,500333	0,5	2,938750
12,508667	0,5	2,941300
12,517000	0,5	2,945750
12,525333	0,5	2,957250
12,533667	0,5	2,973600
12,542000	0,5	2,990800
12,550333	0,5	3,012400
12,558667	0,5	3,034550
12,567000	0,5	3,050850
12,575333	0,5	3,074250
12,583667	0,5	3,094600
12,592000	0,5	3,123400
12,600333	0,5	3,144000
12,608667	0,5	3,164300
12,617000	0,5	3,182100
12,625333	0,5	3,188550
12,633667	0,5	3,210100
12,642000	0,5	3,227100
12,650333	0,5	3,228900
12,658667	0,5	3,227900
12,667000	0,5	3,218700
12,675333	0,5	3,220300
12,683667	0,5	3,221150
12,692000	0,5	3,213150
12,700333	0,5	3,197400
12,708667	0,5	3,181600
12,717000	0,5	3,162750
12,725333	0,5	3,145100
12,733667	0,5	3,125950
12,742000	0,5	3,095950
12,750333	0,5	3,067950
12,758667	0,5	3,041000
12,767000	0,5	3,015300
12,775333	0,5	2,965350
12,783667	0,5	2,935700
12,792000	0,5	2,888500
12,800333	0,5	2,851100
12,808667	0,5	2,812900
12,817000	0,5	2,786950
12,825333	0,5	2,781200
12,833667	0,5	2,785950
12,842000	0,5	2,799050
12,850333	0,5	2,823600
12,858667	0,5	2,852400
12,867000	0,5	2,896300
12,875333	0,5	2,920300
12,883667	0,5	2,919350
12,892000	0,5	2,909250
12,900333	0,5	2,893850
12,908667	0,5	2,887800
12,917000	0,5	2,899650
12,925333	0,5	3,004100
12,933667	0,5	3,405700
12,942000	0,5	3,991950
12,950333	0,5	4,424950
12,958667	0,5	4,548400
12,967000	0,5	4,313200
12,975333	0,5	3,779250
12,983667	0,5	3,048550
12,992000	0,5	2,370500
13,000333	0,5	1,887150
13,008667	0,5	1,541450
13,017000	0,5	1,282000
13,025333	0,5	1,086050
13,033667	0,5	0,932400
13,042000	0,5	0,810000
13,050333	0,5	0,715650
13,058667	0,5	0,637850
13,067000	0,5	0,575350
13,075333	0,5	0,527450
13,083667	0,5	0,502950
13,092000	0,5	0,473400
13,100333	0,5	0,454300
13,108667	0,5	0,432100
13,117000	0,5	0,414900
13,125333	0,5	0,405100
13,133667	0,5	0,397150
13,142000	0,5	0,380550
13,150333	0,5	0,372150
13,158667	0,5	0,353600
13,167000	0,5	0,341450
13,175333	0,5	0,323750
13,183667	0,5	0,307550
13,192000	0,5	0,294250
13,200333	0,5	0,278100
13,208667	0,5	0,260700
13,217000	0,5	0,239050
13,225333	0,5	0,231300
13,233667	0,5	0,218750
13,242000	0,5	0,197400
13,250333	0,5	0,178350
13,258667	0,5	0,160250
13,267000	0,5	0,140200
13,275333	0,5	0,137050
13,283667	0,5	0,123350
13,292000	0,5	0,117700
13,300333	0,5	0,107750
13,308667	0,5	0,104550
13,317000	0,5	0,092900
13,325333	0,5	0,084050
13,333667	0,5	0,073900
13,342000	0,5	0,066550
13,350333	0,5	0,059300
13,358667	0,5	0,043950
13,367000	0,5	0,029850
13,375333	0,5	0,027800
13,383667	0,5	0,022200
13,392000	0,5	0,009800
13,400333	0,5	0,000050
13,408667	0,5	-0,008650
13,417000	0,5	-0,009400
13,425333	0,5	-0,011100
13,433667	0,5	-0,008100
13,442000	0,5	-0,004800
13,450333	0,5	-0,000850
13,458667	0,5	0,002850
13,467000	0,5	0,013300
13,475333	0,5	0,014500
13,483667	0,5	0,022850
13,492000	0,5	0,027350
13,500333	0,5	0,035400
13,508667	0,5	0,028850
13,517000	0,5	0,041450
13,525333	0,5	0,046400
13,533667	0,5	0,049400
13,542000	0,5	0,046250
13,550333	0,5	0,036800
13,558667	0,5	0,035300
13,567000	0,5	0,033700
13,575333	0,5	0,034950
13,583667	0,5	0,028850
13,592000	0,5	0,025300
13,600333	0,5	0,020800
13,608667	0,5	0,019900
13,617000	0,5	0,011400
13,625333	0,5	0,010850
13,633667	0,5	0,008000
13,642000	0,5	0,006550
13,650333	0,5	0,002950
13,658667	0,5	-0,004850
13,667000	0,5	-0,000800
13,675333	0,5	0,002850
13,683667	0,5	0,000750
13,692000	0,5	-0,000150
13,700333	0,5	-0,008500
13,708667	0,5	-0,005800
13,717000	0,5	0,001000
13,725333	0,5	0,003000
13,733667	0,5	0,003800
13,742000	0,5	0,002700
13,750333	0,5	0,005000
13,758667	0,5	0,009250
13,767000	0,5	0,010650
13,775333	0,5	0,008350
13,783667	0,5	0,009800
13,792000	0,5	0,009350
13,800333	0,5	0,024650
13,808667	0,5	0,018750
13,817000	0,5	0,032950
13,825333	0,5	0,038650
13,833667	0,5	0,043300
13,842000	0,5	0,043500
13,850333	0,5	0,041700
13,858667	0,5	0,053900
13,867000	0,5	0,063600
13,875333	0,5	0,069300
13,883667	0,5	0,080950
13,892000	0,5	0,090500
13,900333	0,5	0,102000
13,908667	0,5	0,110250
13,917000	0,5	0,115100
13,925333	0,5	0,122550
13,933667	0,5	0,123350
13,942000	0,5	0,131250
13,950333	0,5	0,125000
13,958667	0,5	0,117100
13,967000	0,5	0,119900
13,975333	0,5	0,115450
13,983667	0,5	0,111700
13,992000	0,5	0,107950
14,000333	0,5	0,100950
14,008667	0,5	0,112950
14,017000	0,5	0,116600
14,025333	0,5	0,121800
14,033667	0,5	0,126200
14,042000	0,5	0,130900
14,050333	0,5	0,132550
14,058667	0,5	0,141550
14,067000	0,5	0,145600
14,075333	0,5	0,151000
14,083667	0,5	0,160500
14,092000	0,5	0,166550
14,100333	0,5	0,171000
14,108667	0,5	0,184100
14,117000	0,5	0,202700
14,125333	0,5	0,207900
14,133667	0,5	0,219250
14,142000	0,5	0,221050
14,150333	0,5	0,226250
14,158667	0,5	0,239950
14,167000	0,5	0,257900
14,175333	0,5	0,269150
14,183667	0,5	0,284900
14,192000	0,5	0,289650
14,200333	0,5	0,299050
14,208667	0,5	0,307850
14,217000	0,5	0,316400
14,225333	0,5	0,320100
14,233667	0,5	0,330600
14,242000	0,5	0,330300
14,250333	0,5	0,330600
14,258667	0,5	0,346650
14,267000	0,5	0,354500
14,275333	0,5	0,359150
14,283667	0,5	0,355350
14,292000	0,5	0,358600
14,300333	0,5	0,364550
14,308667	0,5	0,380250
14,317000	0,5	0,388800
14,325333	0,5	0,403900
14,333667	0,5	0,411600
14,342000	0,5	0,428100
14,350333	0,5	0,434750
14,358667	0,5	0,450850
14,367000	0,5	0,458700
14,375333	0,5	0,469700
14,383667	0,5	0,485300
14,392000	0,5	0,488850
14,400333	0,5	0,497900
14,408667	0,5	0,522550
14,417000	0,5	0,535800
14,425333	0,5	0,550800
14,433667	0,5	0,559600
14,442000	0,5	0,570850
14,450333	0,5	0,596150
14,458667	0,5	0,616750
14,467000	0,5	0,640750
14,475333	0,5	0,656550
14,483667	0,5	0,678500
14,492000	0,5	0,692300
14,500333	0,5	0,710800
14,508667	0,5	0,722950
14,517000	0,5	0,738100
14,525333	0,5	0,752000
14,533667	0,5	0,772400
14,542000	0,5	0,772750
14,550333	0,5	0,799500
14,558667	0,5	0,825950
14,567000	0,5	0,851300
14,575333	0,5	0,870950
14,583667	0,5	0,885250
14,592000	0,5	0,914450
14,600333	0,5	0,948150
14,608667	0,5	0,967450
14,617000	0,5	0,987750
14,625333	0,5	1,009800
14,633667	0,5	1,031300
14,642000	0,5	1,054950
14,650333	0,5	1,076200
14,658667	0,5	1,101750
14,667000	0,5	1,121500
14,675333	0,5	1,147350
14,683667	0,5	1,171400
14,692000	0,5	1,181050
14,700333	0,5	1,215850
14,708667	0,5	1,244000
14,717000	0,5	1,262100
14,725333	0,5	1,280850
14,733667	0,5	1,283400
14,742000	0,5	1,307700
14,750333	0,5	1,317150
14,758667	0,5	1,318800
14,767000	0,5	1,320400
14,775333	0,5	1,319800
14,783667	0,5	1,318650
14,792000	0,5	1,321000
14,800333	0,5	1,329350
14,808667	0,5	1,336200
14,817000	0,5	1,350000
14,825333	0,5	1,362450
14,833667	0,5	1,379700
14,842000	0,5	1,379850
14,850333	0,5	1,396000
14,858667	0,5	1,389800
14,867000	0,5	1,381950
14,875333	0,5	1,358900
14,883667	0,5	1,337300
14,892000	0,5	1,330100
14,900333	0,5	1,328350
14,908667	0,5	1,318850
14,917000	0,5	1,310250
14,925333	0,5	1,300750
14,933667	0,5	1,293750
14,942000	0,5	1,287550
14,950333	0,5	1,278400
14,958667	0,5	1,266650
14,967000	0,5	1,257550
14,975333	0,5	1,252000
14,983667	0,5	1,235750
14,992000	0,5	1,222600
15,000333	0,5	1,221700
15,008667	0,5	1,216100
15,017000	0,5	1,198950
15,025333	0,5	1,183850
15,033667	0,5	1,170900
15,042000	0,5	1,175550
15,050333	0,5	1,166450
15,058667	0,5	1,167650
15,067000	0,5	1,156850
15,075333	0,5	1,152350
15,083667	0,5	1,146300
15,092000	0,5	1,144750
15,100333	0,5	1,137200
15,108667	0,5	1,132300
15,117000	0,5	1,135900
15,125333	0,5	1,130700
15,133667	0,5	1,114150
15,142000	0,5	1,112700
15,150333	0,5	1,118400
15,158667	0,5	1,108150
15,167000	0,5	1,096150
15,175333	0,5	1,079500
15,183667	0,5	1,075350
15,192000	0,5	1,073500
15,200333	0,5	1,076250
15,208667	0,5	1,071700
15,217000	0,5	1,072700
15,225333	0,5	1,070300
15,233667	0,5	1,070600
15,242000	0,5	1,065600
15,250333	0,5	1,060900
15,258667	0,5	1,056700
15,267000	0,5	1,063900
15,275333	0,5	1,054000
15,283667	0,5	1,044850
15,292000	0,5	1,048950
15,300333	0,5	1,045450
15,308667	0,5	1,041700
15,317000	0,5	1,025700
15,325333	0,5	1,018350
15,333667	0,5	1,016450
15,342000	0,5	1,020350
15,350333	0,5	1,016800
15,358667	0,5	1,015250
15,367000	0,5	1,010350
15,375333	0,5	1,011100
15,383667	0,5	1,011550
15,392000	0,5	1,012300
15,400333	0,5	1,005650
15,408667	0,5	1,010050
15,417000	0,5	1,001450
15,425333	0,5	0,987450
15,433667	0,5	0,975950
15,442000	0,5	0,978850
15,450333	0,5	0,973600
15,458667	0,5	0,964850
15,467000	0,5	0,948500
15,475333	0,5	0,940800
15,483667	0,5	0,945900
15,492000	0,5	0,944300
15,500333	0,5	0,945050
15,508667	0,5	0,948200
15,517000	0,5	0,952850
15,525333	0,5	0,953500
15,533667	0,5	0,952750
15,542000	0,5	0,943400
15,550333	0,5	0,942650
15,558667	0,5	0,941300
15,567000	0,5	0,938400
15,575333	0,5	0,916700
15,583667	0,5	0,923500
15,592000	0,5	0,919450
15,600333	0,5	0,917050
15,608667	0,5	0,906500
15,617000	0,5	0,886500
15,625333	0,5	0,892150
15,633667	0,5	0,892300
15,642000	0,5	0,887450
15,650333	0,5	0,887100
15,658667	0,5	0,886900
15,667000	0,5	0,888100
15,675333	0,5	0,888450
15,683667	0,5	0,887850
15,692000	0,5	0,893450
15,700333	0,5	0,889950
15,708667	0,5	0,904500
15,717000	0,5	0,904250
15,725333	0,5	0,892300
15,733667	0,5	0,903850
15,742000	0,5	0,905750
15,750333	0,5	0,904100
15,758667	0,5	0,897050
15,767000	0,5	0,879350
15,775333	0,5	0,887300
15,783667	0,5	0,883600
15,792000	0,5	0,885700
15,800333	0,5	0,877850
15,808667	0,5	0,875600
15,817000	0,5	0,871300
15,825333	0,5	0,870100
15,833667	0,5	0,868400
15,842000	0,5	0,854450
15,850333	0,5	0,853050
15,858667	0,5	0,848850
15,867000	0,5	0,838300
15,875333	0,5	0,824900
15,883667	0,5	0,836850
15,892000	0,5	0,826950
15,900333	0,5	0,819500
15,908667	0,5	0,803600
15,917000	0,5	0,791000
15,925333	0,5	0,795100
15,933667	0,5	0,796100
15,942000	0,5	0,794500
15,950333	0,5	0,794550
15,958667	0,5	0,790900
15,967000	0,5	0,788800
15,975333	0,5	0,782200
15,983667	0,5	0,773750
15,992000	0,5	0,771800
16,000333	0,5	0,767050
16,008667	0,5	0,764550
16,017000	0,5	0,751850
16,025333	0,5	0,748700
16,033667	0,5	0,750800
16,042000	0,5	0,740250
16,050333	0,5	0,724800
16,058667	0,5	0,710950
16,067000	0,5	0,698300
16,075333	0,5	0,707000
16,083667	0,5	0,700750
16,092000	0,5	0,705500
16,100333	0,5	0,705450
16,108667	0,5	0,712000
16,117000	0,5	0,712600
16,125333	0,5	0,721950
16,133667	0,5	0,717150
16,142000	0,5	0,717850
16,150333	0,5	0,722400
16,158667	0,5	0,715400
16,167000	0,5	0,694950
16,175333	0,5	0,695150
16,183667	0,5	0,688650
16,192000	0,5	0,677800
16,200333	0,5	0,663100
16,208667	0,5	0,645750
16,217000	0,5	0,643950
16,225333	0,5	0,635250
16,233667	0,5	0,644700
16,242000	0,5	0,638500
16,250333	0,5	0,650450
16,258667	0,5	0,648000
16,267000	0,5	0,656900
16,275333	0,5	0,658050
16,283667	0,5	0,657100
16,292000	0,5	0,659200
16,300333	0,5	0,668950
16,308667	0,5	0,645600
16,317000	0,5	0,646900
16,325333	0,5	0,646400
16,333667	0,5	0,637250
16,342000	0,5	0,624500
16,350333	0,5	0,599800
16,358667	0,5	0,590000
16,367000	0,5	0,582500
16,375333	0,5	0,578350
16,383667	0,5	0,570900
16,392000	0,5	0,569750
16,400333	0,5	0,559500
16,408667	0,5	0,561300
16,417000	0,5	0,556050
16,425333	0,5	0,554950
16,433667	0,5	0,551350
16,442000	0,5	0,552650
16,450333	0,5	0,552200
16,458667	0,5	0,533850
16,467000	0,5	0,536750
16,475333	0,5	0,540050
16,483667	0,5	0,534200
16,492000	0,5	0,526050
16,500333	0,5	0,503200
16,508667	0,5	0,502300
16,517000	0,5	0,505500
16,525333	0,5	0,498550
16,533667	0,5	0,492800
16,542000	0,5	0,485600
16,550333	0,5	0,483450
16,558667	0,5	0,481000
16,567000	0,5	0,475350
16,575333	0,5	0,468250
16,583667	0,5	0,463650
16,592000	0,5	0,457500
16,600333	0,5	0,458400
16,608667	0,5	0,434000
16,617000	0,5	0,447450
16,625333	0,5	0,443350
16,633667	0,5	0,440400
16,642000	0,5	0,425900
16,650333	0,5	0,406400
16,658667	0,5	0,414850
16,667000	0,5	0,416600
16,675333	0,5	0,413900
16,683667	0,5	0,411950
16,692000	0,5	0,408800
16,700333	0,5	0,408350
16,708667	0,5	0,411100
16,717000	0,5	0,403800
16,725333	0,5	0,401750
16,733667	0,5	0,396100
16,742000	0,5	0,402900
16,750333	0,5	0,397750
16,758667	0,5	0,386800
16,767000	0,5	0,395900
16,775333	0,5	0,391050
16,783667	0,5	0,383300
16,792000	0,5	0,374750
16,800333	0,5	0,360950
16,808667	0,5	0,370900
16,817000	0,5	0,368700
16,825333	0,5	0,371650
16,833667	0,5	0,371500
16,842000	0,5	0,378300
16,850333	0,5	0,381950
16,858667	0,5	0,392250
16,867000	0,5	0,402550
16,875333	0,5	0,404700
16,883667	0,5	0,415350
16,892000	0,5	0,419300
16,900333	0,5	0,416400
16,908667	0,5	0,420650
16,917000	0,5	0,437650
16,925333	0,5	0,436500
16,933667	0,5	0,435800
16,942000	0,5	0,423300
16,950333	0,5	0,417050
16,958667	0,5	0,421300
16,967000	0,5	0,426250
16,975333	0,5	0,427650
16,983667	0,5	0,432050
16,992000	0,5	0,430250
17,000333	0,5	0,434500
17,008667	0,5	0,436500
17,017000	0,5	0,437250
17,025333	0,5	0,439000
17,033667	0,5	0,447500
17,042000	0,5	0,452150
17,050333	0,5	0,448350
17,058667	0,5	0,466100
17,067000	0,5	0,470200
17,075333	0,5	0,475200
17,083667	0,5	0,465250
17,092000	0,5	0,458050
17,100333	0,5	0,458650
17,108667	0,5	0,473300
17,117000	0,5	0,474150
17,125333	0,5	0,481450
17,133667	0,5	0,480200
17,142000	0,5	0,489850
17,150333	0,5	0,494150
17,158667	0,5	0,509000
17,167000	0,5	0,520650
17,175333	0,5	0,544400
17,183667	0,5	0,589100
17,192000	0,5	0,633100
17,200333	0,5	0,702500
17,208667	0,5	0,784450
17,217000	0,5	0,858300
17,225333	0,5	0,909300
17,233667	0,5	0,925250
17,242000	0,5	0,911150
17,250333	0,5	0,882300
17,258667	0,5	0,819800
17,267000	0,5	0,762300
17,275333	0,5	0,704150
17,283667	0,5	0,668750
17,292000	0,5	0,629750
17,300333	0,5	0,617500
17,308667	0,5	0,598050
17,317000	0,5	0,579600
17,325333	0,5	0,580650
17,333667	0,5	0,568400
17,342000	0,5	0,541500
17,350333	0,5	0,539400
17,358667	0,5	0,533500
17,367000	0,5	0,521600
17,375333	0,5	0,509600
17,383667	0,5	0,487850
17,392000	0,5	0,494900
17,400333	0,5	0,501600
17,408667	0,5	0,516450
17,417000	0,5	0,531100
17,425333	0,5	0,556650
17,433667	0,5	0,579850
17,442000	0,5	0,613900
17,450333	0,5	0,643500
17,458667	0,5	0,676300
17,467000	0,5	0,702100
17,475333	0,5	0,737250
17,483667	0,5	0,759100
17,492000	0,5	0,756450
17,500333	0,5	0,772250
17,508667	0,5	0,781200
17,517000	0,5	0,769150
17,525333	0,5	0,760250
17,533667	0,5	0,728350
17,542000	0,5	0,720700
17,550333	0,5	0,710250
17,558667	0,5	0,693250
17,567000	0,5	0,678550
17,575333	0,5	0,661300
17,583667	0,5	0,656300
17,592000	0,5	0,644300
17,600333	0,5	0,646150
17,608667	0,5	0,634800
17,617000	0,5	0,631450
17,625333	0,5	0,631500
17,633667	0,5	0,633750
17,642000	0,5	0,616200
17,650333	0,5	0,635100
17,658667	0,5	0,629700
17,667000	0,5	0,624300
17,675333	0,5	0,610900
17,683667	0,5	0,602000
17,692000	0,5	0,612500
17,700333	0,5	0,609400
17,708667	0,5	0,607800
17,717000	0,5	0,607900
17,725333	0,5	0,610850
17,733667	0,5	0,606100
17,742000	0,5	0,612350
17,750333	0,5	0,609200
17,758667	0,5	0,611900
17,767000	0,5	0,614350
17,775333	0,5	0,620850
17,783667	0,5	0,612000
17,792000	0,5	0,622650
17,800333	0,5	0,636000
17,808667	0,5	0,651050
17,817000	0,5	0,662400
17,825333	0,5	0,689850
17,833667	0,5	0,735600
17,842000	0,5	0,809000
17,850333	0,5	0,878950
17,858667	0,5	0,941100
17,867000	0,5	0,983450
17,875333	0,5	0,995650
17,883667	0,5	0,973800
17,892000	0,5	0,917150
17,900333	0,5	0,845900
17,908667	0,5	0,763550
17,917000	0,5	0,699650
17,925333	0,5	0,633150
17,933667	0,5	0,569950
17,942000	0,5	0,536250
17,950333	0,5	0,512300
17,958667	0,5	0,485100
17,967000	0,5	0,462300
17,975333	0,5	0,427700
17,983667	0,5	0,419400
17,992000	0,5	0,410150
18,000333	0,5	0,407350
18,008667	0,5	0,399850
18,017000	0,5	0,394900
18,025333	0,5	0,388050
18,033667	0,5	0,385550
18,042000	0,5	0,377100
18,050333	0,5	0,369600
18,058667	0,5	0,372400
18,067000	0,5	0,371100
18,075333	0,5	0,359650
18,083667	0,5	0,347700
18,092000	0,5	0,353050
18,100333	0,5	0,340950
18,108667	0,5	0,335350
18,117000	0,5	0,304300
18,125333	0,5	0,294300
18,133667	0,5	0,282600
18,142000	0,5	0,286650
18,150333	0,5	0,275000
18,158667	0,5	0,268850
18,167000	0,5	0,259050
18,175333	0,5	0,252850
18,183667	0,5	0,246550
18,192000	0,5	0,238750
18,200333	0,5	0,232950
18,208667	0,5	0,231100
18,217000	0,5	0,229450
18,225333	0,5	0,207750
18,233667	0,5	0,209400
18,242000	0,5	0,212550
18,250333	0,5	0,205050
18,258667	0,5	0,192750
18,267000	0,5	0,169700
18,275333	0,5	0,164350
18,283667	0,5	0,162000
18,292000	0,5	0,148100
18,300333	0,5	0,146250
18,308667	0,5	0,134100
18,317000	0,5	0,130050
18,325333	0,5	0,116550
18,333667	0,5	0,114200
18,342000	0,5	0,101850
18,350333	0,5	0,095200
18,358667	0,5	0,099350
18,367000	0,5	0,096300
18,375333	0,5	0,070100
18,383667	0,5	0,075450
18,392000	0,5	0,068700
18,400333	0,5	0,054900
18,408667	0,5	0,042550
18,417000	0,5	0,011700
18,425333	0,5	0,017450
18,433667	0,5	0,002300
18,442000	0,5	0,001500
18,450333	0,5	-0,008400
18,458667	0,5	-0,011800
18,467000	0,5	-0,018400
18,475333	0,5	-0,017850
18,483667	0,5	-0,025850
18,492000	0,5	-0,026850
18,500333	0,5	-0,032750
18,508667	0,5	-0,019650
18,517000	0,5	-0,032000
18,525333	0,5	-0,045600
18,533667	0,5	-0,043700
18,542000	0,5	-0,055500
18,550333	0,5	-0,068500
18,558667	0,5	-0,091250
18,567000	0,5	-0,105200
18,575333	0,5	-0,108300
18,583667	0,5	-0,108650
18,592000	0,5	-0,114950
18,600333	0,5	-0,116750
18,608667	0,5	-0,122650
18,617000	0,5	-0,117450
18,625333	0,5	-0,120950
18,633667	0,5	-0,119900
18,642000	0,5	-0,124350
18,650333	0,5	-0,120400
18,658667	0,5	-0,115800
18,667000	0,5	-0,131800
18,675333	0,5	-0,127750
18,683667	0,5	-0,121250
18,692000	0,5	-0,123450
18,700333	0,5	-0,133150
18,708667	0,5	-0,151900
18,717000	0,5	-0,151450
18,725333	0,5	-0,140400
18,733667	0,5	-0,136400
18,742000	0,5	-0,127650
18,750333	0,5	-0,122300
18,758667	0,5	-0,108900
18,767000	0,5	-0,104000
18,775333	0,5	-0,087950
18,783667	0,5	-0,079350
18,792000	0,5	-0,065100
18,800333	0,5	-0,039650
18,808667	0,5	-0,018100
18,817000	0,5	-0,017450
18,825333	0,5	0,014250
18,833667	0,5	0,030300
18,842000	0,5	0,046300
18,850333	0,5	0,050200
18,858667	0,5	0,056200
18,867000	0,5	0,075050
18,875333	0,5	0,095800
18,883667	0,5	0,105850
18,892000	0,5	0,115300
18,900333	0,5	0,127050
18,908667	0,5	0,129950
18,917000	0,5	0,136050
18,925333	0,5	0,133000
18,933667	0,5	0,137400
18,942000	0,5	0,131350
18,950333	0,5	0,133350
18,958667	0,5	0,115150
18,967000	0,5	0,106450
18,975333	0,5	0,096900
18,983667	0,5	0,081500
18,992000	0,5	0,059350
19,000333	0,5	0,028050
19,008667	0,5	-0,002400
19,017000	0,5	-0,018450
19,025333	0,5	-0,033050
19,033667	0,5	-0,048850
19,042000	0,5	-0,065750
19,050333	0,5	-0,078900
19,058667	0,5	-0,090300
19,067000	0,5	-0,111700
19,075333	0,5	-0,125150
19,083667	0,5	-0,145650
19,092000	0,5	-0,148750
19,100333	0,5	-0,161150
19,108667	0,5	-0,190900
19,117000	0,5	-0,198650
19,125333	0,5	-0,202950
19,133667	0,5	-0,226500
19,142000	0,5	-0,241500
19,150333	0,5	-0,277400
19,158667	0,5	-0,283950
19,167000	0,5	-0,294500
19,175333	0,5	-0,299650
19,183667	0,5	-0,310900
19,192000	0,5	-0,317550
19,200333	0,5	-0,324300
19,208667	0,5	-0,328800
19,217000	0,5	-0,330300
19,225333	0,5	-0,338800
19,233667	0,5	-0,336150
19,242000	0,5	-0,327100
19,250333	0,5	-0,326300
19,258667	0,5	-0,331450
19,267000	0,5	-0,304150
19,275333	0,5	-0,283200
19,283667	0,5	-0,260950
19,292000	0,5	-0,239600
19,300333	0,5	-0,197200
19,308667	0,5	-0,145150
19,317000	0,5	-0,086300
19,325333	0,5	-0,040550
19,333667	0,5	0,005900
19,342000	0,5	0,029800
19,350333	0,5	0,040850
19,358667	0,5	0,029700
19,367000	0,5	0,006350
19,375333	0,5	-0,032250
19,383667	0,5	-0,082900
19,392000	0,5	-0,116250
19,400333	0,5	-0,179700
19,408667	0,5	-0,215750
19,417000	0,5	-0,248600
19,425333	0,5	-0,274750
19,433667	0,5	-0,308500
19,442000	0,5	-0,337000
19,450333	0,5	-0,355700
19,458667	0,5	-0,355200
19,467000	0,5	-0,366100
19,475333	0,5	-0,371200
19,483667	0,5	-0,379750
19,492000	0,5	-0,383000
19,500333	0,5	-0,394500
19,508667	0,5	-0,401500
19,517000	0,5	-0,412450
19,525333	0,5	-0,426600
19,533667	0,5	-0,428600
19,542000	0,5	-0,434500
19,550333	0,5	-0,461350
19,558667	0,5	-0,455050
19,567000	0,5	-0,456750
19,575333	0,5	-0,458150
19,583667	0,5	-0,465550
19,592000	0,5	-0,482500
19,600333	0,5	-0,463050
19,608667	0,5	-0,454500
19,617000	0,5	-0,444950
19,625333	0,5	-0,445900
19,633667	0,5	-0,437300
19,642000	0,5	-0,442200
19,650333	0,5	-0,444650
19,658667	0,5	-0,451250
19,667000	0,5	-0,462450
19,675333	0,5	-0,476900
19,683667	0,5	-0,486550
19,692000	0,5	-0,501100
19,700333	0,5	-0,530800
19,708667	0,5	-0,532100
19,717000	0,5	-0,545650
19,725333	0,5	-0,558000
19,733667	0,5	-0,574100
19,742000	0,5	-0,587100
19,750333	0,5	-0,578300
19,758667	0,5	-0,570750
19,767000	0,5	-0,579200
19,775333	0,5	-0,577550
19,783667	0,5	-0,596450
19,792000	0,5	-0,606900
19,800333	0,5	-0,628250
19,808667	0,5	-0,634800
19,817000	0,5	-0,648950
19,825333	0,5	-0,654050
19,833667	0,5	-0,657100
19,842000	0,5	-0,671050
19,850333	0,5	-0,674250
19,858667	0,5	-0,668150
19,867000	0,5	-0,681450
19,875333	0,5	-0,692000
19,883667	0,5	-0,711250
19,892000	0,5	-0,727800
19,900333	0,5	-0,720350
19,908667	0,5	-0,728450
19,917000	0,5	-0,730050
19,925333	0,5	-0,739700
19,933667	0,5	-0,736350
19,942000	0,5	-0,745700
19,950333	0,5	-0,740800
19,958667	0,5	-0,746600
19,967000	0,5	-0,749600
19,975333	0,5	-0,732350
19,983667	0,5	-0,735300
19,992000	0,5	-0,750900
20,000333	0,5	-0,744200
20,008667	0,5	-0,744500
20,017000	0,5	-0,752000
20,025333	0,5	-0,768250
20,033667	0,5	-0,788000
20,042000	0,5	-0,789850
20,050333	0,5	-0,790300
20,058667	0,5	-0,785950
20,067000	0,5	-0,793200
20,075333	0,5	-0,790200
20,083667	0,5	-0,796150
20,092000	0,5	-0,794200
20,100333	0,5	-0,798200
20,108667	0,5	-0,802500
20,117000	0,5	-0,804100
20,125333	0,5	-0,791400
20,133667	0,5	-0,810550
20,142000	0,5	-0,816250
20,150333	0,5	-0,814050
20,158667	0,5	-0,816300
20,167000	0,5	-0,828250
20,175333	0,5	-0,848700
20,183667	0,5	-0,852550
20,192000	0,5	-0,851250
20,200333	0,5	-0,851800
20,208667	0,5	-0,849900
20,217000	0,5	-0,848700
20,225333	0,5	-0,854250
20,233667	0,5	-0,845900
20,242000	0,5	-0,849300
20,250333	0,5	-0,840100
20,258667	0,5	-0,837000
20,267000	0,5	-0,814800
20,275333	0,5	-0,797500
20,283667	0,5	-0,801100
20,292000	0,5	-0,784550
20,300333	0,5	-0,768600
20,308667	0,5	-0,759400
20,317000	0,5	-0,758050
20,325333	0,5	-0,774750
20,333667	0,5	-0,765800
20,342000	0,5	-0,761700
20,350333	0,5	-0,767500
20,358667	0,5	-0,772850
20,367000	0,5	-0,775450
20,375333	0,5	-0,767700
20,383667	0,5	-0,775200
20,392000	0,5	-0,761450
20,400333	0,5	-0,757550
20,408667	0,5	-0,748850
20,417000	0,5	-0,725850
20,425333	0,5	-0,713100
20,433667	0,5	-0,723500
20,442000	0,5	-0,702550
20,450333	0,5	-0,696050
20,458667	0,5	-0,692150
20,467000	0,5	-0,702050
20,475333	0,5	-0,709750
20,483667	0,5	-0,695150
20,492000	0,5	-0,688650
20,500333	0,5	-0,688000
20,508667	0,5	-0,688350
20,517000	0,5	-0,684700
20,525333	0,5	-0,681550
20,533667	0,5	-0,674250
20,542000	0,5	-0,667900
20,550333	0,5	-0,657950
20,558667	0,5	-0,644000
20,567000	0,5	-0,619700
20,575333	0,5	-0,623200
20,583667	0,5	-0,626450
20,592000	0,5	-0,630150
20,600333	0,5	-0,631950
20,608667	0,5	-0,646750
20,617000	0,5	-0,655650
20,625333	0,5	-0,666800
20,633667	0,5	-0,662800
20,642000	0,5	-0,664400
20,650333	0,5	-0,665150
20,658667	0,5	-0,666850
20,667000	0,5	-0,675300
20,675333	0,5	-0,673350
20,683667	0,5	-0,678900
20,692000	0,5	-0,677900
20,700333	0,5	-0,683250
20,708667	0,5	-0,659250
20,717000	0,5	-0,655250
20,725333	0,5	-0,666550
20,733667	0,5	-0,663750
20,742000	0,5	-0,660000
20,750333	0,5	-0,660100
20,758667	0,5	-0,664400
20,767000	0,5	-0,684400
20,775333	0,5	-0,684250
20,783667	0,5	-0,690550
20,792000	0,5	-0,696250
20,800333	0,5	-0,703450
20,808667	0,5	-0,704450
20,817000	0,5	-0,704400
20,825333	0,5	-0,710100
20,833667	0,5	-0,698250
20,842000	0,5	-0,704150
20,850333	0,5	-0,686850
20,858667	0,5	-0,660800
20,867000	0,5	-0,648850
20,875333	0,5	-0,649750
20,883667	0,5	-0,643050
20,892000	0,5	-0,645750
20,900333	0,5	-0,643200
20,908667	0,5	-0,658400
20,917000	0,5	-0,660650
20,925333	0,5	-0,651750
20,933667	0,5	-0,642100
20,942000	0,5	-0,638400
20,950333	0,5	-0,625300
20,958667	0,5	-0,619500
20,967000	0,5	-0,614050
20,975333	0,5	-0,600300
20,983667	0,5	-0,594900
20,992000	0,5	-0,583100
21,000333	0,5	-0,558700
21,008667	0,5	-0,537000
21,017000	0,5	-0,536100
21,025333	0,5	-0,536600
21,033667	0,5	-0,536700
21,042000	0,5	-0,545400
21,050333	0,5	-0,557100
21,058667	0,5	-0,570600
21,067000	0,5	-0,573200
21,075333	0,5	-0,562450
21,083667	0,5	-0,551900
21,092000	0,5	-0,538550
21,100333	0,5	-0,527250
21,108667	0,5	-0,521900
21,117000	0,5	-0,521800
21,125333	0,5	-0,523700
21,133667	0,5	-0,527150
21,142000	0,5	-0,530500
21,150333	0,5	-0,499200
21,158667	0,5	-0,494350
21,167000	0,5	-0,501400
21,175333	0,5	-0,500050
21,183667	0,5	-0,496100
21,192000	0,5	-0,504450
21,200333	0,5	-0,511000
21,208667	0,5	-0,510100
21,217000	0,5	-0,496650
21,225333	0,5	-0,495250
21,233667	0,5	-0,485450
21,242000	0,5	-0,489200
21,250333	0,5	-0,487900
21,258667	0,5	-0,490750
21,267000	0,5	-0,494650
21,275333	0,5	-0,495500
21,283667	0,5	-0,497250
21,292000	0,5	-0,471400
21,300333	0,5	-0,453350
21,308667	0,5	-0,448850
21,317000	0,5	-0,452150
21,325333	0,5	-0,446050
21,333667	0,5	-0,448450
21,342000	0,5	-0,446050
21,350333	0,5	-0,459650
21,358667	0,5	-0,444150
21,367000	0,5	-0,432300
21,375333	0,5	-0,418450
21,383667	0,5	-0,416900
21,392000	0,5	-0,406300
21,400333	0,5	-0,395750
21,408667	0,5	-0,378250
21,417000	0,5	-0,360900
21,425333	0,5	-0,348200
21,433667	0,5	-0,320800
21,442000	0,5	-0,260650
21,450333	0,5	-0,194600
21,458667	0,5	-0,127500
21,467000	0,5	-0,030650
21,475333	0,5	0,048700
21,483667	0,5	0,091450
21,492000	0,5	0,064650
21,500333	0,5	0,005350
21,508667	0,5	-0,049050
21,517000	0,5	-0,090100
21,525333	0,5	-0,120500
21,533667	0,5	-0,124600
21,542000	0,5	-0,118400
21,550333	0,5	-0,108850
21,558667	0,5	-0,090150
21,567000	0,5	-0,065650
21,575333	0,5	-0,037950
21,583667	0,5	0,011150
21,592000	0,5	0,083550
21,600333	0,5	0,159600
21,608667	0,5	0,253650
21,617000	0,5	0,373600
21,625333	0,5	0,476350
21,633667	0,5	0,515700
21,642000	0,5	0,494050
21,650333	0,5	0,428500
21,658667	0,5	0,367700
21,667000	0,5	0,306900
21,675333	0,5	0,288700
21,683667	0,5	0,300850
21,692000	0,5	0,337450
21,700333	0,5	0,378800
21,708667	0,5	0,403250
21,717000	0,5	0,390100
21,725333	0,5	0,350600
21,733667	0,5	0,341150
21,742000	0,5	0,318450
21,750333	0,5	0,303000
21,758667	0,5	0,308600
21,767000	0,5	0,318300
21,775333	0,5	0,340000
21,783667	0,5	0,363950
21,792000	0,5	0,392200
21,800333	0,5	0,440850
21,808667	0,5	0,481700
21,817000	0,5	0,525000
21,825333	0,5	0,553550
21,833667	0,5	0,584450
21,842000	0,5	0,614250
21,850333	0,5	0,643700
21,858667	0,5	0,675500
21,867000	0,5	0,703850
21,875333	0,5	0,749950
21,883667	0,5	0,800450
21,892000	0,5	0,824250
21,900333	0,5	0,847850
21,908667	0,5	0,873400
21,917000	0,5	0,882250
21,925333	0,5	0,909050
21,933667	0,5	0,928000
21,942000	0,5	0,967300
21,950333	0,5	1,010000
21,958667	0,5	1,038850
21,967000	0,5	1,053400
21,975333	0,5	1,072250
21,983667	0,5	1,086200
21,992000	0,5	1,104100
22,000333	0,5	1,131200
22,008667	0,5	1,161450
22,017000	0,5	1,197900
22,025333	0,5	1,245350
22,033667	0,5	1,295150
22,042000	0,5	1,325650
22,050333	0,5	1,373600
22,058667	0,5	1,418450
22,067000	0,5	1,445800
22,075333	0,5	1,473100
22,083667	0,5	1,499650
22,092000	0,5	1,541350
22,100333	0,5	1,592200
22,108667	0,5	1,645350
22,117000	0,5	1,715750
22,125333	0,5	1,799350
22,133667	0,5	1,889300
22,142000	0,5	1,961400
22,150333	0,5	1,961350
22,158667	0,5	2,026450
22,167000	0,5	2,043450
22,175333	0,5	2,076000
22,183667	0,5	2,093400
22,192000	0,5	2,149400
22,200333	0,5	2,201750
22,208667	0,5	2,253100
22,217000	0,5	2,292550
22,225333	0,5	2,325350
22,233667	0,5	2,370800
22,242000	0,5	2,424750
22,250333	0,5	2,474700
22,258667	0,5	2,527500
22,267000	0,5	2,576450
22,275333	0,5	2,633950
22,283667	0,5	2,695000
22,292000	0,5	2,766300
22,300333	0,5	2,837050
22,308667	0,5	2,893100
22,317000	0,5	2,919850
22,325333	0,5	2,942900
22,333667	0,5	2,967250
22,342000	0,5	3,016750
22,350333	0,5	3,060650
22,358667	0,5	3,096350
22,367000	0,5	3,138700
22,375333	0,5	3,167550
22,383667	0,5	3,235100
22,392000	0,5	3,284800
22,400333	0,5	3,341000
22,408667	0,5	3,389900
22,417000	0,5	3,451000
22,425333	0,5	3,502950
22,433667	0,5	3,570350
22,442000	0,5	3,634150
22,450333	0,5	3,695300
22,458667	0,5	3,764600
22,467000	0,5	3,800850
22,475333	0,5	3,887800
22,483667	0,5	3,958300
22,492000	0,5	4,043100
22,500333	0,5	4,103200
22,508667	0,5	4,159400
22,517000	0,5	4,204250
22,525333	0,5	4,255200
22,533667	0,5	4,325300
22,542000	0,5	4,394150
22,550333	0,5	4,455500
22,558667	0,5	4,522650
22,567000	0,5	4,572750
22,575333	0,5	4,625550
22,583667	0,5	4,661350
22,592000	0,5	4,696900
22,600333	0,5	4,722450
22,608667	0,5	4,711500
22,617000	0,5	4,735100
22,625333	0,5	4,756150
22,633667	0,5	4,796200
22,642000	0,5	4,809550
22,650333	0,5	4,812150
22,658667	0,5	4,803500
22,667000	0,5	4,799250
22,675333	0,5	4,788400
22,683667	0,5	4,785450
22,692000	0,5	4,754300
22,700333	0,5	4,711150
22,708667	0,5	4,649700
22,717000	0,5	4,583400
22,725333	0,5	4,509200
22,733667	0,5	4,422850
22,742000	0,5	4,334250
22,750333	0,5	4,227800
22,758667	0,5	4,068650
22,767000	0,5	3,962300
22,775333	0,5	3,871100
22,783667	0,5	3,755600
22,792000	0,5	3,626150
22,800333	0,5	3,485000
22,808667	0,5	3,340700
22,817000	0,5	3,192450
22,825333	0,5	3,046950
22,833667	0,5	2,898350
22,842000	0,5	2,751350
22,850333	0,5	2,599700
22,858667	0,5	2,451500
22,867000	0,5	2,299700
22,875333	0,5	2,143650
22,883667	0,5	1,989550
22,892000	0,5	1,827550
22,900333	0,5	1,670500
22,908667	0,5	1,463500
22,917000	0,5	1,315900
22,925333	0,5	1,160650
22,933667	0,5	0,976450
22,942000	0,5	0,816500
22,950333	0,5	0,651300
22,958667	0,5	0,500550
22,967000	0,5	0,345500
22,975333	0,5	0,196250
22,983667	0,5	0,049700
22,992000	0,5	-0,084650
23,000333	0,5	-0,219250
23,008667	0,5	-0,343150
23,017000	0,5	-0,471950
23,025333	0,5	-0,592900
23,033667	0,5	-0,714450
23,042000	0,5	-0,835000
23,050333	0,5	-0,927750
23,058667	0,5	-1,039350
23,067000	0,5	-1,149900
23,075333	0,5	-1,281850
23,083667	0,5	-1,384250
23,092000	0,5	-1,469000
23,100333	0,5	-1,542900
23,108667	0,5	-1,619100
23,117000	0,5	-1,687900
23,125333	0,5	-1,756000
23,133667	0,5	-1,802300
23,142000	0,5	-1,858450
23,150333	0,5	-1,897700
23,158667	0,5	-1,945450
23,167000	0,5	-1,985050
23,175333	0,5	-2,027850
23,183667	0,5	-2,062800
23,192000	0,5	-2,087950
23,200333	0,5	-2,139250
23,208667	0,5	-2,152400
23,217000	0,5	-2,179500
23,225333	0,5	-2,237300
23,233667	0,5	-2,271100
23,242000	0,5	-2,281100
23,250333	0,5	-2,284300
23,258667	0,5	-2,282900
23,267000	0,5	-2,296200
23,275333	0,5	-2,285200
23,283667	0,5	-2,279050
23,292000	0,5	-2,262100
23,300333	0,5	-2,251550
23,308667	0,5	-2,234650
23,317000	0,5	-2,223750
23,325333	0,5	-2,206300
23,333667	0,5	-2,196500
23,342000	0,5	-2,185900
23,350333	0,5	-2,191450
23,358667	0,5	-2,158200
23,367000	0,5	-2,133950
23,375333	0,5	-2,146000
23,383667	0,5	-2,143800
23,392000	0,5	-2,124600
23,400333	0,5	-2,099550
23,408667	0,5	-2,086200
23,417000	0,5	-2,065800
23,425333	0,5	-2,040750
23,433667	0,5	-2,005250
23,442000	0,5	-1,979600
23,450333	0,5	-1,942550
23,458667	0,5	-1,917800
23,467000	0,5	-1,887100
23,475333	0,5	-1,862950
23,483667	0,5	-1,834000
23,492000	0,5	-1,888850
23,500333	0,5	-1,833800
23,508667	0,5	-1,782150
23,517000	0,5	-1,742500
23,525333	0,5	-1,736500
23,533667	0,5	-1,729100
23,542000	0,5	-1,713350
23,550333	0,5	-1,697050
23,558667	0,5	-1,681900
23,567000	0,5	-1,669450
23,575333	0,5	-1,654450
23,583667	0,5	-1,636650
23,592000	0,5	-1,623000
23,600333	0,5	-1,607150
23,608667	0,5	-1,590600
23,617000	0,5	-1,577800
23,625333	0,5	-1,562050
23,633667	0,5	-1,567900
23,642000	0,5	-1,666300
23,650333	0,5	-1,598200
23,658667	0,5	-1,554300
23,667000	0,5	-1,515350
23,675333	0,5	-1,512300
23,683667	0,5	-1,508250
23,692000	0,5	-1,503750
23,700333	0,5	-1,500300
23,708667	0,5	-1,491400
23,717000	0,5	-1,486100
23,725333	0,5	-1,477400
23,733667	0,5	-1,472850
23,742000	0,5	-1,464850
23,750333	0,5	-1,459050
23,758667	0,5	-1,455800
23,767000	0,5	-1,455150
23,775333	0,5	-1,454150
23,783667	0,5	-1,553250
23,792000	0,5	-1,584900
23,800333	0,5	-1,562200
23,808667	0,5	-1,502450
23,817000	0,5	-1,478600
23,825333	0,5	-1,478850
23,833667	0,5	-1,484950
23,842000	0,5	-1,494050
23,850333	0,5	-1,496200
23,858667	0,5	-1,486600
23,867000	0,5	-1,481000
23,875333	0,5	-1,475200
23,883667	0,5	-1,466850
23,892000	0,5	-1,456800
23,900333	0,5	-1,443450
23,908667	0,5	-1,436550
23,917000	0,5	-1,428150
23,925333	0,5	-1,432300
23,933667	0,5	-1,559900
23,942000	0,5	-1,544700
23,950333	0,5	-1,505050
23,958667	0,5	-1,455150
23,967000	0,5	-1,429450
23,975333	0,5	-1,429900
23,983667	0,5	-1,428000
23,992000	0,5	-1,440100
24,000333	0,5	-1,431000
24,008667	0,5	-1,426450
24,017000	0,5	-1,414250
24,025333	0,5	-1,410600
24,033667	0,5	-1,402500
24,042000	0,5	-1,396450
24,050333	0,5	-1,384150
24,058667	0,5	-1,375200
24,067000	0,5	-1,370100
24,075333	0,5	-1,400400
24,083667	0,5	-1,489650
24,092000	0,5	-1,454200
24,100333	0,5	-1,410400
24,108667	0,5	-1,359600
24,117000	0,5	-1,335700
24,125333	0,5	-1,326500
24,133667	0,5	-1,324050
24,142000	0,5	-1,316300
24,150333	0,5	-1,301150
24,158667	0,5	-1,279500
24,167000	0,5	-1,272100
24,175333	0,5	-1,251400
24,183667	0,5	-1,237500
24,192000	0,5	-1,219350
24,200333	0,5	-1,203650
24,208667	0,5	-1,189100
24,217000	0,5	-1,179850
24,225333	0,5	-1,272250
24,233667	0,5	-1,264300
24,242000	0,5	-1,244550
24,250333	0,5	-1,196300
24,258667	0,5	-1,164100
24,267000	0,5	-1,142550
24,275333	0,5	-1,135700
24,283667	0,5	-1,139900
24,292000	0,5	-1,135300
24,300333	0,5	-1,109450
24,308667	0,5	-1,099700
24,317000	0,5	-1,079950
24,325333	0,5	-1,067250
24,333667	0,5	-1,044250
24,342000	0,5	-1,027550
24,350333	0,5	-1,005650
24,358667	0,5	-0,994200
24,367000	0,5	-0,981900
24,375333	0,5	-1,063150
24,383667	0,5	-1,020200
24,392000	0,5	-0,999950
24,400333	0,5	-0,947950
24,408667	0,5	-0,924700
24,417000	0,5	-0,908750
24,425333	0,5	-0,902400
24,433667	0,5	-0,905200
24,442000	0,5	-0,883250
24,450333	0,5	-0,871400
24,458667	0,5	-0,853700
24,467000	0,5	-0,844550
24,475333	0,5	-0,828900
24,483667	0,5	-0,816900
24,492000	0,5	-0,799550
24,500333	0,5	-0,787000
24,508667	0,5	-0,771450
24,517000	0,5	-0,788500
24,525333	0,5	-0,831000
24,533667	0,5	-0,802350
24,542000	0,5	-0,774750
24,550333	0,5	-0,739850
24,558667	0,5	-0,719000
24,567000	0,5	-0,706350
24,575333	0,5	-0,697650
24,583667	0,5	-0,696850
24,592000	0,5	-0,683900
24,600333	0,5	-0,664250
24,608667	0,5	-0,650900
24,617000	0,5	-0,634000
24,625333	0,5	-0,618500
24,633667	0,5	-0,598750
24,642000	0,5	-0,585850
24,650333	0,5	-0,569900
24,658667	0,5	-0,564350
24,667000	0,5	-0,592150
24,675333	0,5	-0,597600
24,683667	0,5	-0,573250
24,692000	0,5	-0,551750
24,700333	0,5	-0,526950
24,708667	0,5	-0,518900
24,717000	0,5	-0,509550
24,725333	0,5	-0,511800
24,733667	0,5	-0,508950
24,742000	0,5	-0,498800
24,750333	0,5	-0,484050
24,758667	0,5	-0,475050
24,767000	0,5	-0,462550
24,775333	0,5	-0,452300
24,783667	0,5	-0,438050
24,792000	0,5	-0,424900
24,800333	0,5	-0,415750
24,808667	0,5	-0,401800
24,817000	0,5	-0,429850
24,825333	0,5	-0,409550
24,833667	0,5	-0,400200
24,842000	0,5	-0,376300
24,850333	0,5	-0,359950
24,858667	0,5	-0,349650
24,867000	0,5	-0,347200
24,875333	0,5	-0,342750
24,883667	0,5	-0,337750
24,892000	0,5	-0,325300
24,900333	0,5	-0,318900
24,908667	0,5	-0,308150
24,917000	0,5	-0,302600
24,925333	0,5	-0,294350
24,933667	0,5	-0,285750
24,942000	0,5	-0,275800
24,950333	0,5	-0,269150
24,958667	0,5	-0,270600
24,967000	0,5	-0,280200
24,975333	0,5	-0,271250
24,983667	0,5	-0,260350
24,992000	0,5	-0,245600
25,000333	0,5	-0,234650
25,008667	0,5	-0,227850
25,017000	0,5	-0,228600
25,025333	0,5	-0,225800
25,033667	0,5	-0,217300
25,042000	0,5	-0,210850
25,050333	0,5	-0,197800
25,058667	0,5	-0,192350
25,067000	0,5	-0,181100
25,075333	0,5	-0,175550
25,083667	0,5	-0,168950
25,092000	0,5	-0,158100
25,100333	0,5	-0,154500
25,108667	0,5	-0,156550
25,117000	0,5	-0,152700
25,125333	0,5	-0,146950
25,133667	0,5	-0,136400
25,142000	0,5	-0,130700
25,150333	0,5	-0,126050
25,158667	0,5	-0,123100
25,167000	0,5	-0,122350
25,175333	0,5	-0,123100
25,183667	0,5	-0,118150
25,192000	0,5	-0,113000
25,200333	0,5	-0,112450
25,208667	0,5	-0,107550
25,217000	0,5	-0,103250
25,225333	0,5	-0,098300
25,233667	0,5	-0,093150
25,242000	0,5	-0,086650
25,250333	0,5	-0,083300
25,258667	0,5	-0,081000
25,267000	0,5	-0,073850
25,275333	0,5	-0,070150
25,283667	0,5	-0,065600
25,292000	0,5	-0,058700
25,300333	0,5	-0,053550
25,308667	0,5	-0,051100
25,317000	0,5	-0,052200
25,325333	0,5	-0,050450
25,333667	0,5	-0,046450
25,342000	0,5	-0,044900
25,350333	0,5	-0,045350
25,358667	0,5	-0,040100
25,367000	0,5	-0,039850
25,375333	0,5	-0,038050
25,383667	0,5	-0,037100
25,392000	0,5	-0,034250
25,400333	0,5	-0,033650
25,408667	0,5	-0,027450
25,417000	0,5	-0,026200
25,425333	0,5	-0,021400
25,433667	0,5	-0,025850
25,442000	0,5	-0,021150
25,450333	0,5	-0,018900
25,458667	0,5	-0,017150
25,467000	0,5	-0,011650
25,475333	0,5	-0,010750
25,483667	0,5	-0,008400
25,492000	0,5	-0,006700
25,500333	0,5	-0,001100
25,508667	0,5	-0,001550
25,517000	0,5	0,001700
25,525333	0,5	0,001700
25,533667	0,5	0,002850
25,542000	0,5	0,004800
25,550333	0,5	0,008800
25,558667	0,5	0,016400
25,567000	0,5	0,014800
25,575333	0,5	0,013350
25,583667	0,5	0,010850
25,592000	0,5	0,010050
25,600333	0,5	0,012800
25,608667	0,5	0,011100
25,617000	0,5	0,016550
25,625333	0,5	0,016850
25,633667	0,5	0,016500
25,642000	0,5	0,019800
25,650333	0,5	0,021300
25,658667	0,5	0,022250
25,667000	0,5	0,023500
25,675333	0,5	0,025900
25,683667	0,5	0,026500
25,692000	0,5	0,031350
25,700333	0,5	0,037650
25,708667	0,5	0,044400
25,717000	0,5	0,045500
25,725333	0,5	0,043750
25,733667	0,5	0,038450
25,742000	0,5	0,042850
25,750333	0,5	0,048400
25,758667	0,5	0,054400
25,767000	0,5	0,056950
25,775333	0,5	0,060400
25,783667	0,5	0,056900
25,792000	0,5	0,057800
25,800333	0,5	0,060550
25,808667	0,5	0,060500
25,817000	0,5	0,062300
25,825333	0,5	0,062650
25,833667	0,5	0,065700
25,842000	0,5	0,065550
25,850333	0,5	0,072350
25,858667	0,5	0,073900
25,867000	0,5	0,082900
25,875333	0,5	0,070850
25,883667	0,5	0,072550
25,892000	0,5	0,072950
25,900333	0,5	0,081300
25,908667	0,5	0,086750
25,917000	0,5	0,085750
25,925333	0,5	0,083150
25,933667	0,5	0,089400
25,942000	0,5	0,084150
25,950333	0,5	0,088000
25,958667	0,5	0,086100
25,967000	0,5	0,085900
25,975333	0,5	0,086200
25,983667	0,5	0,088450
25,992000	0,5	0,094150
26,000333	0,5	0,089100
