File Path	chrom://chromeleon01/ikbm_chromeleon/2022/ICS-5000/ED1/Esteban/20220612_Cell_7_4_eg.seq/208.smp/ED_1.channel/ED_1.chm
Channel	ED_1

Injection Information:
Data Vault	ikbm_chromeleon
Injection	Std_C1ox-0.01_3
Injection Number	152
Position	RA2
Comment	
Processing Method	Stop sequence after Cell Death
Instrument Method	ICS5000_PA200_FullNative_Ox_26min_ED1
Type	Unknown
Status	Finished
Injection Date	15.06.2022
Injection Time	16:02:03
Injection Volume (µl)	5,0
Dilution Factor	1,0000
Weight	1,0000

Chromatogram Data Information:
Time Min. (min)	0,000333
Time Max. (min)	26,000333
Data Points	3121
Detector	EDet1
Generating Data System	Chromeleon 7.2.9.11323
Exporting Data System	Chromeleon 7.2.9.0
Operator	Instrument Controller
Signal Quantity	
Signal Unit	nC
Signal Min.	-2,196950
Signal Max.	70,874151
Channel	ED_1
Driver Name	DC-5000
Channel Type	Evaluation
Min. Step (s)	0,5
Max. Step (s)	0,5
Average Step (s)	0,5

Signal Parameter Information:
Signal Info	

Chromatogram Data:
Time (min)	Step (s)	Value (nC)
0,000333	n.a.	-0,032000
0,008667	0,5	-0,080150
0,017000	0,5	-0,071500
0,025333	0,5	-0,059250
0,033667	0,5	-0,047000
0,042000	0,5	-0,019550
0,050333	0,5	-0,051450
0,058667	0,5	-0,053700
0,067000	0,5	-0,052500
0,075333	0,5	-0,019850
0,083667	0,5	-0,004050
0,092000	0,5	0,003850
0,100333	0,5	-0,012300
0,108667	0,5	-0,010150
0,117000	0,5	-0,015800
0,125333	0,5	-0,015750
0,133667	0,5	-0,017450
0,142000	0,5	-0,022150
0,150333	0,5	-0,029900
0,158667	0,5	-0,033600
0,167000	0,5	-0,033400
0,175333	0,5	-0,054850
0,183667	0,5	-0,031600
0,192000	0,5	-0,037300
0,200333	0,5	-0,052850
0,208667	0,5	-0,063800
0,217000	0,5	-0,054100
0,225333	0,5	-0,036550
0,233667	0,5	-0,015650
0,242000	0,5	-0,029300
0,250333	0,5	-0,020750
0,258667	0,5	-0,031600
0,267000	0,5	-0,033050
0,275333	0,5	-0,043000
0,283667	0,5	-0,040100
0,292000	0,5	-0,052050
0,300333	0,5	-0,046350
0,308667	0,5	-0,037500
0,317000	0,5	-0,054550
0,325333	0,5	-0,079000
0,333667	0,5	-0,057850
0,342000	0,5	-0,071550
0,350333	0,5	-0,082200
0,358667	0,5	-0,083200
0,367000	0,5	-0,076200
0,375333	0,5	-0,037600
0,383667	0,5	-0,041750
0,392000	0,5	-0,045250
0,400333	0,5	-0,054100
0,408667	0,5	-0,043700
0,417000	0,5	-0,053250
0,425333	0,5	-0,041800
0,433667	0,5	-0,052100
0,442000	0,5	-0,049250
0,450333	0,5	-0,055000
0,458667	0,5	-0,050600
0,467000	0,5	-0,056950
0,475333	0,5	-0,067500
0,483667	0,5	-0,036650
0,492000	0,5	-0,058800
0,500333	0,5	-0,064650
0,508667	0,5	-0,062800
0,517000	0,5	-0,051600
0,525333	0,5	-0,010950
0,533667	0,5	-0,016950
0,542000	0,5	-0,029000
0,550333	0,5	-0,018450
0,558667	0,5	-0,020200
0,567000	0,5	-0,012000
0,575333	0,5	-0,021350
0,583667	0,5	-0,016600
0,592000	0,5	-0,024950
0,600333	0,5	-0,013750
0,608667	0,5	-0,009900
0,617000	0,5	-0,001100
0,625333	0,5	-0,014650
0,633667	0,5	0,022600
0,642000	0,5	-0,016100
0,650333	0,5	-0,007450
0,658667	0,5	-0,008100
0,667000	0,5	0,015850
0,675333	0,5	0,050450
0,683667	0,5	0,038950
0,692000	0,5	0,036750
0,700333	0,5	0,037500
0,708667	0,5	0,039350
0,717000	0,5	0,041700
0,725333	0,5	0,049200
0,733667	0,5	0,043350
0,742000	0,5	0,052300
0,750333	0,5	0,050250
0,758667	0,5	0,064350
0,767000	0,5	0,047950
0,775333	0,5	0,063350
0,783667	0,5	0,067400
0,792000	0,5	0,049350
0,800333	0,5	0,052900
0,808667	0,5	0,071350
0,817000	0,5	0,087700
0,825333	0,5	0,117350
0,833667	0,5	0,111100
0,842000	0,5	0,115950
0,850333	0,5	0,113300
0,858667	0,5	0,117900
0,867000	0,5	0,116350
0,875333	0,5	0,117450
0,883667	0,5	0,117150
0,892000	0,5	0,113050
0,900333	0,5	0,121600
0,908667	0,5	0,108650
0,917000	0,5	0,109500
0,925333	0,5	0,130550
0,933667	0,5	0,129900
0,942000	0,5	0,111950
0,950333	0,5	0,119400
0,958667	0,5	0,125950
0,967000	0,5	0,166950
0,975333	0,5	0,179800
0,983667	0,5	0,182800
0,992000	0,5	0,167750
1,000333	0,5	0,175750
1,008667	0,5	0,170700
1,017000	0,5	0,175400
1,025333	0,5	0,170600
1,033667	0,5	0,169950
1,042000	0,5	0,176200
1,050333	0,5	0,179400
1,058667	0,5	0,172850
1,067000	0,5	0,178500
1,075333	0,5	0,193750
1,083667	0,5	0,176050
1,092000	0,5	0,169350
1,100333	0,5	0,178650
1,108667	0,5	0,202300
1,117000	0,5	0,223100
1,125333	0,5	0,234500
1,133667	0,5	0,218500
1,142000	0,5	0,228900
1,150333	0,5	0,220350
1,158667	0,5	0,229800
1,167000	0,5	0,226450
1,175333	0,5	0,230300
1,183667	0,5	0,224500
1,192000	0,5	0,224700
1,200333	0,5	0,231900
1,208667	0,5	0,226550
1,217000	0,5	0,239000
1,225333	0,5	0,250400
1,233667	0,5	0,226000
1,242000	0,5	0,221950
1,250333	0,5	0,236800
1,258667	0,5	0,259200
1,267000	0,5	0,278450
1,275333	0,5	0,264000
1,283667	0,5	0,276450
1,292000	0,5	0,273350
1,300333	0,5	0,280450
1,308667	0,5	0,271050
1,317000	0,5	0,276700
1,325333	0,5	0,270450
1,333667	0,5	0,274500
1,342000	0,5	0,277200
1,350333	0,5	0,282800
1,358667	0,5	0,263050
1,367000	0,5	0,297200
1,375333	0,5	0,283450
1,383667	0,5	0,278700
1,392000	0,5	0,273500
1,400333	0,5	0,285100
1,408667	0,5	0,319200
1,417000	0,5	0,325550
1,425333	0,5	0,314800
1,433667	0,5	0,310950
1,442000	0,5	0,314700
1,450333	0,5	0,315450
1,458667	0,5	0,324550
1,467000	0,5	0,318450
1,475333	0,5	0,317800
1,483667	0,5	0,317350
1,492000	0,5	0,325800
1,500333	0,5	0,326750
1,508667	0,5	0,320600
1,517000	0,5	0,337700
1,525333	0,5	0,318050
1,533667	0,5	0,307500
1,542000	0,5	0,310850
1,550333	0,5	0,313250
1,558667	0,5	0,320550
1,567000	0,5	0,198350
1,575333	0,5	-0,168900
1,583667	0,5	-0,844350
1,592000	0,5	-1,522800
1,600333	0,5	-1,630400
1,608667	0,5	-0,732600
1,617000	0,5	1,353850
1,625333	0,5	4,624250
1,633667	0,5	8,307250
1,642000	0,5	10,818500
1,650333	0,5	11,154200
1,658667	0,5	9,733550
1,667000	0,5	7,795100
1,675333	0,5	6,086200
1,683667	0,5	4,936200
1,692000	0,5	4,241450
1,700333	0,5	3,895200
1,708667	0,5	3,792200
1,717000	0,5	3,810600
1,725333	0,5	3,830700
1,733667	0,5	3,760200
1,742000	0,5	3,567750
1,750333	0,5	3,351150
1,758667	0,5	3,149000
1,767000	0,5	2,977000
1,775333	0,5	2,838400
1,783667	0,5	2,788700
1,792000	0,5	2,893750
1,800333	0,5	3,143600
1,808667	0,5	3,486300
1,817000	0,5	3,777600
1,825333	0,5	3,919350
1,833667	0,5	3,943300
1,842000	0,5	3,869900
1,850333	0,5	3,738600
1,858667	0,5	3,581000
1,867000	0,5	3,376500
1,875333	0,5	3,199200
1,883667	0,5	3,031850
1,892000	0,5	2,903050
1,900333	0,5	2,763950
1,908667	0,5	2,633300
1,917000	0,5	2,497450
1,925333	0,5	2,381600
1,933667	0,5	2,285450
1,942000	0,5	2,180850
1,950333	0,5	2,108650
1,958667	0,5	2,082100
1,967000	0,5	2,052950
1,975333	0,5	2,018200
1,983667	0,5	1,998900
1,992000	0,5	1,953750
2,000333	0,5	1,913100
2,008667	0,5	1,840050
2,017000	0,5	1,780400
2,025333	0,5	1,733650
2,033667	0,5	1,738500
2,042000	0,5	1,776800
2,050333	0,5	1,923450
2,058667	0,5	2,211250
2,067000	0,5	2,689750
2,075333	0,5	3,188400
2,083667	0,5	3,444350
2,092000	0,5	3,329650
2,100333	0,5	3,093800
2,108667	0,5	3,047800
2,117000	0,5	3,429000
2,125333	0,5	4,608550
2,133667	0,5	7,350550
2,142000	0,5	12,463050
2,150333	0,5	19,251700
2,158667	0,5	24,452750
2,167000	0,5	25,153000
2,175333	0,5	21,808350
2,183667	0,5	16,993850
2,192000	0,5	12,773750
2,200333	0,5	9,749050
2,208667	0,5	7,814850
2,217000	0,5	6,630400
2,225333	0,5	5,946650
2,233667	0,5	5,544750
2,242000	0,5	5,271000
2,250333	0,5	5,053600
2,258667	0,5	4,875800
2,267000	0,5	4,699400
2,275333	0,5	4,595250
2,283667	0,5	4,545800
2,292000	0,5	4,552900
2,300333	0,5	4,585300
2,308667	0,5	4,613750
2,317000	0,5	4,658200
2,325333	0,5	4,699550
2,333667	0,5	4,752700
2,342000	0,5	4,804050
2,350333	0,5	4,864300
2,358667	0,5	4,905350
2,367000	0,5	4,956650
2,375333	0,5	5,000600
2,383667	0,5	5,047750
2,392000	0,5	5,072500
2,400333	0,5	5,133400
2,408667	0,5	5,159950
2,417000	0,5	5,188950
2,425333	0,5	5,214450
2,433667	0,5	5,254200
2,442000	0,5	5,301700
2,450333	0,5	5,340950
2,458667	0,5	5,360050
2,467000	0,5	5,386000
2,475333	0,5	5,408150
2,483667	0,5	5,432200
2,492000	0,5	5,452900
2,500333	0,5	5,468800
2,508667	0,5	5,481400
2,517000	0,5	5,488250
2,525333	0,5	5,499150
2,533667	0,5	5,484700
2,542000	0,5	5,476900
2,550333	0,5	5,492100
2,558667	0,5	5,476600
2,567000	0,5	5,461450
2,575333	0,5	5,448800
2,583667	0,5	5,439950
2,592000	0,5	5,450550
2,600333	0,5	5,411900
2,608667	0,5	5,375000
2,617000	0,5	5,341900
2,625333	0,5	5,327800
2,633667	0,5	5,301350
2,642000	0,5	5,278000
2,650333	0,5	5,238700
2,658667	0,5	5,200250
2,667000	0,5	5,160150
2,675333	0,5	5,108850
2,683667	0,5	5,053000
2,692000	0,5	4,995150
2,700333	0,5	4,959150
2,708667	0,5	4,879700
2,717000	0,5	4,818400
2,725333	0,5	4,753500
2,733667	0,5	4,706550
2,742000	0,5	4,664150
2,750333	0,5	4,594150
2,758667	0,5	4,514700
2,767000	0,5	4,443250
2,775333	0,5	4,368800
2,783667	0,5	4,297750
2,792000	0,5	4,220600
2,800333	0,5	4,152150
2,808667	0,5	4,072200
2,817000	0,5	4,006300
2,825333	0,5	3,939550
2,833667	0,5	3,859400
2,842000	0,5	3,796050
2,850333	0,5	3,734600
2,858667	0,5	3,666600
2,867000	0,5	3,636500
2,875333	0,5	3,635250
2,883667	0,5	3,682700
2,892000	0,5	3,763900
2,900333	0,5	3,826500
2,908667	0,5	3,875000
2,917000	0,5	3,871950
2,925333	0,5	3,838250
2,933667	0,5	3,787900
2,942000	0,5	3,801550
2,950333	0,5	3,931700
2,958667	0,5	4,287550
2,967000	0,5	4,944250
2,975333	0,5	5,941300
2,983667	0,5	7,174000
2,992000	0,5	8,386900
3,000333	0,5	9,136150
3,008667	0,5	9,181250
3,017000	0,5	8,514850
3,025333	0,5	7,357400
3,033667	0,5	6,066050
3,042000	0,5	4,881800
3,050333	0,5	3,951650
3,058667	0,5	3,281000
3,067000	0,5	2,834850
3,075333	0,5	2,530050
3,083667	0,5	2,319400
3,092000	0,5	2,156100
3,100333	0,5	2,036850
3,108667	0,5	1,934750
3,117000	0,5	1,851850
3,125333	0,5	1,760650
3,133667	0,5	1,694500
3,142000	0,5	1,639050
3,150333	0,5	1,566200
3,158667	0,5	1,497150
3,167000	0,5	1,449450
3,175333	0,5	1,402850
3,183667	0,5	1,381500
3,192000	0,5	1,332000
3,200333	0,5	1,277550
3,208667	0,5	1,227000
3,217000	0,5	1,179100
3,225333	0,5	1,133300
3,233667	0,5	1,090350
3,242000	0,5	1,048800
3,250333	0,5	1,000450
3,258667	0,5	0,969550
3,267000	0,5	0,932750
3,275333	0,5	0,902050
3,283667	0,5	0,870500
3,292000	0,5	0,851400
3,300333	0,5	0,800100
3,308667	0,5	0,761250
3,317000	0,5	0,727450
3,325333	0,5	0,709450
3,333667	0,5	0,687950
3,342000	0,5	0,648900
3,350333	0,5	0,618700
3,358667	0,5	0,599900
3,367000	0,5	0,574700
3,375333	0,5	0,551600
3,383667	0,5	0,525600
3,392000	0,5	0,501050
3,400333	0,5	0,481450
3,408667	0,5	0,460700
3,417000	0,5	0,450550
3,425333	0,5	0,419500
3,433667	0,5	0,423100
3,442000	0,5	0,405100
3,450333	0,5	0,385500
3,458667	0,5	0,369800
3,467000	0,5	0,367000
3,475333	0,5	0,371450
3,483667	0,5	0,364900
3,492000	0,5	0,323550
3,500333	0,5	0,305200
3,508667	0,5	0,279150
3,517000	0,5	0,260100
3,525333	0,5	0,233100
3,533667	0,5	0,217200
3,542000	0,5	0,193950
3,550333	0,5	0,180700
3,558667	0,5	0,169550
3,567000	0,5	0,146100
3,575333	0,5	0,122750
3,583667	0,5	0,126950
3,592000	0,5	0,105750
3,600333	0,5	0,090100
3,608667	0,5	0,082050
3,617000	0,5	0,085600
3,625333	0,5	0,105900
3,633667	0,5	0,095500
3,642000	0,5	0,092000
3,650333	0,5	0,080400
3,658667	0,5	0,083050
3,667000	0,5	0,068200
3,675333	0,5	0,068800
3,683667	0,5	0,059300
3,692000	0,5	0,053150
3,700333	0,5	0,046600
3,708667	0,5	0,044000
3,717000	0,5	0,040000
3,725333	0,5	0,032000
3,733667	0,5	0,035750
3,742000	0,5	0,012750
3,750333	0,5	0,003150
3,758667	0,5	-0,002900
3,767000	0,5	0,005700
3,775333	0,5	0,022400
3,783667	0,5	0,023550
3,792000	0,5	0,009000
3,800333	0,5	0,008200
3,808667	0,5	-0,001850
3,817000	0,5	-0,002900
3,825333	0,5	-0,009850
3,833667	0,5	-0,006800
3,842000	0,5	-0,011450
3,850333	0,5	-0,003200
3,858667	0,5	0,000850
3,867000	0,5	0,011800
3,875333	0,5	0,019000
3,883667	0,5	0,025050
3,892000	0,5	0,008750
3,900333	0,5	0,009700
3,908667	0,5	0,005400
3,917000	0,5	0,014050
3,925333	0,5	0,018600
3,933667	0,5	0,002750
3,942000	0,5	-0,013450
3,950333	0,5	-0,026450
3,958667	0,5	-0,036050
3,967000	0,5	-0,046600
3,975333	0,5	-0,049900
3,983667	0,5	-0,063550
3,992000	0,5	-0,062100
4,000333	0,5	-0,071150
4,008667	0,5	-0,072450
4,017000	0,5	-0,081100
4,025333	0,5	-0,060000
4,033667	0,5	-0,069700
4,042000	0,5	-0,074050
4,050333	0,5	-0,072500
4,058667	0,5	-0,063000
4,067000	0,5	-0,033150
4,075333	0,5	-0,011000
4,083667	0,5	0,010550
4,092000	0,5	0,041950
4,100333	0,5	0,078150
4,108667	0,5	0,123900
4,117000	0,5	0,166800
4,125333	0,5	0,209050
4,133667	0,5	0,241850
4,142000	0,5	0,257850
4,150333	0,5	0,262450
4,158667	0,5	0,228600
4,167000	0,5	0,195850
4,175333	0,5	0,170750
4,183667	0,5	0,111800
4,192000	0,5	0,058250
4,200333	0,5	0,029700
4,208667	0,5	0,009800
4,217000	0,5	0,011900
4,225333	0,5	-0,009950
4,233667	0,5	-0,018600
4,242000	0,5	-0,031200
4,250333	0,5	-0,034400
4,258667	0,5	-0,044800
4,267000	0,5	-0,044900
4,275333	0,5	-0,050600
4,283667	0,5	-0,058650
4,292000	0,5	-0,058500
4,300333	0,5	-0,066450
4,308667	0,5	-0,073300
4,317000	0,5	-0,068700
4,325333	0,5	-0,059300
4,333667	0,5	-0,079200
4,342000	0,5	-0,083550
4,350333	0,5	-0,078050
4,358667	0,5	-0,059250
4,367000	0,5	-0,048000
4,375333	0,5	-0,055100
4,383667	0,5	-0,060950
4,392000	0,5	-0,049750
4,400333	0,5	-0,053050
4,408667	0,5	-0,044650
4,417000	0,5	-0,044550
4,425333	0,5	-0,041800
4,433667	0,5	-0,040100
4,442000	0,5	-0,028350
4,450333	0,5	-0,018500
4,458667	0,5	-0,026000
4,467000	0,5	-0,007350
4,475333	0,5	0,003600
4,483667	0,5	-0,007450
4,492000	0,5	-0,011350
4,500333	0,5	-0,007400
4,508667	0,5	0,004200
4,517000	0,5	0,018350
4,525333	0,5	-0,004750
4,533667	0,5	-0,005600
4,542000	0,5	-0,018600
4,550333	0,5	-0,016300
4,558667	0,5	-0,021100
4,567000	0,5	-0,014650
4,575333	0,5	-0,023050
4,583667	0,5	-0,017200
4,592000	0,5	-0,011000
4,600333	0,5	-0,015600
4,608667	0,5	-0,019100
4,617000	0,5	0,006950
4,625333	0,5	0,003500
4,633667	0,5	0,013450
4,642000	0,5	0,028300
4,650333	0,5	0,059900
4,658667	0,5	0,102850
4,667000	0,5	0,130100
4,675333	0,5	0,167750
4,683667	0,5	0,202750
4,692000	0,5	0,257700
4,700333	0,5	0,312950
4,708667	0,5	0,388050
4,717000	0,5	0,467000
4,725333	0,5	0,563800
4,733667	0,5	0,671050
4,742000	0,5	0,799150
4,750333	0,5	0,931850
4,758667	0,5	1,093650
4,767000	0,5	1,279400
4,775333	0,5	1,454000
4,783667	0,5	1,647900
4,792000	0,5	1,845000
4,800333	0,5	2,037800
4,808667	0,5	2,208300
4,817000	0,5	2,310150
4,825333	0,5	2,339200
4,833667	0,5	2,309600
4,842000	0,5	2,215400
4,850333	0,5	2,057850
4,858667	0,5	1,863700
4,867000	0,5	1,646350
4,875333	0,5	1,424600
4,883667	0,5	1,225500
4,892000	0,5	1,031400
4,900333	0,5	0,875000
4,908667	0,5	0,752800
4,917000	0,5	0,666350
4,925333	0,5	0,587950
4,933667	0,5	0,554250
4,942000	0,5	0,540700
4,950333	0,5	0,567950
4,958667	0,5	0,611900
4,967000	0,5	0,665050
4,975333	0,5	0,742200
4,983667	0,5	0,857700
4,992000	0,5	1,009400
5,000333	0,5	1,206350
5,008667	0,5	1,446150
5,017000	0,5	1,724050
5,025333	0,5	2,038400
5,033667	0,5	2,356900
5,042000	0,5	2,678350
5,050333	0,5	2,956150
5,058667	0,5	3,206500
5,067000	0,5	3,334300
5,075333	0,5	3,376950
5,083667	0,5	3,327250
5,092000	0,5	3,189050
5,100333	0,5	2,984750
5,108667	0,5	2,705650
5,117000	0,5	2,382800
5,125333	0,5	2,059050
5,133667	0,5	1,738400
5,142000	0,5	1,452000
5,150333	0,5	1,192450
5,158667	0,5	0,978850
5,167000	0,5	0,803100
5,175333	0,5	0,672200
5,183667	0,5	0,576250
5,192000	0,5	0,490150
5,200333	0,5	0,437350
5,208667	0,5	0,416650
5,217000	0,5	0,370600
5,225333	0,5	0,342550
5,233667	0,5	0,333000
5,242000	0,5	0,330300
5,250333	0,5	0,351100
5,258667	0,5	0,337400
5,267000	0,5	0,339250
5,275333	0,5	0,334350
5,283667	0,5	0,339200
5,292000	0,5	0,331850
5,300333	0,5	0,339700
5,308667	0,5	0,331450
5,317000	0,5	0,332150
5,325333	0,5	0,330450
5,333667	0,5	0,329200
5,342000	0,5	0,324650
5,350333	0,5	0,319900
5,358667	0,5	0,319900
5,367000	0,5	0,301850
5,375333	0,5	0,295200
5,383667	0,5	0,294250
5,392000	0,5	0,304900
5,400333	0,5	0,318300
5,408667	0,5	0,314700
5,417000	0,5	0,308700
5,425333	0,5	0,317050
5,433667	0,5	0,315800
5,442000	0,5	0,320750
5,450333	0,5	0,320000
5,458667	0,5	0,323700
5,467000	0,5	0,320250
5,475333	0,5	0,327650
5,483667	0,5	0,335100
5,492000	0,5	0,333200
5,500333	0,5	0,341750
5,508667	0,5	0,353550
5,517000	0,5	0,337900
5,525333	0,5	0,346450
5,533667	0,5	0,353850
5,542000	0,5	0,376900
5,550333	0,5	0,399000
5,558667	0,5	0,394850
5,567000	0,5	0,407950
5,575333	0,5	0,413000
5,583667	0,5	0,425650
5,592000	0,5	0,430350
5,600333	0,5	0,446000
5,608667	0,5	0,450050
5,617000	0,5	0,467500
5,625333	0,5	0,478400
5,633667	0,5	0,490750
5,642000	0,5	0,504350
5,650333	0,5	0,545700
5,658667	0,5	0,570800
5,667000	0,5	0,611550
5,675333	0,5	0,666850
5,683667	0,5	0,753250
5,692000	0,5	0,865950
5,700333	0,5	0,986450
5,708667	0,5	1,111700
5,717000	0,5	1,253150
5,725333	0,5	1,399850
5,733667	0,5	1,542350
5,742000	0,5	1,665350
5,750333	0,5	1,756650
5,758667	0,5	1,809750
5,767000	0,5	1,816500
5,775333	0,5	1,780050
5,783667	0,5	1,687900
5,792000	0,5	1,586300
5,800333	0,5	1,473300
5,808667	0,5	1,330900
5,817000	0,5	1,192200
5,825333	0,5	1,072400
5,833667	0,5	0,972850
5,842000	0,5	0,902850
5,850333	0,5	0,832950
5,858667	0,5	0,771000
5,867000	0,5	0,719000
5,875333	0,5	0,684000
5,883667	0,5	0,648600
5,892000	0,5	0,631000
5,900333	0,5	0,608950
5,908667	0,5	0,595450
5,917000	0,5	0,590500
5,925333	0,5	0,580500
5,933667	0,5	0,568300
5,942000	0,5	0,570000
5,950333	0,5	0,570100
5,958667	0,5	0,555550
5,967000	0,5	0,555350
5,975333	0,5	0,558000
5,983667	0,5	0,581550
5,992000	0,5	0,591950
6,000333	0,5	0,599700
6,008667	0,5	0,597150
6,017000	0,5	0,599450
6,025333	0,5	0,600000
6,033667	0,5	0,601650
6,042000	0,5	0,601200
6,050333	0,5	0,604850
6,058667	0,5	0,602950
6,067000	0,5	0,602000
6,075333	0,5	0,601800
6,083667	0,5	0,600900
6,092000	0,5	0,617000
6,100333	0,5	0,613200
6,108667	0,5	0,609100
6,117000	0,5	0,609550
6,125333	0,5	0,616150
6,133667	0,5	0,636350
6,142000	0,5	0,643250
6,150333	0,5	0,634800
6,158667	0,5	0,642950
6,167000	0,5	0,642000
6,175333	0,5	0,647600
6,183667	0,5	0,644250
6,192000	0,5	0,644850
6,200333	0,5	0,642800
6,208667	0,5	0,645350
6,217000	0,5	0,649300
6,225333	0,5	0,640750
6,233667	0,5	0,636750
6,242000	0,5	0,658200
6,250333	0,5	0,648600
6,258667	0,5	0,648000
6,267000	0,5	0,651950
6,275333	0,5	0,661750
6,283667	0,5	0,686800
6,292000	0,5	0,681550
6,300333	0,5	0,688550
6,308667	0,5	0,689550
6,317000	0,5	0,695600
6,325333	0,5	0,690050
6,333667	0,5	0,697150
6,342000	0,5	0,698600
6,350333	0,5	0,700550
6,358667	0,5	0,704100
6,367000	0,5	0,702700
6,375333	0,5	0,693250
6,383667	0,5	0,694950
6,392000	0,5	0,707100
6,400333	0,5	0,702700
6,408667	0,5	0,701400
6,417000	0,5	0,712500
6,425333	0,5	0,723100
6,433667	0,5	0,744000
6,442000	0,5	0,740150
6,450333	0,5	0,743350
6,458667	0,5	0,746350
6,467000	0,5	0,751350
6,475333	0,5	0,754850
6,483667	0,5	0,754600
6,492000	0,5	0,758350
6,500333	0,5	0,760700
6,508667	0,5	0,766300
6,517000	0,5	0,764900
6,525333	0,5	0,766200
6,533667	0,5	0,768450
6,542000	0,5	0,779400
6,550333	0,5	0,772750
6,558667	0,5	0,773900
6,567000	0,5	0,779200
6,575333	0,5	0,796050
6,583667	0,5	0,813100
6,592000	0,5	0,815450
6,600333	0,5	0,814700
6,608667	0,5	0,820650
6,617000	0,5	0,824300
6,625333	0,5	0,828100
6,633667	0,5	0,830350
6,642000	0,5	0,833300
6,650333	0,5	0,840150
6,658667	0,5	0,842400
6,667000	0,5	0,845700
6,675333	0,5	0,844900
6,683667	0,5	0,854050
6,692000	0,5	0,850050
6,700333	0,5	0,845950
6,708667	0,5	0,846200
6,717000	0,5	0,856550
6,725333	0,5	0,869850
6,733667	0,5	0,882950
6,742000	0,5	0,881950
6,750333	0,5	0,888750
6,758667	0,5	0,891000
6,767000	0,5	0,892400
6,775333	0,5	0,892650
6,783667	0,5	0,894700
6,792000	0,5	0,895550
6,800333	0,5	0,894850
6,808667	0,5	0,895200
6,817000	0,5	0,889800
6,825333	0,5	0,890350
6,833667	0,5	0,897800
6,842000	0,5	0,890150
6,850333	0,5	0,886100
6,858667	0,5	0,886500
6,867000	0,5	0,892250
6,875333	0,5	0,903050
6,883667	0,5	0,905050
6,892000	0,5	0,904600
6,900333	0,5	0,897800
6,908667	0,5	0,902950
6,917000	0,5	0,895500
6,925333	0,5	0,892350
6,933667	0,5	0,887400
6,942000	0,5	0,886250
6,950333	0,5	0,885800
6,958667	0,5	0,879550
6,967000	0,5	0,874100
6,975333	0,5	0,876150
6,983667	0,5	0,873000
6,992000	0,5	0,862300
7,000333	0,5	0,859800
7,008667	0,5	0,858900
7,017000	0,5	0,865850
7,025333	0,5	0,871650
7,033667	0,5	0,872750
7,042000	0,5	0,866800
7,050333	0,5	0,866100
7,058667	0,5	0,862950
7,067000	0,5	0,860900
7,075333	0,5	0,856600
7,083667	0,5	0,853850
7,092000	0,5	0,849550
7,100333	0,5	0,847600
7,108667	0,5	0,846000
7,117000	0,5	0,844500
7,125333	0,5	0,846900
7,133667	0,5	0,846650
7,142000	0,5	0,840250
7,150333	0,5	0,837950
7,158667	0,5	0,834650
7,167000	0,5	0,843800
7,175333	0,5	0,845850
7,183667	0,5	0,844200
7,192000	0,5	0,844850
7,200333	0,5	0,847650
7,208667	0,5	0,845550
7,217000	0,5	0,842600
7,225333	0,5	0,846550
7,233667	0,5	0,850750
7,242000	0,5	0,859950
7,250333	0,5	0,861250
7,258667	0,5	0,869950
7,267000	0,5	0,865200
7,275333	0,5	0,877200
7,283667	0,5	0,868350
7,292000	0,5	0,862950
7,300333	0,5	0,853100
7,308667	0,5	0,848350
7,317000	0,5	0,850900
7,325333	0,5	0,842700
7,333667	0,5	0,838750
7,342000	0,5	0,847350
7,350333	0,5	0,869800
7,358667	0,5	0,903300
7,367000	0,5	0,942350
7,375333	0,5	0,978750
7,383667	0,5	0,999300
7,392000	0,5	0,993300
7,400333	0,5	0,966400
7,408667	0,5	0,920550
7,417000	0,5	0,871050
7,425333	0,5	0,837400
7,433667	0,5	0,798450
7,442000	0,5	0,770400
7,450333	0,5	0,754700
7,458667	0,5	0,749800
7,467000	0,5	0,754550
7,475333	0,5	0,748550
7,483667	0,5	0,747800
7,492000	0,5	0,747600
7,500333	0,5	0,751900
7,508667	0,5	0,750750
7,517000	0,5	0,754200
7,525333	0,5	0,752400
7,533667	0,5	0,748950
7,542000	0,5	0,748300
7,550333	0,5	0,742700
7,558667	0,5	0,736200
7,567000	0,5	0,729800
7,575333	0,5	0,727250
7,583667	0,5	0,712450
7,592000	0,5	0,703700
7,600333	0,5	0,696200
7,608667	0,5	0,704100
7,617000	0,5	0,715150
7,625333	0,5	0,724650
7,633667	0,5	0,730500
7,642000	0,5	0,741850
7,650333	0,5	0,739700
7,658667	0,5	0,737450
7,667000	0,5	0,725550
7,675333	0,5	0,710150
7,683667	0,5	0,697500
7,692000	0,5	0,692850
7,700333	0,5	0,702350
7,708667	0,5	0,749300
7,717000	0,5	0,842450
7,725333	0,5	1,007550
7,733667	0,5	1,254900
7,742000	0,5	1,581200
7,750333	0,5	1,973700
7,758667	0,5	2,403600
7,767000	0,5	2,850250
7,775333	0,5	3,321550
7,783667	0,5	3,886000
7,792000	0,5	4,689300
7,800333	0,5	6,071550
7,808667	0,5	8,599250
7,817000	0,5	13,184100
7,825333	0,5	20,624700
7,833667	0,5	30,722250
7,842000	0,5	41,515301
7,850333	0,5	49,716551
7,858667	0,5	52,505351
7,867000	0,5	49,165901
7,875333	0,5	41,230351
7,883667	0,5	31,451300
7,892000	0,5	22,259900
7,900333	0,5	14,989450
7,908667	0,5	9,910950
7,917000	0,5	6,649800
7,925333	0,5	4,662850
7,933667	0,5	3,471850
7,942000	0,5	2,756850
7,950333	0,5	2,304850
7,958667	0,5	2,003000
7,967000	0,5	1,792400
7,975333	0,5	1,635500
7,983667	0,5	1,514100
7,992000	0,5	1,424400
8,000333	0,5	1,345900
8,008667	0,5	1,293600
8,017000	0,5	1,247750
8,025333	0,5	1,209550
8,033667	0,5	1,177300
8,042000	0,5	1,159900
8,050333	0,5	1,149350
8,058667	0,5	1,139550
8,067000	0,5	1,130800
8,075333	0,5	1,113150
8,083667	0,5	1,088350
8,092000	0,5	1,056600
8,100333	0,5	1,024800
8,108667	0,5	0,991750
8,117000	0,5	0,966450
8,125333	0,5	0,936200
8,133667	0,5	0,914800
8,142000	0,5	0,896350
8,150333	0,5	0,876900
8,158667	0,5	0,865950
8,167000	0,5	0,850900
8,175333	0,5	0,832400
8,183667	0,5	0,821550
8,192000	0,5	0,812800
8,200333	0,5	0,810700
8,208667	0,5	0,800050
8,217000	0,5	0,792800
8,225333	0,5	0,785650
8,233667	0,5	0,778700
8,242000	0,5	0,772200
8,250333	0,5	0,767800
8,258667	0,5	0,759800
8,267000	0,5	0,755200
8,275333	0,5	0,752050
8,283667	0,5	0,752750
8,292000	0,5	0,748600
8,300333	0,5	0,740800
8,308667	0,5	0,738000
8,317000	0,5	0,725800
8,325333	0,5	0,714900
8,333667	0,5	0,706650
8,342000	0,5	0,701400
8,350333	0,5	0,702050
8,358667	0,5	0,695250
8,367000	0,5	0,695850
8,375333	0,5	0,691600
8,383667	0,5	0,691600
8,392000	0,5	0,691400
8,400333	0,5	0,689400
8,408667	0,5	0,678750
8,417000	0,5	0,678450
8,425333	0,5	0,671650
8,433667	0,5	0,671350
8,442000	0,5	0,676250
8,450333	0,5	0,683700
8,458667	0,5	0,702400
8,467000	0,5	0,729150
8,475333	0,5	0,808750
8,483667	0,5	0,962900
8,492000	0,5	1,249300
8,500333	0,5	1,706250
8,508667	0,5	2,316100
8,517000	0,5	3,006700
8,525333	0,5	3,673300
8,533667	0,5	4,289100
8,542000	0,5	4,893600
8,550333	0,5	5,642250
8,558667	0,5	6,866550
8,567000	0,5	9,271900
8,575333	0,5	14,134000
8,583667	0,5	23,079950
8,592000	0,5	36,668951
8,600333	0,5	52,608901
8,608667	0,5	65,735251
8,617000	0,5	70,874151
8,625333	0,5	66,290551
8,633667	0,5	54,415801
8,642000	0,5	39,909151
8,650333	0,5	26,824400
8,658667	0,5	17,119550
8,667000	0,5	10,830550
8,675333	0,5	7,102900
8,683667	0,5	4,977050
8,692000	0,5	3,764750
8,700333	0,5	3,044100
8,708667	0,5	2,599950
8,717000	0,5	2,307900
8,725333	0,5	2,110450
8,733667	0,5	1,969300
8,742000	0,5	1,866950
8,750333	0,5	1,797000
8,758667	0,5	1,748950
8,767000	0,5	1,709350
8,775333	0,5	1,688100
8,783667	0,5	1,659950
8,792000	0,5	1,617100
8,800333	0,5	1,553750
8,808667	0,5	1,471850
8,817000	0,5	1,395500
8,825333	0,5	1,328000
8,833667	0,5	1,278800
8,842000	0,5	1,241200
8,850333	0,5	1,211150
8,858667	0,5	1,191900
8,867000	0,5	1,181400
8,875333	0,5	1,178050
8,883667	0,5	1,175050
8,892000	0,5	1,173050
8,900333	0,5	1,169750
8,908667	0,5	1,156400
8,917000	0,5	1,138000
8,925333	0,5	1,119500
8,933667	0,5	1,109600
8,942000	0,5	1,098100
8,950333	0,5	1,104050
8,958667	0,5	1,102400
8,967000	0,5	1,093850
8,975333	0,5	1,084850
8,983667	0,5	1,069400
8,992000	0,5	1,050750
9,000333	0,5	1,034950
9,008667	0,5	1,017350
9,017000	0,5	1,006400
9,025333	0,5	0,989300
9,033667	0,5	0,985400
9,042000	0,5	0,991600
9,050333	0,5	0,988700
9,058667	0,5	0,997550
9,067000	0,5	1,007750
9,075333	0,5	1,019100
9,083667	0,5	1,033300
9,092000	0,5	1,051250
9,100333	0,5	1,068450
9,108667	0,5	1,086900
9,117000	0,5	1,109050
9,125333	0,5	1,133900
9,133667	0,5	1,151050
9,142000	0,5	1,165550
9,150333	0,5	1,159550
9,158667	0,5	1,165000
9,167000	0,5	1,174700
9,175333	0,5	1,182700
9,183667	0,5	1,192150
9,192000	0,5	1,201450
9,200333	0,5	1,215900
9,208667	0,5	1,221150
9,217000	0,5	1,231150
9,225333	0,5	1,239050
9,233667	0,5	1,254400
9,242000	0,5	1,265950
9,250333	0,5	1,287950
9,258667	0,5	1,315100
9,267000	0,5	1,343000
9,275333	0,5	1,368500
9,283667	0,5	1,385400
9,292000	0,5	1,387700
9,300333	0,5	1,383700
9,308667	0,5	1,373300
9,317000	0,5	1,362500
9,325333	0,5	1,342350
9,333667	0,5	1,340600
9,342000	0,5	1,342050
9,350333	0,5	1,361050
9,358667	0,5	1,359950
9,367000	0,5	1,361100
9,375333	0,5	1,365700
9,383667	0,5	1,374450
9,392000	0,5	1,380450
9,400333	0,5	1,390700
9,408667	0,5	1,391700
9,417000	0,5	1,403100
9,425333	0,5	1,406600
9,433667	0,5	1,410550
9,442000	0,5	1,418100
9,450333	0,5	1,420200
9,458667	0,5	1,427850
9,467000	0,5	1,424250
9,475333	0,5	1,434300
9,483667	0,5	1,434150
9,492000	0,5	1,440250
9,500333	0,5	1,443850
9,508667	0,5	1,442550
9,517000	0,5	1,445300
9,525333	0,5	1,447150
9,533667	0,5	1,455700
9,542000	0,5	1,462350
9,550333	0,5	1,465750
9,558667	0,5	1,473850
9,567000	0,5	1,476450
9,575333	0,5	1,481050
9,583667	0,5	1,483200
9,592000	0,5	1,483300
9,600333	0,5	1,486700
9,608667	0,5	1,495250
9,617000	0,5	1,502800
9,625333	0,5	1,505450
9,633667	0,5	1,504200
9,642000	0,5	1,504200
9,650333	0,5	1,507900
9,658667	0,5	1,508100
9,667000	0,5	1,515100
9,675333	0,5	1,522550
9,683667	0,5	1,527900
9,692000	0,5	1,538500
9,700333	0,5	1,532850
9,708667	0,5	1,565400
9,717000	0,5	1,575800
9,725333	0,5	1,583750
9,733667	0,5	1,601350
9,742000	0,5	1,615800
9,750333	0,5	1,597850
9,758667	0,5	1,615450
9,767000	0,5	1,634850
9,775333	0,5	1,644550
9,783667	0,5	1,635650
9,792000	0,5	1,627700
9,800333	0,5	1,624850
9,808667	0,5	1,605700
9,817000	0,5	1,601950
9,825333	0,5	1,596100
9,833667	0,5	1,603650
9,842000	0,5	1,604100
9,850333	0,5	1,619750
9,858667	0,5	1,616050
9,867000	0,5	1,619000
9,875333	0,5	1,625800
9,883667	0,5	1,622450
9,892000	0,5	1,621900
9,900333	0,5	1,623500
9,908667	0,5	1,628400
9,917000	0,5	1,628200
9,925333	0,5	1,627400
9,933667	0,5	1,609900
9,942000	0,5	1,592050
9,950333	0,5	1,599550
9,958667	0,5	1,617950
9,967000	0,5	1,613500
9,975333	0,5	1,605200
9,983667	0,5	1,603050
9,992000	0,5	1,601200
10,000333	0,5	1,610700
10,008667	0,5	1,622700
10,017000	0,5	1,618200
10,025333	0,5	1,608700
10,033667	0,5	1,624750
10,042000	0,5	1,621550
10,050333	0,5	1,613950
10,058667	0,5	1,614100
10,067000	0,5	1,606950
10,075333	0,5	1,603250
10,083667	0,5	1,604550
10,092000	0,5	1,612050
10,100333	0,5	1,606900
10,108667	0,5	1,608050
10,117000	0,5	1,599400
10,125333	0,5	1,605750
10,133667	0,5	1,579700
10,142000	0,5	1,585750
10,150333	0,5	1,592350
10,158667	0,5	1,584250
10,167000	0,5	1,589900
10,175333	0,5	1,575750
10,183667	0,5	1,569700
10,192000	0,5	1,585300
10,200333	0,5	1,573400
10,208667	0,5	1,571050
10,217000	0,5	1,573500
10,225333	0,5	1,565050
10,233667	0,5	1,568250
10,242000	0,5	1,554550
10,250333	0,5	1,544050
10,258667	0,5	1,543650
10,267000	0,5	1,546400
10,275333	0,5	1,555700
10,283667	0,5	1,558300
10,292000	0,5	1,561950
10,300333	0,5	1,562000
10,308667	0,5	1,567150
10,317000	0,5	1,578500
10,325333	0,5	1,568400
10,333667	0,5	1,579000
10,342000	0,5	1,576400
10,350333	0,5	1,575500
10,358667	0,5	1,567050
10,367000	0,5	1,567000
10,375333	0,5	1,545150
10,383667	0,5	1,543050
10,392000	0,5	1,509500
10,400333	0,5	1,525750
10,408667	0,5	1,523850
10,417000	0,5	1,502650
10,425333	0,5	1,487800
10,433667	0,5	1,479500
10,442000	0,5	1,468750
10,450333	0,5	1,460750
10,458667	0,5	1,448600
10,467000	0,5	1,440950
10,475333	0,5	1,437750
10,483667	0,5	1,432300
10,492000	0,5	1,436700
10,500333	0,5	1,415650
10,508667	0,5	1,421850
10,517000	0,5	1,408800
10,525333	0,5	1,399900
10,533667	0,5	1,403850
10,542000	0,5	1,391900
10,550333	0,5	1,375550
10,558667	0,5	1,381200
10,567000	0,5	1,376600
10,575333	0,5	1,380000
10,583667	0,5	1,376750
10,592000	0,5	1,378700
10,600333	0,5	1,402100
10,608667	0,5	1,397950
10,617000	0,5	1,393900
10,625333	0,5	1,388700
10,633667	0,5	1,385800
10,642000	0,5	1,384300
10,650333	0,5	1,391900
10,658667	0,5	1,393150
10,667000	0,5	1,388650
10,675333	0,5	1,364150
10,683667	0,5	1,368350
10,692000	0,5	1,378700
10,700333	0,5	1,387200
10,708667	0,5	1,368650
10,717000	0,5	1,348650
10,725333	0,5	1,355450
10,733667	0,5	1,346200
10,742000	0,5	1,344550
10,750333	0,5	1,339550
10,758667	0,5	1,361300
10,767000	0,5	1,347150
10,775333	0,5	1,324650
10,783667	0,5	1,332850
10,792000	0,5	1,340400
10,800333	0,5	1,326100
10,808667	0,5	1,328300
10,817000	0,5	1,320500
10,825333	0,5	1,312900
10,833667	0,5	1,312550
10,842000	0,5	1,318100
10,850333	0,5	1,313250
10,858667	0,5	1,314800
10,867000	0,5	1,300100
10,875333	0,5	1,312200
10,883667	0,5	1,310900
10,892000	0,5	1,314150
10,900333	0,5	1,316500
10,908667	0,5	1,298950
10,917000	0,5	1,295500
10,925333	0,5	1,296000
10,933667	0,5	1,292600
10,942000	0,5	1,294800
10,950333	0,5	1,291400
10,958667	0,5	1,279150
10,967000	0,5	1,285750
10,975333	0,5	1,278850
10,983667	0,5	1,281400
10,992000	0,5	1,278050
11,000333	0,5	1,272500
11,008667	0,5	1,267700
11,017000	0,5	1,266350
11,025333	0,5	1,276850
11,033667	0,5	1,277850
11,042000	0,5	1,289900
11,050333	0,5	1,295700
11,058667	0,5	1,294250
11,067000	0,5	1,311100
11,075333	0,5	1,313100
11,083667	0,5	1,317650
11,092000	0,5	1,325450
11,100333	0,5	1,323700
11,108667	0,5	1,317100
11,117000	0,5	1,325950
11,125333	0,5	1,319350
11,133667	0,5	1,314600
11,142000	0,5	1,312000
11,150333	0,5	1,291500
11,158667	0,5	1,293800
11,167000	0,5	1,293850
11,175333	0,5	1,285500
11,183667	0,5	1,279600
11,192000	0,5	1,279300
11,200333	0,5	1,272650
11,208667	0,5	1,260800
11,217000	0,5	1,264700
11,225333	0,5	1,265100
11,233667	0,5	1,264800
11,242000	0,5	1,261000
11,250333	0,5	1,259150
11,258667	0,5	1,253200
11,267000	0,5	1,259300
11,275333	0,5	1,250900
11,283667	0,5	1,251400
11,292000	0,5	1,250200
11,300333	0,5	1,239100
11,308667	0,5	1,241950
11,317000	0,5	1,232600
11,325333	0,5	1,235550
11,333667	0,5	1,233800
11,342000	0,5	1,232950
11,350333	0,5	1,228150
11,358667	0,5	1,227400
11,367000	0,5	1,223000
11,375333	0,5	1,217950
11,383667	0,5	1,211400
11,392000	0,5	1,209150
11,400333	0,5	1,204600
11,408667	0,5	1,198500
11,417000	0,5	1,203050
11,425333	0,5	1,197250
11,433667	0,5	1,193400
11,442000	0,5	1,186900
11,450333	0,5	1,185050
11,458667	0,5	1,185750
11,467000	0,5	1,177850
11,475333	0,5	1,178850
11,483667	0,5	1,175800
11,492000	0,5	1,166250
11,500333	0,5	1,175100
11,508667	0,5	1,182350
11,517000	0,5	1,183600
11,525333	0,5	1,186350
11,533667	0,5	1,191050
11,542000	0,5	1,200250
11,550333	0,5	1,204050
11,558667	0,5	1,218250
11,567000	0,5	1,233150
11,575333	0,5	1,239650
11,583667	0,5	1,265500
11,592000	0,5	1,275000
11,600333	0,5	1,289650
11,608667	0,5	1,302900
11,617000	0,5	1,302750
11,625333	0,5	1,298500
11,633667	0,5	1,292700
11,642000	0,5	1,280600
11,650333	0,5	1,267750
11,658667	0,5	1,256900
11,667000	0,5	1,245950
11,675333	0,5	1,235300
11,683667	0,5	1,227950
11,692000	0,5	1,224000
11,700333	0,5	1,212900
11,708667	0,5	1,201450
11,717000	0,5	1,207800
11,725333	0,5	1,211700
11,733667	0,5	1,219400
11,742000	0,5	1,218300
11,750333	0,5	1,227050
11,758667	0,5	1,234450
11,767000	0,5	1,254200
11,775333	0,5	1,264200
11,783667	0,5	1,276850
11,792000	0,5	1,282500
11,800333	0,5	1,291500
11,808667	0,5	1,292000
11,817000	0,5	1,285100
11,825333	0,5	1,283150
11,833667	0,5	1,278700
11,842000	0,5	1,273700
11,850333	0,5	1,259550
11,858667	0,5	1,247700
11,867000	0,5	1,241600
11,875333	0,5	1,265750
11,883667	0,5	1,266800
11,892000	0,5	1,258950
11,900333	0,5	1,257900
11,908667	0,5	1,286550
11,917000	0,5	1,263250
11,925333	0,5	1,269450
11,933667	0,5	1,290050
11,942000	0,5	1,283000
11,950333	0,5	1,286150
11,958667	0,5	1,288100
11,967000	0,5	1,275000
11,975333	0,5	1,280050
11,983667	0,5	1,288450
11,992000	0,5	1,279050
12,000333	0,5	1,283800
12,008667	0,5	1,285800
12,017000	0,5	1,305650
12,025333	0,5	1,296850
12,033667	0,5	1,295950
12,042000	0,5	1,297650
12,050333	0,5	1,303650
12,058667	0,5	1,310850
12,067000	0,5	1,294950
12,075333	0,5	1,295650
12,083667	0,5	1,299900
12,092000	0,5	1,296100
12,100333	0,5	1,293250
12,108667	0,5	1,289250
12,117000	0,5	1,294600
12,125333	0,5	1,295550
12,133667	0,5	1,303600
12,142000	0,5	1,295550
12,150333	0,5	1,319350
12,158667	0,5	1,333750
12,167000	0,5	1,350450
12,175333	0,5	1,354400
12,183667	0,5	1,358550
12,192000	0,5	1,366050
12,200333	0,5	1,363500
12,208667	0,5	1,374500
12,217000	0,5	1,359950
12,225333	0,5	1,339950
12,233667	0,5	1,331200
12,242000	0,5	1,315500
12,250333	0,5	1,308400
12,258667	0,5	1,288200
12,267000	0,5	1,286700
12,275333	0,5	1,285850
12,283667	0,5	1,283350
12,292000	0,5	1,271150
12,300333	0,5	1,275650
12,308667	0,5	1,273050
12,317000	0,5	1,271200
12,325333	0,5	1,264250
12,333667	0,5	1,253300
12,342000	0,5	1,265500
12,350333	0,5	1,260050
12,358667	0,5	1,264450
12,367000	0,5	1,254350
12,375333	0,5	1,256350
12,383667	0,5	1,254250
12,392000	0,5	1,254500
12,400333	0,5	1,250200
12,408667	0,5	1,252250
12,417000	0,5	1,252000
12,425333	0,5	1,249750
12,433667	0,5	1,252650
12,442000	0,5	1,246200
12,450333	0,5	1,248450
12,458667	0,5	1,246700
12,467000	0,5	1,244850
12,475333	0,5	1,228850
12,483667	0,5	1,241750
12,492000	0,5	1,243800
12,500333	0,5	1,246250
12,508667	0,5	1,250600
12,517000	0,5	1,251600
12,525333	0,5	1,257250
12,533667	0,5	1,253050
12,542000	0,5	1,248950
12,550333	0,5	1,269600
12,558667	0,5	1,254600
12,567000	0,5	1,253300
12,575333	0,5	1,242150
12,583667	0,5	1,248150
12,592000	0,5	1,250050
12,600333	0,5	1,241900
12,608667	0,5	1,247000
12,617000	0,5	1,237450
12,625333	0,5	1,232350
12,633667	0,5	1,222250
12,642000	0,5	1,212550
12,650333	0,5	1,212650
12,658667	0,5	1,211450
12,667000	0,5	1,207900
12,675333	0,5	1,209650
12,683667	0,5	1,203200
12,692000	0,5	1,193050
12,700333	0,5	1,188900
12,708667	0,5	1,187450
12,717000	0,5	1,180250
12,725333	0,5	1,167100
12,733667	0,5	1,156250
12,742000	0,5	1,171200
12,750333	0,5	1,167500
12,758667	0,5	1,162250
12,767000	0,5	1,154500
12,775333	0,5	1,146100
12,783667	0,5	1,142100
12,792000	0,5	1,138950
12,800333	0,5	1,132600
12,808667	0,5	1,133450
12,817000	0,5	1,131900
12,825333	0,5	1,128650
12,833667	0,5	1,126950
12,842000	0,5	1,124600
12,850333	0,5	1,120800
12,858667	0,5	1,117800
12,867000	0,5	1,124400
12,875333	0,5	1,112200
12,883667	0,5	1,105600
12,892000	0,5	1,108100
12,900333	0,5	1,109350
12,908667	0,5	1,103550
12,917000	0,5	1,096800
12,925333	0,5	1,090700
12,933667	0,5	1,090400
12,942000	0,5	1,084650
12,950333	0,5	1,085100
12,958667	0,5	1,084950
12,967000	0,5	1,084400
12,975333	0,5	1,082650
12,983667	0,5	1,080000
12,992000	0,5	1,078900
13,000333	0,5	1,075850
13,008667	0,5	1,077650
13,017000	0,5	1,078900
13,025333	0,5	1,072250
13,033667	0,5	1,070850
13,042000	0,5	1,075850
13,050333	0,5	1,070000
13,058667	0,5	1,066700
13,067000	0,5	1,054800
13,075333	0,5	1,056350
13,083667	0,5	1,057050
13,092000	0,5	1,060050
13,100333	0,5	1,055850
13,108667	0,5	1,055450
13,117000	0,5	1,054050
13,125333	0,5	1,049500
13,133667	0,5	1,052150
13,142000	0,5	1,046250
13,150333	0,5	1,043500
13,158667	0,5	1,043250
13,167000	0,5	1,053300
13,175333	0,5	1,042700
13,183667	0,5	1,048750
13,192000	0,5	1,049400
13,200333	0,5	1,048650
13,208667	0,5	1,040150
13,217000	0,5	1,034400
13,225333	0,5	1,039100
13,233667	0,5	1,039600
13,242000	0,5	1,036200
13,250333	0,5	1,040400
13,258667	0,5	1,040200
13,267000	0,5	1,039600
13,275333	0,5	1,045900
13,283667	0,5	1,042200
13,292000	0,5	1,042550
13,300333	0,5	1,040600
13,308667	0,5	1,044600
13,317000	0,5	1,047350
13,325333	0,5	1,035250
13,333667	0,5	1,044650
13,342000	0,5	1,038450
13,350333	0,5	1,040050
13,358667	0,5	1,033650
13,367000	0,5	1,023300
13,375333	0,5	1,028650
13,383667	0,5	1,026000
13,392000	0,5	1,024150
13,400333	0,5	1,020050
13,408667	0,5	1,021850
13,417000	0,5	1,018500
13,425333	0,5	1,017150
13,433667	0,5	1,014400
13,442000	0,5	1,009900
13,450333	0,5	1,009450
13,458667	0,5	1,012050
13,467000	0,5	1,003100
13,475333	0,5	0,998750
13,483667	0,5	1,002300
13,492000	0,5	0,997150
13,500333	0,5	0,990450
13,508667	0,5	0,980900
13,517000	0,5	0,974000
13,525333	0,5	0,971950
13,533667	0,5	0,975800
13,542000	0,5	0,974400
13,550333	0,5	0,971300
13,558667	0,5	0,968550
13,567000	0,5	0,967800
13,575333	0,5	0,962600
13,583667	0,5	0,963600
13,592000	0,5	0,955650
13,600333	0,5	0,956650
13,608667	0,5	0,953800
13,617000	0,5	0,945750
13,625333	0,5	0,944900
13,633667	0,5	0,949950
13,642000	0,5	0,940050
13,650333	0,5	0,936100
13,658667	0,5	0,923400
13,667000	0,5	0,919400
13,675333	0,5	0,924350
13,683667	0,5	0,919550
13,692000	0,5	0,917750
13,700333	0,5	0,919100
13,708667	0,5	0,916300
13,717000	0,5	0,913100
13,725333	0,5	0,913400
13,733667	0,5	0,912050
13,742000	0,5	0,911800
13,750333	0,5	0,909550
13,758667	0,5	0,905550
13,767000	0,5	0,897150
13,775333	0,5	0,898000
13,783667	0,5	0,899150
13,792000	0,5	0,894450
13,800333	0,5	0,882800
13,808667	0,5	0,871600
13,817000	0,5	0,869950
13,825333	0,5	0,872900
13,833667	0,5	0,868700
13,842000	0,5	0,863650
13,850333	0,5	0,857600
13,858667	0,5	0,857700
13,867000	0,5	0,857050
13,875333	0,5	0,851200
13,883667	0,5	0,847150
13,892000	0,5	0,842650
13,900333	0,5	0,847550
13,908667	0,5	0,831950
13,917000	0,5	0,828500
13,925333	0,5	0,829650
13,933667	0,5	0,828200
13,942000	0,5	0,817050
13,950333	0,5	0,805550
13,958667	0,5	0,798550
13,967000	0,5	0,801350
13,975333	0,5	0,795250
13,983667	0,5	0,801300
13,992000	0,5	0,797400
14,000333	0,5	0,797450
14,008667	0,5	0,793250
14,017000	0,5	0,794900
14,025333	0,5	0,792000
14,033667	0,5	0,786500
14,042000	0,5	0,788500
14,050333	0,5	0,786150
14,058667	0,5	0,772700
14,067000	0,5	0,778750
14,075333	0,5	0,779500
14,083667	0,5	0,770750
14,092000	0,5	0,765350
14,100333	0,5	0,747950
14,108667	0,5	0,751200
14,117000	0,5	0,747700
14,125333	0,5	0,753000
14,133667	0,5	0,746500
14,142000	0,5	0,746350
14,150333	0,5	0,740650
14,158667	0,5	0,741900
14,167000	0,5	0,739250
14,175333	0,5	0,738250
14,183667	0,5	0,739500
14,192000	0,5	0,730350
14,200333	0,5	0,736400
14,208667	0,5	0,722650
14,217000	0,5	0,732200
14,225333	0,5	0,731050
14,233667	0,5	0,726300
14,242000	0,5	0,715150
14,250333	0,5	0,702300
14,258667	0,5	0,702250
14,267000	0,5	0,706800
14,275333	0,5	0,695350
14,283667	0,5	0,695700
14,292000	0,5	0,692350
14,300333	0,5	0,695100
14,308667	0,5	0,691800
14,317000	0,5	0,690550
14,325333	0,5	0,687400
14,333667	0,5	0,685450
14,342000	0,5	0,689500
14,350333	0,5	0,687500
14,358667	0,5	0,678750
14,367000	0,5	0,687500
14,375333	0,5	0,683600
14,383667	0,5	0,677050
14,392000	0,5	0,666500
14,400333	0,5	0,652650
14,408667	0,5	0,657150
14,417000	0,5	0,652300
14,425333	0,5	0,652000
14,433667	0,5	0,643000
14,442000	0,5	0,640400
14,450333	0,5	0,634450
14,458667	0,5	0,634750
14,467000	0,5	0,624350
14,475333	0,5	0,618750
14,483667	0,5	0,617750
14,492000	0,5	0,616900
14,500333	0,5	0,604150
14,508667	0,5	0,601550
14,517000	0,5	0,598850
14,525333	0,5	0,593550
14,533667	0,5	0,580200
14,542000	0,5	0,562450
14,550333	0,5	0,551100
14,558667	0,5	0,538300
14,567000	0,5	0,526700
14,575333	0,5	0,509450
14,583667	0,5	0,503450
14,592000	0,5	0,495050
14,600333	0,5	0,492550
14,608667	0,5	0,495000
14,617000	0,5	0,502050
14,625333	0,5	0,508300
14,633667	0,5	0,516200
14,642000	0,5	0,518100
14,650333	0,5	0,516600
14,658667	0,5	0,521250
14,667000	0,5	0,525600
14,675333	0,5	0,519800
14,683667	0,5	0,511200
14,692000	0,5	0,496900
14,700333	0,5	0,492000
14,708667	0,5	0,494300
14,717000	0,5	0,492100
14,725333	0,5	0,489100
14,733667	0,5	0,488100
14,742000	0,5	0,484250
14,750333	0,5	0,478750
14,758667	0,5	0,476200
14,767000	0,5	0,467700
14,775333	0,5	0,471950
14,783667	0,5	0,465350
14,792000	0,5	0,457400
14,800333	0,5	0,450750
14,808667	0,5	0,457500
14,817000	0,5	0,454100
14,825333	0,5	0,447000
14,833667	0,5	0,428400
14,842000	0,5	0,423350
14,850333	0,5	0,422700
14,858667	0,5	0,423900
14,867000	0,5	0,420700
14,875333	0,5	0,417500
14,883667	0,5	0,417200
14,892000	0,5	0,412950
14,900333	0,5	0,417650
14,908667	0,5	0,418450
14,917000	0,5	0,415750
14,925333	0,5	0,417700
14,933667	0,5	0,424850
14,942000	0,5	0,408550
14,950333	0,5	0,418300
14,958667	0,5	0,422100
14,967000	0,5	0,416800
14,975333	0,5	0,413100
14,983667	0,5	0,395500
14,992000	0,5	0,393300
15,000333	0,5	0,394150
15,008667	0,5	0,385350
15,017000	0,5	0,382200
15,025333	0,5	0,379850
15,033667	0,5	0,383950
15,042000	0,5	0,373700
15,050333	0,5	0,370500
15,058667	0,5	0,367100
15,067000	0,5	0,361450
15,075333	0,5	0,372950
15,083667	0,5	0,371600
15,092000	0,5	0,356250
15,100333	0,5	0,365850
15,108667	0,5	0,363950
15,117000	0,5	0,361450
15,125333	0,5	0,357150
15,133667	0,5	0,340350
15,142000	0,5	0,348350
15,150333	0,5	0,348450
15,158667	0,5	0,348000
15,167000	0,5	0,338950
15,175333	0,5	0,342700
15,183667	0,5	0,337100
15,192000	0,5	0,342350
15,200333	0,5	0,339300
15,208667	0,5	0,340100
15,217000	0,5	0,348950
15,225333	0,5	0,358200
15,233667	0,5	0,363950
15,242000	0,5	0,363900
15,250333	0,5	0,382350
15,258667	0,5	0,382950
15,267000	0,5	0,376700
15,275333	0,5	0,363750
15,283667	0,5	0,342650
15,292000	0,5	0,333350
15,300333	0,5	0,326900
15,308667	0,5	0,307700
15,317000	0,5	0,301550
15,325333	0,5	0,290650
15,333667	0,5	0,287100
15,342000	0,5	0,276550
15,350333	0,5	0,278100
15,358667	0,5	0,269500
15,367000	0,5	0,262600
15,375333	0,5	0,265950
15,383667	0,5	0,256900
15,392000	0,5	0,250900
15,400333	0,5	0,257000
15,408667	0,5	0,247300
15,417000	0,5	0,241200
15,425333	0,5	0,232900
15,433667	0,5	0,215400
15,442000	0,5	0,221700
15,450333	0,5	0,216700
15,458667	0,5	0,216900
15,467000	0,5	0,212950
15,475333	0,5	0,215250
15,483667	0,5	0,207900
15,492000	0,5	0,209000
15,500333	0,5	0,205800
15,508667	0,5	0,204200
15,517000	0,5	0,207250
15,525333	0,5	0,207500
15,533667	0,5	0,192050
15,542000	0,5	0,196900
15,550333	0,5	0,196550
15,558667	0,5	0,191700
15,567000	0,5	0,181950
15,575333	0,5	0,165900
15,583667	0,5	0,160200
15,592000	0,5	0,156700
15,600333	0,5	0,154800
15,608667	0,5	0,150300
15,617000	0,5	0,157750
15,625333	0,5	0,151250
15,633667	0,5	0,154250
15,642000	0,5	0,145900
15,650333	0,5	0,143650
15,658667	0,5	0,145400
15,667000	0,5	0,149450
15,675333	0,5	0,138250
15,683667	0,5	0,129600
15,692000	0,5	0,135000
15,700333	0,5	0,134050
15,708667	0,5	0,125050
15,717000	0,5	0,109400
15,725333	0,5	0,095700
15,733667	0,5	0,090150
15,742000	0,5	0,088200
15,750333	0,5	0,093700
15,758667	0,5	0,094250
15,767000	0,5	0,091450
15,775333	0,5	0,092050
15,783667	0,5	0,091100
15,792000	0,5	0,090400
15,800333	0,5	0,086650
15,808667	0,5	0,090950
15,817000	0,5	0,092100
15,825333	0,5	0,083500
15,833667	0,5	0,088750
15,842000	0,5	0,099750
15,850333	0,5	0,094500
15,858667	0,5	0,092050
15,867000	0,5	0,075800
15,875333	0,5	0,075200
15,883667	0,5	0,073650
15,892000	0,5	0,067350
15,900333	0,5	0,059300
15,908667	0,5	0,057250
15,917000	0,5	0,049650
15,925333	0,5	0,049150
15,933667	0,5	0,050450
15,942000	0,5	0,048100
15,950333	0,5	0,048850
15,958667	0,5	0,043050
15,967000	0,5	0,045600
15,975333	0,5	0,023700
15,983667	0,5	0,034400
15,992000	0,5	0,035050
16,000333	0,5	0,025750
16,008667	0,5	0,012650
16,017000	0,5	-0,009650
16,025333	0,5	-0,004600
16,033667	0,5	-0,003000
16,042000	0,5	-0,010100
16,050333	0,5	-0,011100
16,058667	0,5	-0,013800
16,067000	0,5	-0,014750
16,075333	0,5	-0,016550
16,083667	0,5	-0,022000
16,092000	0,5	-0,026500
16,100333	0,5	-0,034000
16,108667	0,5	-0,023650
16,117000	0,5	-0,027450
16,125333	0,5	-0,043150
16,133667	0,5	-0,034650
16,142000	0,5	-0,033000
16,150333	0,5	-0,042700
16,158667	0,5	-0,052500
16,167000	0,5	-0,069950
16,175333	0,5	-0,060750
16,183667	0,5	-0,067400
16,192000	0,5	-0,064050
16,200333	0,5	-0,073500
16,208667	0,5	-0,072650
16,217000	0,5	-0,078300
16,225333	0,5	-0,080100
16,233667	0,5	-0,082450
16,242000	0,5	-0,084650
16,250333	0,5	-0,092250
16,258667	0,5	-0,091400
16,267000	0,5	-0,098600
16,275333	0,5	-0,100450
16,283667	0,5	-0,094600
16,292000	0,5	-0,096900
16,300333	0,5	-0,107700
16,308667	0,5	-0,121400
16,317000	0,5	-0,128200
16,325333	0,5	-0,131500
16,333667	0,5	-0,126450
16,342000	0,5	-0,135800
16,350333	0,5	-0,135750
16,358667	0,5	-0,136800
16,367000	0,5	-0,135450
16,375333	0,5	-0,140300
16,383667	0,5	-0,144550
16,392000	0,5	-0,147950
16,400333	0,5	-0,157550
16,408667	0,5	-0,155350
16,417000	0,5	-0,166900
16,425333	0,5	-0,156650
16,433667	0,5	-0,155650
16,442000	0,5	-0,160400
16,450333	0,5	-0,170650
16,458667	0,5	-0,186300
16,467000	0,5	-0,194300
16,475333	0,5	-0,184950
16,483667	0,5	-0,191700
16,492000	0,5	-0,188750
16,500333	0,5	-0,193450
16,508667	0,5	-0,194800
16,517000	0,5	-0,197450
16,525333	0,5	-0,198600
16,533667	0,5	-0,205550
16,542000	0,5	-0,203850
16,550333	0,5	-0,203700
16,558667	0,5	-0,209600
16,567000	0,5	-0,216450
16,575333	0,5	-0,210150
16,583667	0,5	-0,215000
16,592000	0,5	-0,214500
16,600333	0,5	-0,227800
16,608667	0,5	-0,242600
16,617000	0,5	-0,241750
16,625333	0,5	-0,246600
16,633667	0,5	-0,243050
16,642000	0,5	-0,248650
16,650333	0,5	-0,246500
16,658667	0,5	-0,253650
16,667000	0,5	-0,250350
16,675333	0,5	-0,256200
16,683667	0,5	-0,261300
16,692000	0,5	-0,257050
16,700333	0,5	-0,261000
16,708667	0,5	-0,272800
16,717000	0,5	-0,265250
16,725333	0,5	-0,264050
16,733667	0,5	-0,265850
16,742000	0,5	-0,275650
16,750333	0,5	-0,299400
16,758667	0,5	-0,302700
16,767000	0,5	-0,305100
16,775333	0,5	-0,305050
16,783667	0,5	-0,299700
16,792000	0,5	-0,295150
16,800333	0,5	-0,297250
16,808667	0,5	-0,297200
16,817000	0,5	-0,297450
16,825333	0,5	-0,297300
16,833667	0,5	-0,305750
16,842000	0,5	-0,291050
16,850333	0,5	-0,293250
16,858667	0,5	-0,300750
16,867000	0,5	-0,300400
16,875333	0,5	-0,291000
16,883667	0,5	-0,312450
16,892000	0,5	-0,303950
16,900333	0,5	-0,327900
16,908667	0,5	-0,331350
16,917000	0,5	-0,329300
16,925333	0,5	-0,336050
16,933667	0,5	-0,349000
16,942000	0,5	-0,344400
16,950333	0,5	-0,350100
16,958667	0,5	-0,358900
16,967000	0,5	-0,349450
16,975333	0,5	-0,359100
16,983667	0,5	-0,355350
16,992000	0,5	-0,358850
17,000333	0,5	-0,361450
17,008667	0,5	-0,381550
17,017000	0,5	-0,361500
17,025333	0,5	-0,365900
17,033667	0,5	-0,370450
17,042000	0,5	-0,378400
17,050333	0,5	-0,395800
17,058667	0,5	-0,393200
17,067000	0,5	-0,396900
17,075333	0,5	-0,397900
17,083667	0,5	-0,393550
17,092000	0,5	-0,400300
17,100333	0,5	-0,401300
17,108667	0,5	-0,395750
17,117000	0,5	-0,401500
17,125333	0,5	-0,404450
17,133667	0,5	-0,406500
17,142000	0,5	-0,392400
17,150333	0,5	-0,406900
17,158667	0,5	-0,405150
17,167000	0,5	-0,393750
17,175333	0,5	-0,393950
17,183667	0,5	-0,404550
17,192000	0,5	-0,415200
17,200333	0,5	-0,427200
17,208667	0,5	-0,416150
17,217000	0,5	-0,418300
17,225333	0,5	-0,419350
17,233667	0,5	-0,423750
17,242000	0,5	-0,421050
17,250333	0,5	-0,423100
17,258667	0,5	-0,421250
17,267000	0,5	-0,422250
17,275333	0,5	-0,423700
17,283667	0,5	-0,417100
17,292000	0,5	-0,414350
17,300333	0,5	-0,424850
17,308667	0,5	-0,420000
17,317000	0,5	-0,415700
17,325333	0,5	-0,422000
17,333667	0,5	-0,430400
17,342000	0,5	-0,452050
17,350333	0,5	-0,450800
17,358667	0,5	-0,450800
17,367000	0,5	-0,447550
17,375333	0,5	-0,448000
17,383667	0,5	-0,443850
17,392000	0,5	-0,448100
17,400333	0,5	-0,440500
17,408667	0,5	-0,441550
17,417000	0,5	-0,443500
17,425333	0,5	-0,440300
17,433667	0,5	-0,435650
17,442000	0,5	-0,437100
17,450333	0,5	-0,443200
17,458667	0,5	-0,432750
17,467000	0,5	-0,434700
17,475333	0,5	-0,436950
17,483667	0,5	-0,447900
17,492000	0,5	-0,459300
17,500333	0,5	-0,460600
17,508667	0,5	-0,451050
17,517000	0,5	-0,451600
17,525333	0,5	-0,443450
17,533667	0,5	-0,445550
17,542000	0,5	-0,444150
17,550333	0,5	-0,444000
17,558667	0,5	-0,437650
17,567000	0,5	-0,441300
17,575333	0,5	-0,439550
17,583667	0,5	-0,431600
17,592000	0,5	-0,443650
17,600333	0,5	-0,436600
17,608667	0,5	-0,427500
17,617000	0,5	-0,431300
17,625333	0,5	-0,434500
17,633667	0,5	-0,445200
17,642000	0,5	-0,455600
17,650333	0,5	-0,443600
17,658667	0,5	-0,445050
17,667000	0,5	-0,438750
17,675333	0,5	-0,439950
17,683667	0,5	-0,430650
17,692000	0,5	-0,431950
17,700333	0,5	-0,425550
17,708667	0,5	-0,424250
17,717000	0,5	-0,417850
17,725333	0,5	-0,407050
17,733667	0,5	-0,402500
17,742000	0,5	-0,419200
17,750333	0,5	-0,407350
17,758667	0,5	-0,397450
17,767000	0,5	-0,396750
17,775333	0,5	-0,404050
17,783667	0,5	-0,416100
17,792000	0,5	-0,412500
17,800333	0,5	-0,408750
17,808667	0,5	-0,400850
17,817000	0,5	-0,400900
17,825333	0,5	-0,388050
17,833667	0,5	-0,390350
17,842000	0,5	-0,381900
17,850333	0,5	-0,376350
17,858667	0,5	-0,376800
17,867000	0,5	-0,376150
17,875333	0,5	-0,362900
17,883667	0,5	-0,370800
17,892000	0,5	-0,365900
17,900333	0,5	-0,360100
17,908667	0,5	-0,351150
17,917000	0,5	-0,359950
17,925333	0,5	-0,365350
17,933667	0,5	-0,374000
17,942000	0,5	-0,370300
17,950333	0,5	-0,367850
17,958667	0,5	-0,365250
17,967000	0,5	-0,363950
17,975333	0,5	-0,368750
17,983667	0,5	-0,362200
17,992000	0,5	-0,365900
18,000333	0,5	-0,356800
18,008667	0,5	-0,357300
18,017000	0,5	-0,352700
18,025333	0,5	-0,348950
18,033667	0,5	-0,359800
18,042000	0,5	-0,353900
18,050333	0,5	-0,341900
18,058667	0,5	-0,343650
18,067000	0,5	-0,346400
18,075333	0,5	-0,365750
18,083667	0,5	-0,368100
18,092000	0,5	-0,366950
18,100333	0,5	-0,368750
18,108667	0,5	-0,371450
18,117000	0,5	-0,375000
18,125333	0,5	-0,372550
18,133667	0,5	-0,374200
18,142000	0,5	-0,374200
18,150333	0,5	-0,377750
18,158667	0,5	-0,381250
18,167000	0,5	-0,380850
18,175333	0,5	-0,376000
18,183667	0,5	-0,396350
18,192000	0,5	-0,385300
18,200333	0,5	-0,386500
18,208667	0,5	-0,384000
18,217000	0,5	-0,397850
18,225333	0,5	-0,423100
18,233667	0,5	-0,416600
18,242000	0,5	-0,415700
18,250333	0,5	-0,420500
18,258667	0,5	-0,423050
18,267000	0,5	-0,426200
18,275333	0,5	-0,431000
18,283667	0,5	-0,431450
18,292000	0,5	-0,433900
18,300333	0,5	-0,437800
18,308667	0,5	-0,442350
18,317000	0,5	-0,433800
18,325333	0,5	-0,438250
18,333667	0,5	-0,448800
18,342000	0,5	-0,443850
18,350333	0,5	-0,451050
18,358667	0,5	-0,462000
18,367000	0,5	-0,474300
18,375333	0,5	-0,491600
18,383667	0,5	-0,494250
18,392000	0,5	-0,496400
18,400333	0,5	-0,497900
18,408667	0,5	-0,502150
18,417000	0,5	-0,502850
18,425333	0,5	-0,509850
18,433667	0,5	-0,509650
18,442000	0,5	-0,512600
18,450333	0,5	-0,519300
18,458667	0,5	-0,519150
18,467000	0,5	-0,519050
18,475333	0,5	-0,533500
18,483667	0,5	-0,536000
18,492000	0,5	-0,532150
18,500333	0,5	-0,542050
18,508667	0,5	-0,552200
18,517000	0,5	-0,576050
18,525333	0,5	-0,584850
18,533667	0,5	-0,586850
18,542000	0,5	-0,584050
18,550333	0,5	-0,593650
18,558667	0,5	-0,588650
18,567000	0,5	-0,597250
18,575333	0,5	-0,600800
18,583667	0,5	-0,604800
18,592000	0,5	-0,610650
18,600333	0,5	-0,611200
18,608667	0,5	-0,614250
18,617000	0,5	-0,612600
18,625333	0,5	-0,631350
18,633667	0,5	-0,624350
18,642000	0,5	-0,628150
18,650333	0,5	-0,633750
18,658667	0,5	-0,649850
18,667000	0,5	-0,669450
18,675333	0,5	-0,675650
18,683667	0,5	-0,674450
18,692000	0,5	-0,682600
18,700333	0,5	-0,685000
18,708667	0,5	-0,694500
18,717000	0,5	-0,692100
18,725333	0,5	-0,699400
18,733667	0,5	-0,696900
18,742000	0,5	-0,702050
18,750333	0,5	-0,709850
18,758667	0,5	-0,703050
18,767000	0,5	-0,715350
18,775333	0,5	-0,719500
18,783667	0,5	-0,712500
18,792000	0,5	-0,712950
18,800333	0,5	-0,723850
18,808667	0,5	-0,742400
18,817000	0,5	-0,756500
18,825333	0,5	-0,747850
18,833667	0,5	-0,758300
18,842000	0,5	-0,759300
18,850333	0,5	-0,767050
18,858667	0,5	-0,765000
18,867000	0,5	-0,770600
18,875333	0,5	-0,770650
18,883667	0,5	-0,778050
18,892000	0,5	-0,780000
18,900333	0,5	-0,782600
18,908667	0,5	-0,776200
18,917000	0,5	-0,795550
18,925333	0,5	-0,783400
18,933667	0,5	-0,781750
18,942000	0,5	-0,784400
18,950333	0,5	-0,793050
18,958667	0,5	-0,815750
18,967000	0,5	-0,812100
18,975333	0,5	-0,813450
18,983667	0,5	-0,811150
18,992000	0,5	-0,820900
19,000333	0,5	-0,817800
19,008667	0,5	-0,822350
19,017000	0,5	-0,820100
19,025333	0,5	-0,823950
19,033667	0,5	-0,820200
19,042000	0,5	-0,825250
19,050333	0,5	-0,825750
19,058667	0,5	-0,827950
19,067000	0,5	-0,849350
19,075333	0,5	-0,837250
19,083667	0,5	-0,843350
19,092000	0,5	-0,848850
19,100333	0,5	-0,868450
19,108667	0,5	-0,888550
19,117000	0,5	-0,888250
19,125333	0,5	-0,885300
19,133667	0,5	-0,898300
19,142000	0,5	-0,898500
19,150333	0,5	-0,905500
19,158667	0,5	-0,907150
19,167000	0,5	-0,913100
19,175333	0,5	-0,913350
19,183667	0,5	-0,926150
19,192000	0,5	-0,932700
19,200333	0,5	-0,932900
19,208667	0,5	-0,939800
19,217000	0,5	-0,951150
19,225333	0,5	-0,943550
19,233667	0,5	-0,948700
19,242000	0,5	-0,957800
19,250333	0,5	-0,974600
19,258667	0,5	-0,995250
19,267000	0,5	-0,989100
19,275333	0,5	-0,994300
19,283667	0,5	-0,993300
19,292000	0,5	-1,003250
19,300333	0,5	-1,005100
19,308667	0,5	-1,010450
19,317000	0,5	-1,009500
19,325333	0,5	-1,013550
19,333667	0,5	-1,016000
19,342000	0,5	-1,010850
19,350333	0,5	-1,009950
19,358667	0,5	-1,025150
19,367000	0,5	-1,019750
19,375333	0,5	-1,017150
19,383667	0,5	-1,022000
19,392000	0,5	-1,039950
19,400333	0,5	-1,056750
19,408667	0,5	-1,062700
19,417000	0,5	-1,061750
19,425333	0,5	-1,062200
19,433667	0,5	-1,067900
19,442000	0,5	-1,065150
19,450333	0,5	-1,069900
19,458667	0,5	-1,067350
19,467000	0,5	-1,069350
19,475333	0,5	-1,069150
19,483667	0,5	-1,070800
19,492000	0,5	-1,061450
19,500333	0,5	-1,068700
19,508667	0,5	-1,077350
19,517000	0,5	-1,072250
19,525333	0,5	-1,073650
19,533667	0,5	-1,080000
19,542000	0,5	-1,094200
19,550333	0,5	-1,109950
19,558667	0,5	-1,116650
19,567000	0,5	-1,114400
19,575333	0,5	-1,112300
19,583667	0,5	-1,116200
19,592000	0,5	-1,112550
19,600333	0,5	-1,115600
19,608667	0,5	-1,116950
19,617000	0,5	-1,113000
19,625333	0,5	-1,123850
19,633667	0,5	-1,115950
19,642000	0,5	-1,114750
19,650333	0,5	-1,125000
19,658667	0,5	-1,119200
19,667000	0,5	-1,117100
19,675333	0,5	-1,127750
19,683667	0,5	-1,133400
19,692000	0,5	-1,155850
19,700333	0,5	-1,161050
19,708667	0,5	-1,160800
19,717000	0,5	-1,162100
19,725333	0,5	-1,165200
19,733667	0,5	-1,162050
19,742000	0,5	-1,165450
19,750333	0,5	-1,170750
19,758667	0,5	-1,166850
19,767000	0,5	-1,173050
19,775333	0,5	-1,169000
19,783667	0,5	-1,167500
19,792000	0,5	-1,159400
19,800333	0,5	-1,181950
19,808667	0,5	-1,168450
19,817000	0,5	-1,164550
19,825333	0,5	-1,172650
19,833667	0,5	-1,184950
19,842000	0,5	-1,205800
19,850333	0,5	-1,198950
19,858667	0,5	-1,199700
19,867000	0,5	-1,206700
19,875333	0,5	-1,209400
19,883667	0,5	-1,208950
19,892000	0,5	-1,207850
19,900333	0,5	-1,209450
19,908667	0,5	-1,213950
19,917000	0,5	-1,213400
19,925333	0,5	-1,218400
19,933667	0,5	-1,202450
19,942000	0,5	-1,208300
19,950333	0,5	-1,213200
19,958667	0,5	-1,209650
19,967000	0,5	-1,208600
19,975333	0,5	-1,218100
19,983667	0,5	-1,229950
19,992000	0,5	-1,246050
20,000333	0,5	-1,232750
20,008667	0,5	-1,235850
20,017000	0,5	-1,233250
20,025333	0,5	-1,241450
20,033667	0,5	-1,243250
20,042000	0,5	-1,246050
20,050333	0,5	-1,246200
20,058667	0,5	-1,244750
20,067000	0,5	-1,251350
20,075333	0,5	-1,246200
20,083667	0,5	-1,239300
20,092000	0,5	-1,251950
20,100333	0,5	-1,250450
20,108667	0,5	-1,248500
20,117000	0,5	-1,253400
20,125333	0,5	-1,261650
20,133667	0,5	-1,287000
20,142000	0,5	-1,289150
20,150333	0,5	-1,291250
20,158667	0,5	-1,290600
20,167000	0,5	-1,296900
20,175333	0,5	-1,291300
20,183667	0,5	-1,294400
20,192000	0,5	-1,292000
20,200333	0,5	-1,288400
20,208667	0,5	-1,289350
20,217000	0,5	-1,285150
20,225333	0,5	-1,281950
20,233667	0,5	-1,270400
20,242000	0,5	-1,284500
20,250333	0,5	-1,267800
20,258667	0,5	-1,261950
20,267000	0,5	-1,263950
20,275333	0,5	-1,274700
20,283667	0,5	-1,284550
20,292000	0,5	-1,284300
20,300333	0,5	-1,271950
20,308667	0,5	-1,275100
20,317000	0,5	-1,266800
20,325333	0,5	-1,265600
20,333667	0,5	-1,260350
20,342000	0,5	-1,257800
20,350333	0,5	-1,249800
20,358667	0,5	-1,249700
20,367000	0,5	-1,239300
20,375333	0,5	-1,219450
20,383667	0,5	-1,215450
20,392000	0,5	-1,218400
20,400333	0,5	-1,205350
20,408667	0,5	-1,203900
20,417000	0,5	-1,210500
20,425333	0,5	-1,217300
20,433667	0,5	-1,228900
20,442000	0,5	-1,215400
20,450333	0,5	-1,212700
20,458667	0,5	-1,200000
20,467000	0,5	-1,201000
20,475333	0,5	-1,192750
20,483667	0,5	-1,189500
20,492000	0,5	-1,179550
20,500333	0,5	-1,175300
20,508667	0,5	-1,169550
20,517000	0,5	-1,149650
20,525333	0,5	-1,132000
20,533667	0,5	-1,139750
20,542000	0,5	-1,132500
20,550333	0,5	-1,122400
20,558667	0,5	-1,129500
20,567000	0,5	-1,130400
20,575333	0,5	-1,145150
20,583667	0,5	-1,137850
20,592000	0,5	-1,141400
20,600333	0,5	-1,128700
20,608667	0,5	-1,129550
20,617000	0,5	-1,120000
20,625333	0,5	-1,122150
20,633667	0,5	-1,117900
20,642000	0,5	-1,119200
20,650333	0,5	-1,123350
20,658667	0,5	-1,117050
20,667000	0,5	-1,094500
20,675333	0,5	-1,090100
20,683667	0,5	-1,095700
20,692000	0,5	-1,096050
20,700333	0,5	-1,102850
20,708667	0,5	-1,108350
20,717000	0,5	-1,132700
20,725333	0,5	-1,131250
20,733667	0,5	-1,133900
20,742000	0,5	-1,127350
20,750333	0,5	-1,133750
20,758667	0,5	-1,123550
20,767000	0,5	-1,124900
20,775333	0,5	-1,118850
20,783667	0,5	-1,119150
20,792000	0,5	-1,112450
20,800333	0,5	-1,110700
20,808667	0,5	-1,090300
20,817000	0,5	-1,071350
20,825333	0,5	-1,070100
20,833667	0,5	-1,074000
20,842000	0,5	-1,072050
20,850333	0,5	-1,072200
20,858667	0,5	-1,081850
20,867000	0,5	-1,095850
20,875333	0,5	-1,087400
20,883667	0,5	-1,071850
20,892000	0,5	-1,070150
20,900333	0,5	-1,060150
20,908667	0,5	-1,056000
20,917000	0,5	-1,039000
20,925333	0,5	-1,037700
20,933667	0,5	-1,025100
20,942000	0,5	-1,023950
20,950333	0,5	-1,017150
20,958667	0,5	-0,984400
20,967000	0,5	-0,963250
20,975333	0,5	-0,969300
20,983667	0,5	-0,961400
20,992000	0,5	-0,956650
21,000333	0,5	-0,964950
21,008667	0,5	-0,964850
21,017000	0,5	-0,978050
21,025333	0,5	-0,958650
21,033667	0,5	-0,956600
21,042000	0,5	-0,945300
21,050333	0,5	-0,950800
21,058667	0,5	-0,939700
21,067000	0,5	-0,942500
21,075333	0,5	-0,935750
21,083667	0,5	-0,930700
21,092000	0,5	-0,927200
21,100333	0,5	-0,912150
21,108667	0,5	-0,886400
21,117000	0,5	-0,876400
21,125333	0,5	-0,882400
21,133667	0,5	-0,879800
21,142000	0,5	-0,890500
21,150333	0,5	-0,898200
21,158667	0,5	-0,911900
21,167000	0,5	-0,907850
21,175333	0,5	-0,906450
21,183667	0,5	-0,896950
21,192000	0,5	-0,901600
21,200333	0,5	-0,883650
21,208667	0,5	-0,882250
21,217000	0,5	-0,872400
21,225333	0,5	-0,866650
21,233667	0,5	-0,855650
21,242000	0,5	-0,848000
21,250333	0,5	-0,816550
21,258667	0,5	-0,789600
21,267000	0,5	-0,785200
21,275333	0,5	-0,783150
21,283667	0,5	-0,781250
21,292000	0,5	-0,777950
21,300333	0,5	-0,790800
21,308667	0,5	-0,796400
21,317000	0,5	-0,796350
21,325333	0,5	-0,775800
21,333667	0,5	-0,766650
21,342000	0,5	-0,750200
21,350333	0,5	-0,743450
21,358667	0,5	-0,729450
21,367000	0,5	-0,722250
21,375333	0,5	-0,705450
21,383667	0,5	-0,699000
21,392000	0,5	-0,678400
21,400333	0,5	-0,643500
21,408667	0,5	-0,615800
21,417000	0,5	-0,615850
21,425333	0,5	-0,604900
21,433667	0,5	-0,605000
21,442000	0,5	-0,604200
21,450333	0,5	-0,608150
21,458667	0,5	-0,601400
21,467000	0,5	-0,581900
21,475333	0,5	-0,572850
21,483667	0,5	-0,551050
21,492000	0,5	-0,539750
21,500333	0,5	-0,519100
21,508667	0,5	-0,507850
21,517000	0,5	-0,482200
21,525333	0,5	-0,467050
21,533667	0,5	-0,447600
21,542000	0,5	-0,403850
21,550333	0,5	-0,374050
21,558667	0,5	-0,356750
21,567000	0,5	-0,339400
21,575333	0,5	-0,322800
21,583667	0,5	-0,306450
21,592000	0,5	-0,291350
21,600333	0,5	-0,278250
21,608667	0,5	-0,240900
21,617000	0,5	-0,213150
21,625333	0,5	-0,169350
21,633667	0,5	-0,152300
21,642000	0,5	-0,129900
21,650333	0,5	-0,130150
21,658667	0,5	-0,121000
21,667000	0,5	-0,121050
21,675333	0,5	-0,107750
21,683667	0,5	-0,095800
21,692000	0,5	-0,055900
21,700333	0,5	-0,033050
21,708667	0,5	-0,027550
21,717000	0,5	-0,018450
21,725333	0,5	-0,002700
21,733667	0,5	0,005500
21,742000	0,5	0,004150
21,750333	0,5	0,020850
21,758667	0,5	0,046850
21,767000	0,5	0,079700
21,775333	0,5	0,094300
21,783667	0,5	0,127950
21,792000	0,5	0,151600
21,800333	0,5	0,189800
21,808667	0,5	0,220850
21,817000	0,5	0,259950
21,825333	0,5	0,294800
21,833667	0,5	0,343250
21,842000	0,5	0,388450
21,850333	0,5	0,409750
21,858667	0,5	0,447000
21,867000	0,5	0,473650
21,875333	0,5	0,500800
21,883667	0,5	0,524550
21,892000	0,5	0,533700
21,900333	0,5	0,563750
21,908667	0,5	0,592200
21,917000	0,5	0,614600
21,925333	0,5	0,644250
21,933667	0,5	0,669950
21,942000	0,5	0,710300
21,950333	0,5	0,738050
21,958667	0,5	0,774700
21,967000	0,5	0,801100
21,975333	0,5	0,836150
21,983667	0,5	0,890100
21,992000	0,5	0,927100
22,000333	0,5	0,950750
22,008667	0,5	0,993200
22,017000	0,5	1,032150
22,025333	0,5	1,061900
22,033667	0,5	1,098000
22,042000	0,5	1,129800
22,050333	0,5	1,184550
22,058667	0,5	1,226900
22,067000	0,5	1,269250
22,075333	0,5	1,309300
22,083667	0,5	1,352000
22,092000	0,5	1,391000
22,100333	0,5	1,441600
22,108667	0,5	1,482200
22,117000	0,5	1,527650
22,125333	0,5	1,582350
22,133667	0,5	1,645500
22,142000	0,5	1,681400
22,150333	0,5	1,745800
22,158667	0,5	1,795950
22,167000	0,5	1,843000
22,175333	0,5	1,882850
22,183667	0,5	1,919200
22,192000	0,5	1,969500
22,200333	0,5	2,017150
22,208667	0,5	2,071950
22,217000	0,5	2,112050
22,225333	0,5	2,165900
22,233667	0,5	2,202400
22,242000	0,5	2,257450
22,250333	0,5	2,304150
22,258667	0,5	2,353550
22,267000	0,5	2,400250
22,275333	0,5	2,442400
22,283667	0,5	2,493400
22,292000	0,5	2,549050
22,300333	0,5	2,615550
22,308667	0,5	2,662250
22,317000	0,5	2,714200
22,325333	0,5	2,747100
22,333667	0,5	2,789100
22,342000	0,5	2,839850
22,350333	0,5	2,902750
22,358667	0,5	2,956650
22,367000	0,5	3,024100
22,375333	0,5	3,077200
22,383667	0,5	3,135950
22,392000	0,5	3,193400
22,400333	0,5	3,255200
22,408667	0,5	3,315050
22,417000	0,5	3,375700
22,425333	0,5	3,435950
22,433667	0,5	3,502200
22,442000	0,5	3,588800
22,450333	0,5	3,671450
22,458667	0,5	3,740100
22,467000	0,5	3,803950
22,475333	0,5	3,867350
22,483667	0,5	3,945350
22,492000	0,5	4,034050
22,500333	0,5	4,109050
22,508667	0,5	4,192650
22,517000	0,5	4,270900
22,525333	0,5	4,353750
22,533667	0,5	4,438300
22,542000	0,5	4,529000
22,550333	0,5	4,606750
22,558667	0,5	4,692250
22,567000	0,5	4,749950
22,575333	0,5	4,822600
22,583667	0,5	4,904200
22,592000	0,5	4,990200
22,600333	0,5	5,061100
22,608667	0,5	5,113000
22,617000	0,5	5,158250
22,625333	0,5	5,201100
22,633667	0,5	5,261650
22,642000	0,5	5,303700
22,650333	0,5	5,354300
22,658667	0,5	5,390300
22,667000	0,5	5,429750
22,675333	0,5	5,446400
22,683667	0,5	5,471200
22,692000	0,5	5,475950
22,700333	0,5	5,476250
22,708667	0,5	5,452700
22,717000	0,5	5,408050
22,725333	0,5	5,374050
22,733667	0,5	5,359650
22,742000	0,5	5,306100
22,750333	0,5	5,232650
22,758667	0,5	5,144850
22,767000	0,5	5,032200
22,775333	0,5	4,938400
22,783667	0,5	4,830500
22,792000	0,5	4,723200
22,800333	0,5	4,601300
22,808667	0,5	4,478650
22,817000	0,5	4,345550
22,825333	0,5	4,209750
22,833667	0,5	4,068550
22,842000	0,5	3,912850
22,850333	0,5	3,757150
22,858667	0,5	3,556200
22,867000	0,5	3,380200
22,875333	0,5	3,207500
22,883667	0,5	3,037000
22,892000	0,5	2,842450
22,900333	0,5	2,645200
22,908667	0,5	2,451650
22,917000	0,5	2,259950
22,925333	0,5	2,065200
22,933667	0,5	1,870500
22,942000	0,5	1,686100
22,950333	0,5	1,505750
22,958667	0,5	1,330800
22,967000	0,5	1,149750
22,975333	0,5	0,977300
22,983667	0,5	0,798100
22,992000	0,5	0,635150
23,000333	0,5	0,469200
23,008667	0,5	0,305300
23,017000	0,5	0,147700
23,025333	0,5	-0,024450
23,033667	0,5	-0,201350
23,042000	0,5	-0,344650
23,050333	0,5	-0,477550
23,058667	0,5	-0,606700
23,067000	0,5	-0,722050
23,075333	0,5	-0,850000
23,083667	0,5	-0,953600
23,092000	0,5	-1,058750
23,100333	0,5	-1,145750
23,108667	0,5	-1,238400
23,117000	0,5	-1,319950
23,125333	0,5	-1,409300
23,133667	0,5	-1,487700
23,142000	0,5	-1,568000
23,150333	0,5	-1,617500
23,158667	0,5	-1,693600
23,167000	0,5	-1,763050
23,175333	0,5	-1,852950
23,183667	0,5	-1,918900
23,192000	0,5	-1,969900
23,200333	0,5	-2,005600
23,208667	0,5	-2,035150
23,217000	0,5	-2,067100
23,225333	0,5	-2,087250
23,233667	0,5	-2,106400
23,242000	0,5	-2,115100
23,250333	0,5	-2,126200
23,258667	0,5	-2,133450
23,267000	0,5	-2,140100
23,275333	0,5	-2,143600
23,283667	0,5	-2,155000
23,292000	0,5	-2,154000
23,300333	0,5	-2,161550
23,308667	0,5	-2,163250
23,317000	0,5	-2,147950
23,325333	0,5	-2,182300
23,333667	0,5	-2,196950
23,342000	0,5	-2,191150
23,350333	0,5	-2,176900
23,358667	0,5	-2,160700
23,367000	0,5	-2,146850
23,375333	0,5	-2,130800
23,383667	0,5	-2,111000
23,392000	0,5	-2,087350
23,400333	0,5	-2,055900
23,408667	0,5	-2,029100
23,417000	0,5	-2,002300
23,425333	0,5	-1,979800
23,433667	0,5	-1,948600
23,442000	0,5	-1,926500
23,450333	0,5	-1,955200
23,458667	0,5	-1,896450
23,467000	0,5	-1,854750
23,475333	0,5	-1,860650
23,483667	0,5	-1,852550
23,492000	0,5	-1,844450
23,500333	0,5	-1,821050
23,508667	0,5	-1,804350
23,517000	0,5	-1,788650
23,525333	0,5	-1,776850
23,533667	0,5	-1,753400
23,542000	0,5	-1,735100
23,550333	0,5	-1,713950
23,558667	0,5	-1,692900
23,567000	0,5	-1,673300
23,575333	0,5	-1,653450
23,583667	0,5	-1,637250
23,592000	0,5	-1,671400
23,600333	0,5	-1,664600
23,608667	0,5	-1,645450
23,617000	0,5	-1,573650
23,625333	0,5	-1,564000
23,633667	0,5	-1,562500
23,642000	0,5	-1,552450
23,650333	0,5	-1,546250
23,658667	0,5	-1,535950
23,667000	0,5	-1,525850
23,675333	0,5	-1,519550
23,683667	0,5	-1,506950
23,692000	0,5	-1,499150
23,700333	0,5	-1,490500
23,708667	0,5	-1,483550
23,717000	0,5	-1,478300
23,725333	0,5	-1,474000
23,733667	0,5	-1,479100
23,742000	0,5	-1,588500
23,750333	0,5	-1,563650
23,758667	0,5	-1,529600
23,767000	0,5	-1,475950
23,775333	0,5	-1,468500
23,783667	0,5	-1,470650
23,792000	0,5	-1,467000
23,800333	0,5	-1,478200
23,808667	0,5	-1,458650
23,817000	0,5	-1,452750
23,825333	0,5	-1,440850
23,833667	0,5	-1,434950
23,842000	0,5	-1,421400
23,850333	0,5	-1,413250
23,858667	0,5	-1,401150
23,867000	0,5	-1,391200
23,875333	0,5	-1,387200
23,883667	0,5	-1,424050
23,892000	0,5	-1,514500
23,900333	0,5	-1,474450
23,908667	0,5	-1,435400
23,917000	0,5	-1,396200
23,925333	0,5	-1,388750
23,933667	0,5	-1,390100
23,942000	0,5	-1,398800
23,950333	0,5	-1,404100
23,958667	0,5	-1,394650
23,967000	0,5	-1,381400
23,975333	0,5	-1,379750
23,983667	0,5	-1,366100
23,992000	0,5	-1,361550
24,000333	0,5	-1,346500
24,008667	0,5	-1,334600
24,017000	0,5	-1,321700
24,025333	0,5	-1,314250
24,033667	0,5	-1,423750
24,042000	0,5	-1,413500
24,050333	0,5	-1,378150
24,058667	0,5	-1,326000
24,067000	0,5	-1,288500
24,075333	0,5	-1,274100
24,083667	0,5	-1,269650
24,092000	0,5	-1,274750
24,100333	0,5	-1,275300
24,108667	0,5	-1,245550
24,117000	0,5	-1,235650
24,125333	0,5	-1,219200
24,133667	0,5	-1,210700
24,142000	0,5	-1,190900
24,150333	0,5	-1,184950
24,158667	0,5	-1,167550
24,167000	0,5	-1,162600
24,175333	0,5	-1,158900
24,183667	0,5	-1,263200
24,192000	0,5	-1,224050
24,200333	0,5	-1,204250
24,208667	0,5	-1,152200
24,217000	0,5	-1,134300
24,225333	0,5	-1,120400
24,233667	0,5	-1,122100
24,242000	0,5	-1,127250
24,250333	0,5	-1,112250
24,258667	0,5	-1,097150
24,267000	0,5	-1,077400
24,275333	0,5	-1,064750
24,283667	0,5	-1,040400
24,292000	0,5	-1,024850
24,300333	0,5	-0,999500
24,308667	0,5	-0,982750
24,317000	0,5	-0,966400
24,325333	0,5	-0,987100
24,333667	0,5	-1,032500
24,342000	0,5	-1,015950
24,350333	0,5	-0,971050
24,358667	0,5	-0,938700
24,367000	0,5	-0,918150
24,375333	0,5	-0,912000
24,383667	0,5	-0,913550
24,392000	0,5	-0,920350
24,400333	0,5	-0,912800
24,408667	0,5	-0,898200
24,417000	0,5	-0,881500
24,425333	0,5	-0,868050
24,433667	0,5	-0,857350
24,442000	0,5	-0,843550
24,450333	0,5	-0,834500
24,458667	0,5	-0,818250
24,467000	0,5	-0,807800
24,475333	0,5	-0,848250
24,483667	0,5	-0,849400
24,492000	0,5	-0,825850
24,500333	0,5	-0,790300
24,508667	0,5	-0,758250
24,517000	0,5	-0,744450
24,525333	0,5	-0,733900
24,533667	0,5	-0,743600
24,542000	0,5	-0,730250
24,550333	0,5	-0,715250
24,558667	0,5	-0,699650
24,567000	0,5	-0,692250
24,575333	0,5	-0,677000
24,583667	0,5	-0,664750
24,592000	0,5	-0,656550
24,600333	0,5	-0,642950
24,608667	0,5	-0,635000
24,617000	0,5	-0,627700
24,625333	0,5	-0,677750
24,633667	0,5	-0,656050
24,642000	0,5	-0,654600
24,650333	0,5	-0,622800
24,658667	0,5	-0,608150
24,667000	0,5	-0,600750
24,675333	0,5	-0,600500
24,683667	0,5	-0,606100
24,692000	0,5	-0,591800
24,700333	0,5	-0,577300
24,708667	0,5	-0,568900
24,717000	0,5	-0,555450
24,725333	0,5	-0,546600
24,733667	0,5	-0,532350
24,742000	0,5	-0,523550
24,750333	0,5	-0,508650
24,758667	0,5	-0,498700
24,767000	0,5	-0,505800
24,775333	0,5	-0,518000
24,783667	0,5	-0,505850
24,792000	0,5	-0,491650
24,800333	0,5	-0,471400
24,808667	0,5	-0,460600
24,817000	0,5	-0,458100
24,825333	0,5	-0,456450
24,833667	0,5	-0,461400
24,842000	0,5	-0,447600
24,850333	0,5	-0,446350
24,858667	0,5	-0,437150
24,867000	0,5	-0,433400
24,875333	0,5	-0,426950
24,883667	0,5	-0,420850
24,892000	0,5	-0,411400
24,900333	0,5	-0,406100
24,908667	0,5	-0,398100
24,917000	0,5	-0,410600
24,925333	0,5	-0,403550
24,933667	0,5	-0,397650
24,942000	0,5	-0,381000
24,950333	0,5	-0,367050
24,958667	0,5	-0,359250
24,967000	0,5	-0,353650
24,975333	0,5	-0,356500
24,983667	0,5	-0,349750
24,992000	0,5	-0,342850
25,000333	0,5	-0,335850
25,008667	0,5	-0,330400
25,017000	0,5	-0,322850
25,025333	0,5	-0,316750
25,033667	0,5	-0,310150
25,042000	0,5	-0,304850
25,050333	0,5	-0,297950
25,058667	0,5	-0,297850
25,067000	0,5	-0,307600
25,075333	0,5	-0,301650
25,083667	0,5	-0,296000
25,092000	0,5	-0,288150
25,100333	0,5	-0,282550
25,108667	0,5	-0,278450
25,117000	0,5	-0,276850
25,125333	0,5	-0,277600
25,133667	0,5	-0,277000
25,142000	0,5	-0,271200
25,150333	0,5	-0,262350
25,158667	0,5	-0,259000
25,167000	0,5	-0,253050
25,175333	0,5	-0,246050
25,183667	0,5	-0,238800
25,192000	0,5	-0,232600
25,200333	0,5	-0,228250
25,208667	0,5	-0,221350
25,217000	0,5	-0,222550
25,225333	0,5	-0,217400
25,233667	0,5	-0,214200
25,242000	0,5	-0,210950
25,250333	0,5	-0,205200
25,258667	0,5	-0,202700
25,267000	0,5	-0,207300
25,275333	0,5	-0,206050
25,283667	0,5	-0,203550
25,292000	0,5	-0,202850
25,300333	0,5	-0,200000
25,308667	0,5	-0,199200
25,317000	0,5	-0,197450
25,325333	0,5	-0,194700
25,333667	0,5	-0,188750
25,342000	0,5	-0,185750
25,350333	0,5	-0,183700
25,358667	0,5	-0,182000
25,367000	0,5	-0,177750
25,375333	0,5	-0,172950
25,383667	0,5	-0,168550
25,392000	0,5	-0,167800
25,400333	0,5	-0,162250
25,408667	0,5	-0,161300
25,417000	0,5	-0,158600
25,425333	0,5	-0,156600
25,433667	0,5	-0,154350
25,442000	0,5	-0,154000
25,450333	0,5	-0,149650
25,458667	0,5	-0,149450
25,467000	0,5	-0,148500
25,475333	0,5	-0,148900
25,483667	0,5	-0,144100
25,492000	0,5	-0,144600
25,500333	0,5	-0,144300
25,508667	0,5	-0,141950
25,517000	0,5	-0,141850
25,525333	0,5	-0,137450
25,533667	0,5	-0,140450
25,542000	0,5	-0,140600
25,550333	0,5	-0,139600
25,558667	0,5	-0,136350
25,567000	0,5	-0,131350
25,575333	0,5	-0,130150
25,583667	0,5	-0,126150
25,592000	0,5	-0,122600
25,600333	0,5	-0,122800
25,608667	0,5	-0,123100
25,617000	0,5	-0,118000
25,625333	0,5	-0,116850
25,633667	0,5	-0,115050
25,642000	0,5	-0,109600
25,650333	0,5	-0,110800
25,658667	0,5	-0,107950
25,667000	0,5	-0,108900
25,675333	0,5	-0,106400
25,683667	0,5	-0,109350
25,692000	0,5	-0,109650
25,700333	0,5	-0,112100
25,708667	0,5	-0,108550
25,717000	0,5	-0,105500
25,725333	0,5	-0,105850
25,733667	0,5	-0,108100
25,742000	0,5	-0,103300
25,750333	0,5	-0,103150
25,758667	0,5	-0,100350
25,767000	0,5	-0,097050
25,775333	0,5	-0,097650
25,783667	0,5	-0,095300
25,792000	0,5	-0,092850
25,800333	0,5	-0,087850
25,808667	0,5	-0,088150
25,817000	0,5	-0,086000
25,825333	0,5	-0,083550
25,833667	0,5	-0,086450
25,842000	0,5	-0,087600
25,850333	0,5	-0,085950
25,858667	0,5	-0,081900
25,867000	0,5	-0,070600
25,875333	0,5	-0,079900
25,883667	0,5	-0,075000
25,892000	0,5	-0,076500
25,900333	0,5	-0,070850
25,908667	0,5	-0,073750
25,917000	0,5	-0,069250
25,925333	0,5	-0,069350
25,933667	0,5	-0,067450
25,942000	0,5	-0,064700
25,950333	0,5	-0,062450
25,958667	0,5	-0,059850
25,967000	0,5	-0,054650
25,975333	0,5	-0,056350
25,983667	0,5	-0,058350
25,992000	0,5	-0,054500
26,000333	0,5	-0,050550
