File Path	chrom://chromeleon01/ikbm_chromeleon/2022/ICS-5000/ED1/Esteban/20220612_Cell_7_4_eg.seq/241.smp/ED_1.channel/ED_1.chm
Channel	ED_1

Injection Information:
Data Vault	ikbm_chromeleon
Injection	Std_C1ox-0.005_1
Injection Number	8
Position	RA3
Comment	
Processing Method	Stop sequence after Cell Death
Instrument Method	ICS5000_PA200_FullNative_Ox_26min_ED1
Type	Unknown
Status	Finished
Injection Date	12.06.2022
Injection Time	19:20:05
Injection Volume (µl)	5,0
Dilution Factor	1,0000
Weight	1,0000

Chromatogram Data Information:
Time Min. (min)	0,000333
Time Max. (min)	26,000333
Data Points	3121
Detector	EDet1
Generating Data System	Chromeleon 7.2.9.11323
Exporting Data System	Chromeleon 7.2.9.0
Operator	Instrument Controller
Signal Quantity	
Signal Unit	nC
Signal Min.	-1,590250
Signal Max.	21,348200
Channel	ED_1
Driver Name	DC-5000
Channel Type	Evaluation
Min. Step (s)	0,5
Max. Step (s)	0,5
Average Step (s)	0,5

Signal Parameter Information:
Signal Info	

Chromatogram Data:
Time (min)	Step (s)	Value (nC)
0,000333	n.a.	-0,017400
0,008667	0,5	-0,042000
0,017000	0,5	-0,034750
0,025333	0,5	-0,021100
0,033667	0,5	-0,015250
0,042000	0,5	-0,024500
0,050333	0,5	-0,020050
0,058667	0,5	-0,009750
0,067000	0,5	0,009050
0,075333	0,5	0,021200
0,083667	0,5	0,020300
0,092000	0,5	0,014950
0,100333	0,5	0,015900
0,108667	0,5	0,012750
0,117000	0,5	0,018250
0,125333	0,5	0,015800
0,133667	0,5	0,020000
0,142000	0,5	0,012150
0,150333	0,5	0,018200
0,158667	0,5	0,013850
0,167000	0,5	0,013300
0,175333	0,5	0,017650
0,183667	0,5	0,015750
0,192000	0,5	0,001450
0,200333	0,5	0,008200
0,208667	0,5	0,014150
0,217000	0,5	0,037150
0,225333	0,5	0,042050
0,233667	0,5	0,035200
0,242000	0,5	0,031600
0,250333	0,5	0,034450
0,258667	0,5	0,028800
0,267000	0,5	0,027800
0,275333	0,5	0,027600
0,283667	0,5	0,024950
0,292000	0,5	0,027900
0,300333	0,5	0,026750
0,308667	0,5	0,030250
0,317000	0,5	0,027250
0,325333	0,5	0,034350
0,333667	0,5	0,012050
0,342000	0,5	0,010000
0,350333	0,5	0,012450
0,358667	0,5	0,025300
0,367000	0,5	0,037250
0,375333	0,5	0,042200
0,383667	0,5	0,036500
0,392000	0,5	0,042900
0,400333	0,5	0,036850
0,408667	0,5	0,034250
0,417000	0,5	0,033700
0,425333	0,5	0,028750
0,433667	0,5	0,029850
0,442000	0,5	0,029550
0,450333	0,5	0,036550
0,458667	0,5	0,018450
0,467000	0,5	0,033050
0,475333	0,5	0,030000
0,483667	0,5	0,023350
0,492000	0,5	0,021500
0,500333	0,5	0,026350
0,508667	0,5	0,040200
0,517000	0,5	0,058550
0,525333	0,5	0,039350
0,533667	0,5	0,046850
0,542000	0,5	0,039050
0,550333	0,5	0,048300
0,558667	0,5	0,041550
0,567000	0,5	0,048350
0,575333	0,5	0,040950
0,583667	0,5	0,043150
0,592000	0,5	0,043250
0,600333	0,5	0,037800
0,608667	0,5	0,029100
0,617000	0,5	0,053300
0,625333	0,5	0,042600
0,633667	0,5	0,037750
0,642000	0,5	0,042950
0,650333	0,5	0,045150
0,658667	0,5	0,070250
0,667000	0,5	0,063200
0,675333	0,5	0,066000
0,683667	0,5	0,062650
0,692000	0,5	0,071750
0,700333	0,5	0,065000
0,708667	0,5	0,073400
0,717000	0,5	0,066950
0,725333	0,5	0,070650
0,733667	0,5	0,071900
0,742000	0,5	0,070850
0,750333	0,5	0,071950
0,758667	0,5	0,068250
0,767000	0,5	0,084100
0,775333	0,5	0,069650
0,783667	0,5	0,069850
0,792000	0,5	0,073300
0,800333	0,5	0,085650
0,808667	0,5	0,108250
0,817000	0,5	0,107150
0,825333	0,5	0,097700
0,833667	0,5	0,102400
0,842000	0,5	0,101800
0,850333	0,5	0,106200
0,858667	0,5	0,105800
0,867000	0,5	0,109850
0,875333	0,5	0,107200
0,883667	0,5	0,111650
0,892000	0,5	0,107500
0,900333	0,5	0,106100
0,908667	0,5	0,104650
0,917000	0,5	0,120600
0,925333	0,5	0,101450
0,933667	0,5	0,109500
0,942000	0,5	0,110400
0,950333	0,5	0,125950
0,958667	0,5	0,145850
0,967000	0,5	0,141850
0,975333	0,5	0,140900
0,983667	0,5	0,145350
0,992000	0,5	0,144750
1,000333	0,5	0,148550
1,008667	0,5	0,153150
1,017000	0,5	0,143750
1,025333	0,5	0,148750
1,033667	0,5	0,143700
1,042000	0,5	0,143200
1,050333	0,5	0,134500
1,058667	0,5	0,150900
1,067000	0,5	0,147850
1,075333	0,5	0,140800
1,083667	0,5	0,144300
1,092000	0,5	0,148600
1,100333	0,5	0,167850
1,108667	0,5	0,181200
1,117000	0,5	0,176850
1,125333	0,5	0,180650
1,133667	0,5	0,177650
1,142000	0,5	0,172900
1,150333	0,5	0,173500
1,158667	0,5	0,177450
1,167000	0,5	0,176100
1,175333	0,5	0,174800
1,183667	0,5	0,179400
1,192000	0,5	0,166250
1,200333	0,5	0,171200
1,208667	0,5	0,180100
1,217000	0,5	0,173950
1,225333	0,5	0,163250
1,233667	0,5	0,171700
1,242000	0,5	0,174200
1,250333	0,5	0,193500
1,258667	0,5	0,193200
1,267000	0,5	0,197100
1,275333	0,5	0,188100
1,283667	0,5	0,193600
1,292000	0,5	0,189150
1,300333	0,5	0,193650
1,308667	0,5	0,185100
1,317000	0,5	0,181600
1,325333	0,5	0,181150
1,333667	0,5	0,174450
1,342000	0,5	0,171100
1,350333	0,5	0,170850
1,358667	0,5	0,179650
1,367000	0,5	0,164100
1,375333	0,5	0,158500
1,383667	0,5	0,159350
1,392000	0,5	0,170800
1,400333	0,5	0,177500
1,408667	0,5	0,175650
1,417000	0,5	0,166600
1,425333	0,5	0,168500
1,433667	0,5	0,161600
1,442000	0,5	0,164150
1,450333	0,5	0,162000
1,458667	0,5	0,167350
1,467000	0,5	0,176450
1,475333	0,5	0,186000
1,483667	0,5	0,187000
1,492000	0,5	0,172650
1,500333	0,5	0,178600
1,508667	0,5	0,173450
1,517000	0,5	0,160500
1,525333	0,5	0,152250
1,533667	0,5	0,149850
1,542000	0,5	0,151750
1,550333	0,5	0,143900
1,558667	0,5	0,075650
1,567000	0,5	-0,093950
1,575333	0,5	-0,518100
1,583667	0,5	-1,096850
1,592000	0,5	-1,512700
1,600333	0,5	-1,427650
1,608667	0,5	-0,826900
1,617000	0,5	0,139850
1,625333	0,5	1,356350
1,633667	0,5	2,579550
1,642000	0,5	3,496150
1,650333	0,5	3,941250
1,658667	0,5	3,909950
1,667000	0,5	3,660750
1,675333	0,5	3,370300
1,683667	0,5	3,138100
1,692000	0,5	2,971100
1,700333	0,5	2,813850
1,708667	0,5	2,693250
1,717000	0,5	2,607300
1,725333	0,5	2,571850
1,733667	0,5	2,572800
1,742000	0,5	2,631150
1,750333	0,5	2,766350
1,758667	0,5	3,044450
1,767000	0,5	3,433300
1,775333	0,5	3,819600
1,783667	0,5	4,058600
1,792000	0,5	4,117150
1,800333	0,5	4,019650
1,808667	0,5	3,796200
1,817000	0,5	3,533800
1,825333	0,5	3,274500
1,833667	0,5	3,035750
1,842000	0,5	2,843350
1,850333	0,5	2,662950
1,858667	0,5	2,510500
1,867000	0,5	2,379250
1,875333	0,5	2,257350
1,883667	0,5	2,167900
1,892000	0,5	2,172250
1,900333	0,5	2,417000
1,908667	0,5	3,144500
1,917000	0,5	4,822100
1,925333	0,5	7,801150
1,933667	0,5	11,344000
1,942000	0,5	13,449900
1,950333	0,5	13,069150
1,958667	0,5	11,001300
1,967000	0,5	8,676100
1,975333	0,5	6,781050
1,983667	0,5	5,435400
1,992000	0,5	4,492000
2,000333	0,5	3,781350
2,008667	0,5	3,250050
2,017000	0,5	2,862250
2,025333	0,5	2,575400
2,033667	0,5	2,377450
2,042000	0,5	2,249650
2,050333	0,5	2,159900
2,058667	0,5	2,082650
2,067000	0,5	1,994150
2,075333	0,5	1,914000
2,083667	0,5	1,832850
2,092000	0,5	1,792700
2,100333	0,5	1,759100
2,108667	0,5	1,736600
2,117000	0,5	1,732950
2,125333	0,5	1,745250
2,133667	0,5	1,775800
2,142000	0,5	1,817600
2,150333	0,5	1,846400
2,158667	0,5	1,891600
2,167000	0,5	1,937850
2,175333	0,5	1,997000
2,183667	0,5	2,054050
2,192000	0,5	2,123500
2,200333	0,5	2,200000
2,208667	0,5	2,271200
2,217000	0,5	2,346100
2,225333	0,5	2,396800
2,233667	0,5	2,462350
2,242000	0,5	2,539700
2,250333	0,5	2,609200
2,258667	0,5	2,681350
2,267000	0,5	2,776200
2,275333	0,5	2,867050
2,283667	0,5	2,963350
2,292000	0,5	3,044950
2,300333	0,5	3,130500
2,308667	0,5	3,205700
2,317000	0,5	3,292000
2,325333	0,5	3,369750
2,333667	0,5	3,457650
2,342000	0,5	3,536650
2,350333	0,5	3,615850
2,358667	0,5	3,691850
2,367000	0,5	3,768300
2,375333	0,5	3,838900
2,383667	0,5	3,930600
2,392000	0,5	4,031950
2,400333	0,5	4,144700
2,408667	0,5	4,292600
2,417000	0,5	4,497300
2,425333	0,5	4,737550
2,433667	0,5	4,965200
2,442000	0,5	5,158350
2,450333	0,5	5,363250
2,458667	0,5	5,699000
2,467000	0,5	6,266250
2,475333	0,5	7,046150
2,483667	0,5	7,802350
2,492000	0,5	8,225600
2,500333	0,5	8,122600
2,508667	0,5	7,605700
2,517000	0,5	6,923200
2,525333	0,5	6,289900
2,533667	0,5	5,830800
2,542000	0,5	5,504000
2,550333	0,5	5,289250
2,558667	0,5	5,155800
2,567000	0,5	5,072700
2,575333	0,5	5,024800
2,583667	0,5	4,984550
2,592000	0,5	4,938150
2,600333	0,5	4,910700
2,608667	0,5	4,885100
2,617000	0,5	4,864150
2,625333	0,5	4,834700
2,633667	0,5	4,809300
2,642000	0,5	4,762950
2,650333	0,5	4,724350
2,658667	0,5	4,676500
2,667000	0,5	4,622850
2,675333	0,5	4,569100
2,683667	0,5	4,544450
2,692000	0,5	4,492300
2,700333	0,5	4,442950
2,708667	0,5	4,396550
2,717000	0,5	4,361850
2,725333	0,5	4,330550
2,733667	0,5	4,279800
2,742000	0,5	4,232000
2,750333	0,5	4,181950
2,758667	0,5	4,124650
2,767000	0,5	4,050350
2,775333	0,5	3,977750
2,783667	0,5	3,898650
2,792000	0,5	3,821250
2,800333	0,5	3,744300
2,808667	0,5	3,673100
2,817000	0,5	3,590150
2,825333	0,5	3,520950
2,833667	0,5	3,464600
2,842000	0,5	3,383300
2,850333	0,5	3,310350
2,858667	0,5	3,252400
2,867000	0,5	3,188450
2,875333	0,5	3,137150
2,883667	0,5	3,061000
2,892000	0,5	2,995650
2,900333	0,5	2,923100
2,908667	0,5	2,854250
2,917000	0,5	2,776650
2,925333	0,5	2,708550
2,933667	0,5	2,636450
2,942000	0,5	2,562750
2,950333	0,5	2,496200
2,958667	0,5	2,430100
2,967000	0,5	2,355650
2,975333	0,5	2,292500
2,983667	0,5	2,236150
2,992000	0,5	2,162300
3,000333	0,5	2,107400
3,008667	0,5	2,056900
3,017000	0,5	2,014250
3,025333	0,5	1,973050
3,033667	0,5	1,920950
3,042000	0,5	1,866400
3,050333	0,5	1,821800
3,058667	0,5	1,772850
3,067000	0,5	1,726900
3,075333	0,5	1,690200
3,083667	0,5	1,658750
3,092000	0,5	1,635050
3,100333	0,5	1,605950
3,108667	0,5	1,574100
3,117000	0,5	1,516550
3,125333	0,5	1,455400
3,133667	0,5	1,374500
3,142000	0,5	1,288400
3,150333	0,5	1,217150
3,158667	0,5	1,157150
3,167000	0,5	1,108850
3,175333	0,5	1,068650
3,183667	0,5	1,017800
3,192000	0,5	0,989500
3,200333	0,5	0,961650
3,208667	0,5	0,933500
3,217000	0,5	0,903550
3,225333	0,5	0,872200
3,233667	0,5	0,833100
3,242000	0,5	0,788550
3,250333	0,5	0,746600
3,258667	0,5	0,696900
3,267000	0,5	0,648100
3,275333	0,5	0,618600
3,283667	0,5	0,575150
3,292000	0,5	0,538300
3,300333	0,5	0,510550
3,308667	0,5	0,488650
3,317000	0,5	0,474300
3,325333	0,5	0,446350
3,333667	0,5	0,423200
3,342000	0,5	0,398950
3,350333	0,5	0,386250
3,358667	0,5	0,366100
3,367000	0,5	0,366950
3,375333	0,5	0,360250
3,383667	0,5	0,370350
3,392000	0,5	0,376450
3,400333	0,5	0,386800
3,408667	0,5	0,389050
3,417000	0,5	0,409200
3,425333	0,5	0,427450
3,433667	0,5	0,457600
3,442000	0,5	0,529150
3,450333	0,5	0,647750
3,458667	0,5	0,816500
3,467000	0,5	1,015050
3,475333	0,5	1,222400
3,483667	0,5	1,394750
3,492000	0,5	1,512100
3,500333	0,5	1,538300
3,508667	0,5	1,469850
3,517000	0,5	1,318350
3,525333	0,5	1,121300
3,533667	0,5	0,905300
3,542000	0,5	0,714900
3,550333	0,5	0,558050
3,558667	0,5	0,446350
3,567000	0,5	0,395800
3,575333	0,5	0,379050
3,583667	0,5	0,411200
3,592000	0,5	0,519050
3,600333	0,5	0,682050
3,608667	0,5	0,922750
3,617000	0,5	1,185900
3,625333	0,5	1,454550
3,633667	0,5	1,674300
3,642000	0,5	1,811600
3,650333	0,5	1,831950
3,658667	0,5	1,732950
3,667000	0,5	1,537700
3,675333	0,5	1,285900
3,683667	0,5	1,027250
3,692000	0,5	0,776300
3,700333	0,5	0,564500
3,708667	0,5	0,395700
3,717000	0,5	0,285450
3,725333	0,5	0,180850
3,733667	0,5	0,101850
3,742000	0,5	0,047350
3,750333	0,5	0,007550
3,758667	0,5	-0,020300
3,767000	0,5	-0,058900
3,775333	0,5	-0,094900
3,783667	0,5	-0,108500
3,792000	0,5	-0,133000
3,800333	0,5	-0,148750
3,808667	0,5	-0,165000
3,817000	0,5	-0,179300
3,825333	0,5	-0,189850
3,833667	0,5	-0,198700
3,842000	0,5	-0,202850
3,850333	0,5	-0,221150
3,858667	0,5	-0,224200
3,867000	0,5	-0,219650
3,875333	0,5	-0,233650
3,883667	0,5	-0,242600
3,892000	0,5	-0,239400
3,900333	0,5	-0,239450
3,908667	0,5	-0,229000
3,917000	0,5	-0,240100
3,925333	0,5	-0,241100
3,933667	0,5	-0,248250
3,942000	0,5	-0,246300
3,950333	0,5	-0,247150
3,958667	0,5	-0,247850
3,967000	0,5	-0,251800
3,975333	0,5	-0,253200
3,983667	0,5	-0,251400
3,992000	0,5	-0,251550
4,000333	0,5	-0,258900
4,008667	0,5	-0,253100
4,017000	0,5	-0,255550
4,025333	0,5	-0,261350
4,033667	0,5	-0,260300
4,042000	0,5	-0,252850
4,050333	0,5	-0,231100
4,058667	0,5	-0,218250
4,067000	0,5	-0,204900
4,075333	0,5	-0,188350
4,083667	0,5	-0,152000
4,092000	0,5	-0,118150
4,100333	0,5	-0,067100
4,108667	0,5	-0,014750
4,117000	0,5	0,049300
4,125333	0,5	0,126850
4,133667	0,5	0,218050
4,142000	0,5	0,332450
4,150333	0,5	0,472450
4,158667	0,5	0,670550
4,167000	0,5	0,931750
4,175333	0,5	1,310550
4,183667	0,5	1,847950
4,192000	0,5	2,598550
4,200333	0,5	3,566400
4,208667	0,5	4,721600
4,217000	0,5	5,965150
4,225333	0,5	7,181800
4,233667	0,5	8,190700
4,242000	0,5	8,851850
4,250333	0,5	9,060750
4,258667	0,5	8,819400
4,267000	0,5	8,184750
4,275333	0,5	7,279100
4,283667	0,5	6,234000
4,292000	0,5	5,171800
4,300333	0,5	4,175350
4,308667	0,5	3,317750
4,317000	0,5	2,580500
4,325333	0,5	1,998550
4,333667	0,5	1,541400
4,342000	0,5	1,204500
4,350333	0,5	0,949250
4,358667	0,5	0,745900
4,367000	0,5	0,592800
4,375333	0,5	0,473250
4,383667	0,5	0,387900
4,392000	0,5	0,328250
4,400333	0,5	0,291300
4,408667	0,5	0,265100
4,417000	0,5	0,256100
4,425333	0,5	0,260050
4,433667	0,5	0,271650
4,442000	0,5	0,281550
4,450333	0,5	0,303800
4,458667	0,5	0,308350
4,467000	0,5	0,292950
4,475333	0,5	0,274700
4,483667	0,5	0,245350
4,492000	0,5	0,218950
4,500333	0,5	0,177700
4,508667	0,5	0,135000
4,517000	0,5	0,093400
4,525333	0,5	0,052150
4,533667	0,5	0,018800
4,542000	0,5	-0,007500
4,550333	0,5	-0,030600
4,558667	0,5	-0,050600
4,567000	0,5	-0,067150
4,575333	0,5	-0,074300
4,583667	0,5	-0,090500
4,592000	0,5	-0,098450
4,600333	0,5	-0,097100
4,608667	0,5	-0,105350
4,617000	0,5	-0,117300
4,625333	0,5	-0,119550
4,633667	0,5	-0,124050
4,642000	0,5	-0,111850
4,650333	0,5	-0,116500
4,658667	0,5	-0,120400
4,667000	0,5	-0,127500
4,675333	0,5	-0,126650
4,683667	0,5	-0,135550
4,692000	0,5	-0,136700
4,700333	0,5	-0,140800
4,708667	0,5	-0,146650
4,717000	0,5	-0,144800
4,725333	0,5	-0,153600
4,733667	0,5	-0,155300
4,742000	0,5	-0,159500
4,750333	0,5	-0,149700
4,758667	0,5	-0,162100
4,767000	0,5	-0,167500
4,775333	0,5	-0,167100
4,783667	0,5	-0,163100
4,792000	0,5	-0,151150
4,800333	0,5	-0,155500
4,808667	0,5	-0,157550
4,817000	0,5	-0,150700
4,825333	0,5	-0,150550
4,833667	0,5	-0,149050
4,842000	0,5	-0,151350
4,850333	0,5	-0,151250
4,858667	0,5	-0,154800
4,867000	0,5	-0,153600
4,875333	0,5	-0,149300
4,883667	0,5	-0,157950
4,892000	0,5	-0,149900
4,900333	0,5	-0,145200
4,908667	0,5	-0,153950
4,917000	0,5	-0,154950
4,925333	0,5	-0,150000
4,933667	0,5	-0,139700
4,942000	0,5	-0,126100
4,950333	0,5	-0,130700
4,958667	0,5	-0,126950
4,967000	0,5	-0,125000
4,975333	0,5	-0,122000
4,983667	0,5	-0,123800
4,992000	0,5	-0,120550
5,000333	0,5	-0,120750
5,008667	0,5	-0,121250
5,017000	0,5	-0,119450
5,025333	0,5	-0,123950
5,033667	0,5	-0,132000
5,042000	0,5	-0,120250
5,050333	0,5	-0,126900
5,058667	0,5	-0,132550
5,067000	0,5	-0,132950
5,075333	0,5	-0,127500
5,083667	0,5	-0,118350
5,092000	0,5	-0,113450
5,100333	0,5	-0,116050
5,108667	0,5	-0,121500
5,117000	0,5	-0,110550
5,125333	0,5	-0,113850
5,133667	0,5	-0,112050
5,142000	0,5	-0,112500
5,150333	0,5	-0,108650
5,158667	0,5	-0,106950
5,167000	0,5	-0,108400
5,175333	0,5	-0,108800
5,183667	0,5	-0,111600
5,192000	0,5	-0,103300
5,200333	0,5	-0,107600
5,208667	0,5	-0,108550
5,217000	0,5	-0,109150
5,225333	0,5	-0,108050
5,233667	0,5	-0,095100
5,242000	0,5	-0,092000
5,250333	0,5	-0,094400
5,258667	0,5	-0,092850
5,267000	0,5	-0,091400
5,275333	0,5	-0,091250
5,283667	0,5	-0,096000
5,292000	0,5	-0,091200
5,300333	0,5	-0,092950
5,308667	0,5	-0,092650
5,317000	0,5	-0,090200
5,325333	0,5	-0,084600
5,333667	0,5	-0,088750
5,342000	0,5	-0,079500
5,350333	0,5	-0,089600
5,358667	0,5	-0,090350
5,367000	0,5	-0,086000
5,375333	0,5	-0,074350
5,383667	0,5	-0,064750
5,392000	0,5	-0,064050
5,400333	0,5	-0,067550
5,408667	0,5	-0,066050
5,417000	0,5	-0,065050
5,425333	0,5	-0,069650
5,433667	0,5	-0,069100
5,442000	0,5	-0,071250
5,450333	0,5	-0,071400
5,458667	0,5	-0,074700
5,467000	0,5	-0,074200
5,475333	0,5	-0,074050
5,483667	0,5	-0,059550
5,492000	0,5	-0,051750
5,500333	0,5	-0,045550
5,508667	0,5	-0,028150
5,517000	0,5	-0,007200
5,525333	0,5	0,018800
5,533667	0,5	0,046850
5,542000	0,5	0,061700
5,550333	0,5	0,079100
5,558667	0,5	0,085900
5,567000	0,5	0,085150
5,575333	0,5	0,079700
5,583667	0,5	0,070750
5,592000	0,5	0,057000
5,600333	0,5	0,042700
5,608667	0,5	0,027950
5,617000	0,5	0,004150
5,625333	0,5	-0,010350
5,633667	0,5	-0,019250
5,642000	0,5	-0,034900
5,650333	0,5	-0,054450
5,658667	0,5	-0,065000
5,667000	0,5	-0,070950
5,675333	0,5	-0,066650
5,683667	0,5	-0,064200
5,692000	0,5	-0,064250
5,700333	0,5	-0,070050
5,708667	0,5	-0,065000
5,717000	0,5	-0,067600
5,725333	0,5	-0,068200
5,733667	0,5	-0,070500
5,742000	0,5	-0,080100
5,750333	0,5	-0,085300
5,758667	0,5	-0,097150
5,767000	0,5	-0,110400
5,775333	0,5	-0,116650
5,783667	0,5	-0,123600
5,792000	0,5	-0,131500
5,800333	0,5	-0,142200
5,808667	0,5	-0,143350
5,817000	0,5	-0,141450
5,825333	0,5	-0,131550
5,833667	0,5	-0,129500
5,842000	0,5	-0,129750
5,850333	0,5	-0,120950
5,858667	0,5	-0,121500
5,867000	0,5	-0,114300
5,875333	0,5	-0,114500
5,883667	0,5	-0,113450
5,892000	0,5	-0,113850
5,900333	0,5	-0,113750
5,908667	0,5	-0,113400
5,917000	0,5	-0,119100
5,925333	0,5	-0,117000
5,933667	0,5	-0,120900
5,942000	0,5	-0,133750
5,950333	0,5	-0,142950
5,958667	0,5	-0,148950
5,967000	0,5	-0,150050
5,975333	0,5	-0,149400
5,983667	0,5	-0,160800
5,992000	0,5	-0,165550
6,000333	0,5	-0,168600
6,008667	0,5	-0,173850
6,017000	0,5	-0,178050
6,025333	0,5	-0,180550
6,033667	0,5	-0,186900
6,042000	0,5	-0,185650
6,050333	0,5	-0,186250
6,058667	0,5	-0,188050
6,067000	0,5	-0,196200
6,075333	0,5	-0,187350
6,083667	0,5	-0,194850
6,092000	0,5	-0,196500
6,100333	0,5	-0,195850
6,108667	0,5	-0,194200
6,117000	0,5	-0,184450
6,125333	0,5	-0,186950
6,133667	0,5	-0,188550
6,142000	0,5	-0,187750
6,150333	0,5	-0,185650
6,158667	0,5	-0,186100
6,167000	0,5	-0,183300
6,175333	0,5	-0,188500
6,183667	0,5	-0,186600
6,192000	0,5	-0,189700
6,200333	0,5	-0,186000
6,208667	0,5	-0,193150
6,217000	0,5	-0,193750
6,225333	0,5	-0,188300
6,233667	0,5	-0,191550
6,242000	0,5	-0,190850
6,250333	0,5	-0,186650
6,258667	0,5	-0,179500
6,267000	0,5	-0,166700
6,275333	0,5	-0,159300
6,283667	0,5	-0,156300
6,292000	0,5	-0,145550
6,300333	0,5	-0,134050
6,308667	0,5	-0,117550
6,317000	0,5	-0,100950
6,325333	0,5	-0,073850
6,333667	0,5	-0,044700
6,342000	0,5	-0,001050
6,350333	0,5	0,047450
6,358667	0,5	0,099050
6,367000	0,5	0,160850
6,375333	0,5	0,233000
6,383667	0,5	0,300250
6,392000	0,5	0,385100
6,400333	0,5	0,471500
6,408667	0,5	0,578000
6,417000	0,5	0,700700
6,425333	0,5	0,836300
6,433667	0,5	1,005250
6,442000	0,5	1,249100
6,450333	0,5	1,576650
6,458667	0,5	2,047500
6,467000	0,5	2,704250
6,475333	0,5	3,602100
6,483667	0,5	4,772150
6,492000	0,5	6,213350
6,500333	0,5	7,875250
6,508667	0,5	9,637700
6,517000	0,5	11,344300
6,525333	0,5	12,785550
6,533667	0,5	13,772800
6,542000	0,5	14,192200
6,550333	0,5	13,997650
6,558667	0,5	13,219500
6,567000	0,5	11,985550
6,575333	0,5	10,439700
6,583667	0,5	8,774500
6,592000	0,5	7,132450
6,600333	0,5	5,641350
6,608667	0,5	4,362000
6,617000	0,5	3,319250
6,625333	0,5	2,508400
6,633667	0,5	1,899150
6,642000	0,5	1,459650
6,650333	0,5	1,138300
6,658667	0,5	0,912900
6,667000	0,5	0,762650
6,675333	0,5	0,646500
6,683667	0,5	0,558200
6,692000	0,5	0,499500
6,700333	0,5	0,452600
6,708667	0,5	0,421150
6,717000	0,5	0,393700
6,725333	0,5	0,370150
6,733667	0,5	0,347150
6,742000	0,5	0,326850
6,750333	0,5	0,309750
6,758667	0,5	0,294850
6,767000	0,5	0,276450
6,775333	0,5	0,267000
6,783667	0,5	0,255200
6,792000	0,5	0,243400
6,800333	0,5	0,231850
6,808667	0,5	0,225150
6,817000	0,5	0,214400
6,825333	0,5	0,202500
6,833667	0,5	0,195250
6,842000	0,5	0,190400
6,850333	0,5	0,193750
6,858667	0,5	0,195150
6,867000	0,5	0,190300
6,875333	0,5	0,182600
6,883667	0,5	0,181300
6,892000	0,5	0,178200
6,900333	0,5	0,177150
6,908667	0,5	0,170950
6,917000	0,5	0,171400
6,925333	0,5	0,165050
6,933667	0,5	0,165450
6,942000	0,5	0,158950
6,950333	0,5	0,156250
6,958667	0,5	0,159150
6,967000	0,5	0,160100
6,975333	0,5	0,152200
6,983667	0,5	0,153300
6,992000	0,5	0,154550
7,000333	0,5	0,160200
7,008667	0,5	0,164800
7,017000	0,5	0,160950
7,025333	0,5	0,163200
7,033667	0,5	0,165000
7,042000	0,5	0,165750
7,050333	0,5	0,165300
7,058667	0,5	0,166500
7,067000	0,5	0,166600
7,075333	0,5	0,167150
7,083667	0,5	0,166700
7,092000	0,5	0,163750
7,100333	0,5	0,157900
7,108667	0,5	0,170150
7,117000	0,5	0,164650
7,125333	0,5	0,162150
7,133667	0,5	0,164850
7,142000	0,5	0,167950
7,150333	0,5	0,178800
7,158667	0,5	0,176950
7,167000	0,5	0,178800
7,175333	0,5	0,181150
7,183667	0,5	0,182600
7,192000	0,5	0,184750
7,200333	0,5	0,185900
7,208667	0,5	0,184650
7,217000	0,5	0,186000
7,225333	0,5	0,185700
7,233667	0,5	0,187550
7,242000	0,5	0,179200
7,250333	0,5	0,179150
7,258667	0,5	0,187550
7,267000	0,5	0,185150
7,275333	0,5	0,186100
7,283667	0,5	0,190650
7,292000	0,5	0,195650
7,300333	0,5	0,209100
7,308667	0,5	0,211250
7,317000	0,5	0,212750
7,325333	0,5	0,217250
7,333667	0,5	0,221750
7,342000	0,5	0,221600
7,350333	0,5	0,219450
7,358667	0,5	0,218350
7,367000	0,5	0,215450
7,375333	0,5	0,216300
7,383667	0,5	0,211950
7,392000	0,5	0,209750
7,400333	0,5	0,206100
7,408667	0,5	0,212300
7,417000	0,5	0,207550
7,425333	0,5	0,206400
7,433667	0,5	0,207400
7,442000	0,5	0,214650
7,450333	0,5	0,221850
7,458667	0,5	0,225850
7,467000	0,5	0,226700
7,475333	0,5	0,230300
7,483667	0,5	0,227150
7,492000	0,5	0,232100
7,500333	0,5	0,232900
7,508667	0,5	0,233650
7,517000	0,5	0,234800
7,525333	0,5	0,238650
7,533667	0,5	0,237500
7,542000	0,5	0,238950
7,550333	0,5	0,242800
7,558667	0,5	0,247000
7,567000	0,5	0,247300
7,575333	0,5	0,252100
7,583667	0,5	0,256750
7,592000	0,5	0,267050
7,600333	0,5	0,274750
7,608667	0,5	0,278000
7,617000	0,5	0,285250
7,625333	0,5	0,291050
7,633667	0,5	0,297600
7,642000	0,5	0,301200
7,650333	0,5	0,306600
7,658667	0,5	0,307650
7,667000	0,5	0,309400
7,675333	0,5	0,315450
7,683667	0,5	0,310900
7,692000	0,5	0,313250
7,700333	0,5	0,315400
7,708667	0,5	0,316000
7,717000	0,5	0,315050
7,725333	0,5	0,313300
7,733667	0,5	0,317800
7,742000	0,5	0,326850
7,750333	0,5	0,333700
7,758667	0,5	0,341750
7,767000	0,5	0,346850
7,775333	0,5	0,353900
7,783667	0,5	0,357500
7,792000	0,5	0,365400
7,800333	0,5	0,368400
7,808667	0,5	0,370500
7,817000	0,5	0,373050
7,825333	0,5	0,370050
7,833667	0,5	0,364950
7,842000	0,5	0,366050
7,850333	0,5	0,363600
7,858667	0,5	0,360550
7,867000	0,5	0,359100
7,875333	0,5	0,355800
7,883667	0,5	0,365050
7,892000	0,5	0,368950
7,900333	0,5	0,374500
7,908667	0,5	0,376500
7,917000	0,5	0,378900
7,925333	0,5	0,383150
7,933667	0,5	0,387550
7,942000	0,5	0,389000
7,950333	0,5	0,387700
7,958667	0,5	0,392500
7,967000	0,5	0,395600
7,975333	0,5	0,397200
7,983667	0,5	0,400600
7,992000	0,5	0,404500
8,000333	0,5	0,404400
8,008667	0,5	0,404050
8,017000	0,5	0,408000
8,025333	0,5	0,411050
8,033667	0,5	0,416750
8,042000	0,5	0,423750
8,050333	0,5	0,425400
8,058667	0,5	0,428400
8,067000	0,5	0,432050
8,075333	0,5	0,432100
8,083667	0,5	0,432950
8,092000	0,5	0,435700
8,100333	0,5	0,436600
8,108667	0,5	0,436350
8,117000	0,5	0,437500
8,125333	0,5	0,442600
8,133667	0,5	0,444400
8,142000	0,5	0,452750
8,150333	0,5	0,455200
8,158667	0,5	0,459200
8,167000	0,5	0,466950
8,175333	0,5	0,476800
8,183667	0,5	0,485700
8,192000	0,5	0,492700
8,200333	0,5	0,494950
8,208667	0,5	0,497300
8,217000	0,5	0,495300
8,225333	0,5	0,493800
8,233667	0,5	0,495100
8,242000	0,5	0,495800
8,250333	0,5	0,500150
8,258667	0,5	0,515500
8,267000	0,5	0,542050
8,275333	0,5	0,580500
8,283667	0,5	0,641450
8,292000	0,5	0,724500
8,300333	0,5	0,822900
8,308667	0,5	0,940200
8,317000	0,5	1,076150
8,325333	0,5	1,233300
8,333667	0,5	1,408100
8,342000	0,5	1,611600
8,350333	0,5	1,871000
8,358667	0,5	2,239650
8,367000	0,5	2,814100
8,375333	0,5	3,725100
8,383667	0,5	5,149250
8,392000	0,5	7,227050
8,400333	0,5	9,987600
8,408667	0,5	13,257750
8,417000	0,5	16,600250
8,425333	0,5	19,406550
8,433667	0,5	21,111800
8,442000	0,5	21,348200
8,450333	0,5	20,097550
8,458667	0,5	17,699100
8,467000	0,5	14,661500
8,475333	0,5	11,516800
8,483667	0,5	8,662000
8,492000	0,5	6,319300
8,500333	0,5	4,549350
8,508667	0,5	3,294600
8,517000	0,5	2,447300
8,525333	0,5	1,890350
8,533667	0,5	1,535200
8,542000	0,5	1,303050
8,550333	0,5	1,152600
8,558667	0,5	1,055450
8,567000	0,5	0,986100
8,575333	0,5	0,985900
8,583667	0,5	0,896850
8,592000	0,5	0,865900
8,600333	0,5	0,839300
8,608667	0,5	0,821100
8,617000	0,5	0,800800
8,625333	0,5	0,784450
8,633667	0,5	0,775700
8,642000	0,5	0,760700
8,650333	0,5	0,751050
8,658667	0,5	0,742150
8,667000	0,5	0,734600
8,675333	0,5	0,722850
8,683667	0,5	0,718750
8,692000	0,5	0,709900
8,700333	0,5	0,706800
8,708667	0,5	0,701050
8,717000	0,5	0,694250
8,725333	0,5	0,688300
8,733667	0,5	0,685850
8,742000	0,5	0,681800
8,750333	0,5	0,676300
8,758667	0,5	0,672650
8,767000	0,5	0,667550
8,775333	0,5	0,668100
8,783667	0,5	0,666700
8,792000	0,5	0,665400
8,800333	0,5	0,666200
8,808667	0,5	0,663550
8,817000	0,5	0,659950
8,825333	0,5	0,658200
8,833667	0,5	0,654450
8,842000	0,5	0,653350
8,850333	0,5	0,649100
8,858667	0,5	0,646450
8,867000	0,5	0,640250
8,875333	0,5	0,640200
8,883667	0,5	0,639400
8,892000	0,5	0,634450
8,900333	0,5	0,632450
8,908667	0,5	0,631000
8,917000	0,5	0,634700
8,925333	0,5	0,635100
8,933667	0,5	0,636400
8,942000	0,5	0,637200
8,950333	0,5	0,635950
8,958667	0,5	0,639000
8,967000	0,5	0,638700
8,975333	0,5	0,637950
8,983667	0,5	0,640800
8,992000	0,5	0,639750
9,000333	0,5	0,640000
9,008667	0,5	0,637000
9,017000	0,5	0,635850
9,025333	0,5	0,635200
9,033667	0,5	0,634950
9,042000	0,5	0,633200
9,050333	0,5	0,632950
9,058667	0,5	0,632400
9,067000	0,5	0,632650
9,075333	0,5	0,633600
9,083667	0,5	0,638950
9,092000	0,5	0,639300
9,100333	0,5	0,641500
9,108667	0,5	0,639350
9,117000	0,5	0,640150
9,125333	0,5	0,642750
9,133667	0,5	0,643500
9,142000	0,5	0,643750
9,150333	0,5	0,643500
9,158667	0,5	0,644050
9,167000	0,5	0,646900
9,175333	0,5	0,647000
9,183667	0,5	0,649500
9,192000	0,5	0,649350
9,200333	0,5	0,646650
9,208667	0,5	0,645800
9,217000	0,5	0,653000
9,225333	0,5	0,651900
9,233667	0,5	0,653650
9,242000	0,5	0,651800
9,250333	0,5	0,653800
9,258667	0,5	0,653250
9,267000	0,5	0,659900
9,275333	0,5	0,656900
9,283667	0,5	0,659600
9,292000	0,5	0,661300
9,300333	0,5	0,657700
9,308667	0,5	0,657600
9,317000	0,5	0,657100
9,325333	0,5	0,656550
9,333667	0,5	0,660500
9,342000	0,5	0,658150
9,350333	0,5	0,660250
9,358667	0,5	0,657700
9,367000	0,5	0,661100
9,375333	0,5	0,664100
9,383667	0,5	0,663300
9,392000	0,5	0,663250
9,400333	0,5	0,665200
9,408667	0,5	0,664350
9,417000	0,5	0,666550
9,425333	0,5	0,666200
9,433667	0,5	0,663500
9,442000	0,5	0,665550
9,450333	0,5	0,666500
9,458667	0,5	0,662750
9,467000	0,5	0,662550
9,475333	0,5	0,660750
9,483667	0,5	0,662150
9,492000	0,5	0,663650
9,500333	0,5	0,662300
9,508667	0,5	0,662150
9,517000	0,5	0,662250
9,525333	0,5	0,667350
9,533667	0,5	0,666750
9,542000	0,5	0,665550
9,550333	0,5	0,664150
9,558667	0,5	0,662750
9,567000	0,5	0,663400
9,575333	0,5	0,661200
9,583667	0,5	0,662100
9,592000	0,5	0,656400
9,600333	0,5	0,657100
9,608667	0,5	0,653550
9,617000	0,5	0,653150
9,625333	0,5	0,654050
9,633667	0,5	0,651300
9,642000	0,5	0,650800
9,650333	0,5	0,647400
9,658667	0,5	0,649300
9,667000	0,5	0,651400
9,675333	0,5	0,653750
9,683667	0,5	0,653800
9,692000	0,5	0,652150
9,700333	0,5	0,651800
9,708667	0,5	0,652800
9,717000	0,5	0,649500
9,725333	0,5	0,650700
9,733667	0,5	0,650000
9,742000	0,5	0,649700
9,750333	0,5	0,650000
9,758667	0,5	0,652700
9,767000	0,5	0,652550
9,775333	0,5	0,657150
9,783667	0,5	0,662700
9,792000	0,5	0,669900
9,800333	0,5	0,677700
9,808667	0,5	0,683000
9,817000	0,5	0,691250
9,825333	0,5	0,696000
9,833667	0,5	0,698700
9,842000	0,5	0,698250
9,850333	0,5	0,696200
9,858667	0,5	0,691650
9,867000	0,5	0,688950
9,875333	0,5	0,682550
9,883667	0,5	0,684000
9,892000	0,5	0,679150
9,900333	0,5	0,673650
9,908667	0,5	0,667700
9,917000	0,5	0,663850
9,925333	0,5	0,657750
9,933667	0,5	0,652600
9,942000	0,5	0,646550
9,950333	0,5	0,640850
9,958667	0,5	0,639300
9,967000	0,5	0,642100
9,975333	0,5	0,639650
9,983667	0,5	0,640100
9,992000	0,5	0,638350
10,000333	0,5	0,637500
10,008667	0,5	0,637950
10,017000	0,5	0,637500
10,025333	0,5	0,635400
10,033667	0,5	0,633550
10,042000	0,5	0,633000
10,050333	0,5	0,628350
10,058667	0,5	0,630600
10,067000	0,5	0,629500
10,075333	0,5	0,630150
10,083667	0,5	0,631200
10,092000	0,5	0,627350
10,100333	0,5	0,630550
10,108667	0,5	0,637050
10,117000	0,5	0,636300
10,125333	0,5	0,637700
10,133667	0,5	0,639700
10,142000	0,5	0,644700
10,150333	0,5	0,640950
10,158667	0,5	0,640050
10,167000	0,5	0,640750
10,175333	0,5	0,636300
10,183667	0,5	0,635850
10,192000	0,5	0,633500
10,200333	0,5	0,631600
10,208667	0,5	0,634200
10,217000	0,5	0,637050
10,225333	0,5	0,636700
10,233667	0,5	0,638100
10,242000	0,5	0,636700
10,250333	0,5	0,642350
10,258667	0,5	0,647200
10,267000	0,5	0,650150
10,275333	0,5	0,650400
10,283667	0,5	0,649100
10,292000	0,5	0,654250
10,300333	0,5	0,649750
10,308667	0,5	0,650250
10,317000	0,5	0,644500
10,325333	0,5	0,644100
10,333667	0,5	0,638500
10,342000	0,5	0,635650
10,350333	0,5	0,633350
10,358667	0,5	0,632700
10,367000	0,5	0,631300
10,375333	0,5	0,627000
10,383667	0,5	0,623300
10,392000	0,5	0,618700
10,400333	0,5	0,612100
10,408667	0,5	0,611300
10,417000	0,5	0,609450
10,425333	0,5	0,602150
10,433667	0,5	0,595750
10,442000	0,5	0,591600
10,450333	0,5	0,588150
10,458667	0,5	0,583750
10,467000	0,5	0,578350
10,475333	0,5	0,576800
10,483667	0,5	0,573900
10,492000	0,5	0,573200
10,500333	0,5	0,568750
10,508667	0,5	0,569200
10,517000	0,5	0,569050
10,525333	0,5	0,563650
10,533667	0,5	0,561050
10,542000	0,5	0,557000
10,550333	0,5	0,558750
10,558667	0,5	0,555900
10,567000	0,5	0,557300
10,575333	0,5	0,554900
10,583667	0,5	0,556900
10,592000	0,5	0,558150
10,600333	0,5	0,559550
10,608667	0,5	0,559800
10,617000	0,5	0,560750
10,625333	0,5	0,563650
10,633667	0,5	0,567000
10,642000	0,5	0,566050
10,650333	0,5	0,564900
10,658667	0,5	0,565000
10,667000	0,5	0,563000
10,675333	0,5	0,560000
10,683667	0,5	0,556200
10,692000	0,5	0,553750
10,700333	0,5	0,552650
10,708667	0,5	0,556400
10,717000	0,5	0,551450
10,725333	0,5	0,550300
10,733667	0,5	0,550000
10,742000	0,5	0,550000
10,750333	0,5	0,548050
10,758667	0,5	0,544050
10,767000	0,5	0,544500
10,775333	0,5	0,542850
10,783667	0,5	0,542400
10,792000	0,5	0,542150
10,800333	0,5	0,539550
10,808667	0,5	0,541000
10,817000	0,5	0,536400
10,825333	0,5	0,535700
10,833667	0,5	0,532950
10,842000	0,5	0,527900
10,850333	0,5	0,533000
10,858667	0,5	0,531650
10,867000	0,5	0,529550
10,875333	0,5	0,530950
10,883667	0,5	0,530050
10,892000	0,5	0,532050
10,900333	0,5	0,529450
10,908667	0,5	0,530500
10,917000	0,5	0,528350
10,925333	0,5	0,528450
10,933667	0,5	0,527750
10,942000	0,5	0,523000
10,950333	0,5	0,526800
10,958667	0,5	0,526100
10,967000	0,5	0,526350
10,975333	0,5	0,521500
10,983667	0,5	0,521950
10,992000	0,5	0,522600
11,000333	0,5	0,526400
11,008667	0,5	0,528750
11,017000	0,5	0,529750
11,025333	0,5	0,532700
11,033667	0,5	0,532650
11,042000	0,5	0,537150
11,050333	0,5	0,538900
11,058667	0,5	0,548350
11,067000	0,5	0,553950
11,075333	0,5	0,563600
11,083667	0,5	0,566150
11,092000	0,5	0,570600
11,100333	0,5	0,573500
11,108667	0,5	0,576500
11,117000	0,5	0,574350
11,125333	0,5	0,569050
11,133667	0,5	0,561800
11,142000	0,5	0,558350
11,150333	0,5	0,552900
11,158667	0,5	0,549250
11,167000	0,5	0,547400
11,175333	0,5	0,544000
11,183667	0,5	0,538600
11,192000	0,5	0,538600
11,200333	0,5	0,537850
11,208667	0,5	0,536950
11,217000	0,5	0,539600
11,225333	0,5	0,539900
11,233667	0,5	0,535650
11,242000	0,5	0,538500
11,250333	0,5	0,539100
11,258667	0,5	0,539600
11,267000	0,5	0,537100
11,275333	0,5	0,535600
11,283667	0,5	0,546950
11,292000	0,5	0,552800
11,300333	0,5	0,561300
11,308667	0,5	0,568650
11,317000	0,5	0,573400
11,325333	0,5	0,578400
11,333667	0,5	0,586000
11,342000	0,5	0,585800
11,350333	0,5	0,588800
11,358667	0,5	0,587750
11,367000	0,5	0,587300
11,375333	0,5	0,588000
11,383667	0,5	0,583050
11,392000	0,5	0,583950
11,400333	0,5	0,581850
11,408667	0,5	0,580250
11,417000	0,5	0,572950
11,425333	0,5	0,564800
11,433667	0,5	0,564450
11,442000	0,5	0,561250
11,450333	0,5	0,552900
11,458667	0,5	0,547250
11,467000	0,5	0,536350
11,475333	0,5	0,531850
11,483667	0,5	0,522050
11,492000	0,5	0,515550
11,500333	0,5	0,506400
11,508667	0,5	0,497350
11,517000	0,5	0,493750
11,525333	0,5	0,486500
11,533667	0,5	0,472900
11,542000	0,5	0,472750
11,550333	0,5	0,467800
11,558667	0,5	0,460450
11,567000	0,5	0,449900
11,575333	0,5	0,441100
11,583667	0,5	0,445550
11,592000	0,5	0,444400
11,600333	0,5	0,439500
11,608667	0,5	0,435600
11,617000	0,5	0,432300
11,625333	0,5	0,430450
11,633667	0,5	0,429150
11,642000	0,5	0,427200
11,650333	0,5	0,427550
11,658667	0,5	0,424950
11,667000	0,5	0,423300
11,675333	0,5	0,422800
11,683667	0,5	0,415450
11,692000	0,5	0,418300
11,700333	0,5	0,413450
11,708667	0,5	0,412000
11,717000	0,5	0,404650
11,725333	0,5	0,408300
11,733667	0,5	0,409700
11,742000	0,5	0,410150
11,750333	0,5	0,411050
11,758667	0,5	0,411950
11,767000	0,5	0,410450
11,775333	0,5	0,411900
11,783667	0,5	0,411700
11,792000	0,5	0,412150
11,800333	0,5	0,412050
11,808667	0,5	0,411800
11,817000	0,5	0,413300
11,825333	0,5	0,407500
11,833667	0,5	0,408200
11,842000	0,5	0,407900
11,850333	0,5	0,407350
11,858667	0,5	0,405300
11,867000	0,5	0,402450
11,875333	0,5	0,403900
11,883667	0,5	0,406600
11,892000	0,5	0,408450
11,900333	0,5	0,408500
11,908667	0,5	0,412600
11,917000	0,5	0,412000
11,925333	0,5	0,411550
11,933667	0,5	0,412550
11,942000	0,5	0,414800
11,950333	0,5	0,412700
11,958667	0,5	0,414500
11,967000	0,5	0,413800
11,975333	0,5	0,405650
11,983667	0,5	0,410800
11,992000	0,5	0,408750
12,000333	0,5	0,409600
12,008667	0,5	0,400900
12,017000	0,5	0,402350
12,025333	0,5	0,405100
12,033667	0,5	0,410300
12,042000	0,5	0,406950
12,050333	0,5	0,409400
12,058667	0,5	0,411750
12,067000	0,5	0,414500
12,075333	0,5	0,413950
12,083667	0,5	0,417650
12,092000	0,5	0,422150
12,100333	0,5	0,427750
12,108667	0,5	0,432850
12,117000	0,5	0,436750
12,125333	0,5	0,441550
12,133667	0,5	0,453500
12,142000	0,5	0,458900
12,150333	0,5	0,461850
12,158667	0,5	0,461400
12,167000	0,5	0,462700
12,175333	0,5	0,465400
12,183667	0,5	0,461900
12,192000	0,5	0,464400
12,200333	0,5	0,459900
12,208667	0,5	0,458200
12,217000	0,5	0,453450
12,225333	0,5	0,452650
12,233667	0,5	0,449950
12,242000	0,5	0,445700
12,250333	0,5	0,447250
12,258667	0,5	0,446700
12,267000	0,5	0,440200
12,275333	0,5	0,441450
12,283667	0,5	0,440550
12,292000	0,5	0,437600
12,300333	0,5	0,439200
12,308667	0,5	0,431800
12,317000	0,5	0,436450
12,325333	0,5	0,432350
12,333667	0,5	0,440650
12,342000	0,5	0,439400
12,350333	0,5	0,443900
12,358667	0,5	0,444400
12,367000	0,5	0,446550
12,375333	0,5	0,446250
12,383667	0,5	0,450150
12,392000	0,5	0,454000
12,400333	0,5	0,459050
12,408667	0,5	0,461100
12,417000	0,5	0,462850
12,425333	0,5	0,469350
12,433667	0,5	0,471750
12,442000	0,5	0,475300
12,450333	0,5	0,475350
12,458667	0,5	0,477950
12,467000	0,5	0,485000
12,475333	0,5	0,489300
12,483667	0,5	0,490650
12,492000	0,5	0,495700
12,500333	0,5	0,497650
12,508667	0,5	0,504850
12,517000	0,5	0,506400
12,525333	0,5	0,508650
12,533667	0,5	0,505600
12,542000	0,5	0,505000
12,550333	0,5	0,504400
12,558667	0,5	0,501450
12,567000	0,5	0,496450
12,575333	0,5	0,499050
12,583667	0,5	0,495200
12,592000	0,5	0,493250
12,600333	0,5	0,483000
12,608667	0,5	0,481250
12,617000	0,5	0,482950
12,625333	0,5	0,477050
12,633667	0,5	0,478100
12,642000	0,5	0,474500
12,650333	0,5	0,474550
12,658667	0,5	0,472250
12,667000	0,5	0,472750
12,675333	0,5	0,464600
12,683667	0,5	0,462600
12,692000	0,5	0,458400
12,700333	0,5	0,461050
12,708667	0,5	0,451050
12,717000	0,5	0,455350
12,725333	0,5	0,451850
12,733667	0,5	0,452300
12,742000	0,5	0,445850
12,750333	0,5	0,443000
12,758667	0,5	0,445000
12,767000	0,5	0,446550
12,775333	0,5	0,442400
12,783667	0,5	0,445200
12,792000	0,5	0,448100
12,800333	0,5	0,451600
12,808667	0,5	0,451900
12,817000	0,5	0,453100
12,825333	0,5	0,456200
12,833667	0,5	0,454350
12,842000	0,5	0,456550
12,850333	0,5	0,453350
12,858667	0,5	0,448150
12,867000	0,5	0,452100
12,875333	0,5	0,448750
12,883667	0,5	0,444650
12,892000	0,5	0,443150
12,900333	0,5	0,435400
12,908667	0,5	0,443750
12,917000	0,5	0,445150
12,925333	0,5	0,445600
12,933667	0,5	0,447700
12,942000	0,5	0,448200
12,950333	0,5	0,442950
12,958667	0,5	0,448100
12,967000	0,5	0,447400
12,975333	0,5	0,445700
12,983667	0,5	0,445800
12,992000	0,5	0,445950
13,000333	0,5	0,447100
13,008667	0,5	0,441000
13,017000	0,5	0,448350
13,025333	0,5	0,444750
13,033667	0,5	0,445000
13,042000	0,5	0,439550
13,050333	0,5	0,435700
13,058667	0,5	0,437200
13,067000	0,5	0,443550
13,075333	0,5	0,442650
13,083667	0,5	0,449100
13,092000	0,5	0,446150
13,100333	0,5	0,446800
13,108667	0,5	0,449100
13,117000	0,5	0,449000
13,125333	0,5	0,449000
13,133667	0,5	0,446100
13,142000	0,5	0,448750
13,150333	0,5	0,443900
13,158667	0,5	0,447500
13,167000	0,5	0,447350
13,175333	0,5	0,443600
13,183667	0,5	0,438650
13,192000	0,5	0,439700
13,200333	0,5	0,438950
13,208667	0,5	0,442700
13,217000	0,5	0,443100
13,225333	0,5	0,448200
13,233667	0,5	0,446700
13,242000	0,5	0,453050
13,250333	0,5	0,451200
13,258667	0,5	0,452550
13,267000	0,5	0,454550
13,275333	0,5	0,455000
13,283667	0,5	0,455650
13,292000	0,5	0,455100
13,300333	0,5	0,452450
13,308667	0,5	0,456350
13,317000	0,5	0,456800
13,325333	0,5	0,452250
13,333667	0,5	0,451600
13,342000	0,5	0,445050
13,350333	0,5	0,451550
13,358667	0,5	0,450250
13,367000	0,5	0,453850
13,375333	0,5	0,460000
13,383667	0,5	0,461650
13,392000	0,5	0,459100
13,400333	0,5	0,464450
13,408667	0,5	0,463600
13,417000	0,5	0,466000
13,425333	0,5	0,460550
13,433667	0,5	0,464950
13,442000	0,5	0,459750
13,450333	0,5	0,461300
13,458667	0,5	0,459850
13,467000	0,5	0,463100
13,475333	0,5	0,459300
13,483667	0,5	0,451450
13,492000	0,5	0,450650
13,500333	0,5	0,453800
13,508667	0,5	0,455550
13,517000	0,5	0,457950
13,525333	0,5	0,458200
13,533667	0,5	0,456500
13,542000	0,5	0,457300
13,550333	0,5	0,456150
13,558667	0,5	0,457600
13,567000	0,5	0,454350
13,575333	0,5	0,454450
13,583667	0,5	0,453350
13,592000	0,5	0,446200
13,600333	0,5	0,448100
13,608667	0,5	0,452000
13,617000	0,5	0,451050
13,625333	0,5	0,450200
13,633667	0,5	0,443350
13,642000	0,5	0,446400
13,650333	0,5	0,453450
13,658667	0,5	0,449250
13,667000	0,5	0,452200
13,675333	0,5	0,453250
13,683667	0,5	0,454800
13,692000	0,5	0,454250
13,700333	0,5	0,459700
13,708667	0,5	0,457550
13,717000	0,5	0,459750
13,725333	0,5	0,458800
13,733667	0,5	0,465800
13,742000	0,5	0,452950
13,750333	0,5	0,465000
13,758667	0,5	0,463900
13,767000	0,5	0,463750
13,775333	0,5	0,464550
13,783667	0,5	0,454250
13,792000	0,5	0,465950
13,800333	0,5	0,470900
13,808667	0,5	0,475000
13,817000	0,5	0,476350
13,825333	0,5	0,479900
13,833667	0,5	0,478050
13,842000	0,5	0,480550
13,850333	0,5	0,477950
13,858667	0,5	0,476550
13,867000	0,5	0,475650
13,875333	0,5	0,478750
13,883667	0,5	0,472850
13,892000	0,5	0,467250
13,900333	0,5	0,472300
13,908667	0,5	0,470550
13,917000	0,5	0,465050
13,925333	0,5	0,466700
13,933667	0,5	0,456950
13,942000	0,5	0,463300
13,950333	0,5	0,466150
13,958667	0,5	0,466350
13,967000	0,5	0,467650
13,975333	0,5	0,471150
13,983667	0,5	0,469200
13,992000	0,5	0,466400
14,000333	0,5	0,468400
14,008667	0,5	0,467950
14,017000	0,5	0,469000
14,025333	0,5	0,474100
14,033667	0,5	0,469450
14,042000	0,5	0,470150
14,050333	0,5	0,476850
14,058667	0,5	0,472300
14,067000	0,5	0,471650
14,075333	0,5	0,465800
14,083667	0,5	0,466000
14,092000	0,5	0,465650
14,100333	0,5	0,472100
14,108667	0,5	0,470950
14,117000	0,5	0,476000
14,125333	0,5	0,475150
14,133667	0,5	0,478100
14,142000	0,5	0,477150
14,150333	0,5	0,481400
14,158667	0,5	0,482200
14,167000	0,5	0,482800
14,175333	0,5	0,482300
14,183667	0,5	0,478250
14,192000	0,5	0,476250
14,200333	0,5	0,478950
14,208667	0,5	0,476300
14,217000	0,5	0,467650
14,225333	0,5	0,463100
14,233667	0,5	0,461000
14,242000	0,5	0,465350
14,250333	0,5	0,464850
14,258667	0,5	0,468950
14,267000	0,5	0,468200
14,275333	0,5	0,474600
14,283667	0,5	0,475150
14,292000	0,5	0,475500
14,300333	0,5	0,476800
14,308667	0,5	0,478100
14,317000	0,5	0,483150
14,325333	0,5	0,479350
14,333667	0,5	0,476500
14,342000	0,5	0,478400
14,350333	0,5	0,473750
14,358667	0,5	0,471000
14,367000	0,5	0,463200
14,375333	0,5	0,454850
14,383667	0,5	0,460300
14,392000	0,5	0,456950
14,400333	0,5	0,459700
14,408667	0,5	0,461050
14,417000	0,5	0,466150
14,425333	0,5	0,464850
14,433667	0,5	0,467400
14,442000	0,5	0,466550
14,450333	0,5	0,467000
14,458667	0,5	0,469950
14,467000	0,5	0,468300
14,475333	0,5	0,458750
14,483667	0,5	0,464850
14,492000	0,5	0,465100
14,500333	0,5	0,464300
14,508667	0,5	0,459850
14,517000	0,5	0,450450
14,525333	0,5	0,458850
14,533667	0,5	0,458600
14,542000	0,5	0,459650
14,550333	0,5	0,459350
14,558667	0,5	0,459050
14,567000	0,5	0,458650
14,575333	0,5	0,459700
14,583667	0,5	0,456300
14,592000	0,5	0,456000
14,600333	0,5	0,453950
14,608667	0,5	0,454900
14,617000	0,5	0,453900
14,625333	0,5	0,446950
14,633667	0,5	0,455150
14,642000	0,5	0,458300
14,650333	0,5	0,454850
14,658667	0,5	0,454950
14,667000	0,5	0,446250
14,675333	0,5	0,451850
14,683667	0,5	0,453550
14,692000	0,5	0,451300
14,700333	0,5	0,453200
14,708667	0,5	0,454400
14,717000	0,5	0,459200
14,725333	0,5	0,460350
14,733667	0,5	0,465450
14,742000	0,5	0,462750
14,750333	0,5	0,466050
14,758667	0,5	0,470900
14,767000	0,5	0,473350
14,775333	0,5	0,471550
14,783667	0,5	0,486300
14,792000	0,5	0,487400
14,800333	0,5	0,485150
14,808667	0,5	0,483800
14,817000	0,5	0,475250
14,825333	0,5	0,483650
14,833667	0,5	0,483050
14,842000	0,5	0,477050
14,850333	0,5	0,475000
14,858667	0,5	0,475600
14,867000	0,5	0,469650
14,875333	0,5	0,470650
14,883667	0,5	0,468150
14,892000	0,5	0,472400
14,900333	0,5	0,468250
14,908667	0,5	0,478700
14,917000	0,5	0,473450
14,925333	0,5	0,478100
14,933667	0,5	0,482550
14,942000	0,5	0,485150
14,950333	0,5	0,480500
14,958667	0,5	0,477050
14,967000	0,5	0,473100
14,975333	0,5	0,475900
14,983667	0,5	0,469850
14,992000	0,5	0,470600
15,000333	0,5	0,464800
15,008667	0,5	0,464850
15,017000	0,5	0,463900
15,025333	0,5	0,464650
15,033667	0,5	0,463250
15,042000	0,5	0,459400
15,050333	0,5	0,468450
15,058667	0,5	0,465050
15,067000	0,5	0,460400
15,075333	0,5	0,463050
15,083667	0,5	0,466150
15,092000	0,5	0,462950
15,100333	0,5	0,452900
15,108667	0,5	0,444450
15,117000	0,5	0,449050
15,125333	0,5	0,449200
15,133667	0,5	0,457250
15,142000	0,5	0,454050
15,150333	0,5	0,461800
15,158667	0,5	0,458900
15,167000	0,5	0,458900
15,175333	0,5	0,460200
15,183667	0,5	0,456200
15,192000	0,5	0,459500
15,200333	0,5	0,459750
15,208667	0,5	0,457800
15,217000	0,5	0,452900
15,225333	0,5	0,457650
15,233667	0,5	0,457450
15,242000	0,5	0,457900
15,250333	0,5	0,447800
15,258667	0,5	0,447600
15,267000	0,5	0,446000
15,275333	0,5	0,453950
15,283667	0,5	0,451750
15,292000	0,5	0,457050
15,300333	0,5	0,455400
15,308667	0,5	0,455400
15,317000	0,5	0,460150
15,325333	0,5	0,458150
15,333667	0,5	0,461850
15,342000	0,5	0,463000
15,350333	0,5	0,467100
15,358667	0,5	0,464300
15,367000	0,5	0,468150
15,375333	0,5	0,477900
15,383667	0,5	0,483150
15,392000	0,5	0,482800
15,400333	0,5	0,478550
15,408667	0,5	0,479950
15,417000	0,5	0,491550
15,425333	0,5	0,485550
15,433667	0,5	0,488550
15,442000	0,5	0,488950
15,450333	0,5	0,490350
15,458667	0,5	0,488800
15,467000	0,5	0,486800
15,475333	0,5	0,484700
15,483667	0,5	0,484600
15,492000	0,5	0,486000
15,500333	0,5	0,484850
15,508667	0,5	0,472050
15,517000	0,5	0,481900
15,525333	0,5	0,482200
15,533667	0,5	0,479000
15,542000	0,5	0,473450
15,550333	0,5	0,462750
15,558667	0,5	0,473450
15,567000	0,5	0,471750
15,575333	0,5	0,479250
15,583667	0,5	0,474950
15,592000	0,5	0,480300
15,600333	0,5	0,478900
15,608667	0,5	0,482150
15,617000	0,5	0,483550
15,625333	0,5	0,486350
15,633667	0,5	0,488950
15,642000	0,5	0,493950
15,650333	0,5	0,488750
15,658667	0,5	0,488800
15,667000	0,5	0,492600
15,675333	0,5	0,495050
15,683667	0,5	0,491950
15,692000	0,5	0,487750
15,700333	0,5	0,483750
15,708667	0,5	0,491350
15,717000	0,5	0,495450
15,725333	0,5	0,496750
15,733667	0,5	0,501550
15,742000	0,5	0,499550
15,750333	0,5	0,505950
15,758667	0,5	0,507050
15,767000	0,5	0,516600
15,775333	0,5	0,513950
15,783667	0,5	0,517050
15,792000	0,5	0,524200
15,800333	0,5	0,515550
15,808667	0,5	0,515650
15,817000	0,5	0,524450
15,825333	0,5	0,524000
15,833667	0,5	0,518450
15,842000	0,5	0,510550
15,850333	0,5	0,510400
15,858667	0,5	0,518800
15,867000	0,5	0,517600
15,875333	0,5	0,520400
15,883667	0,5	0,522950
15,892000	0,5	0,524800
15,900333	0,5	0,530600
15,908667	0,5	0,532250
15,917000	0,5	0,534850
15,925333	0,5	0,537850
15,933667	0,5	0,544400
15,942000	0,5	0,551250
15,950333	0,5	0,541100
15,958667	0,5	0,550700
15,967000	0,5	0,547950
15,975333	0,5	0,552350
15,983667	0,5	0,548500
15,992000	0,5	0,539900
16,000333	0,5	0,550200
16,008667	0,5	0,551800
16,017000	0,5	0,556150
16,025333	0,5	0,557450
16,033667	0,5	0,562250
16,042000	0,5	0,561350
16,050333	0,5	0,567950
16,058667	0,5	0,573500
16,067000	0,5	0,577600
16,075333	0,5	0,578900
16,083667	0,5	0,592700
16,092000	0,5	0,595100
16,100333	0,5	0,595300
16,108667	0,5	0,599950
16,117000	0,5	0,599400
16,125333	0,5	0,595150
16,133667	0,5	0,584050
16,142000	0,5	0,573350
16,150333	0,5	0,575800
16,158667	0,5	0,572000
16,167000	0,5	0,569700
16,175333	0,5	0,566250
16,183667	0,5	0,570450
16,192000	0,5	0,569250
16,200333	0,5	0,568850
16,208667	0,5	0,568350
16,217000	0,5	0,567400
16,225333	0,5	0,571400
16,233667	0,5	0,570850
16,242000	0,5	0,568800
16,250333	0,5	0,568750
16,258667	0,5	0,573650
16,267000	0,5	0,569800
16,275333	0,5	0,569200
16,283667	0,5	0,558600
16,292000	0,5	0,558950
16,300333	0,5	0,562200
16,308667	0,5	0,563800
16,317000	0,5	0,564400
16,325333	0,5	0,570150
16,333667	0,5	0,567750
16,342000	0,5	0,576150
16,350333	0,5	0,576250
16,358667	0,5	0,575350
16,367000	0,5	0,575550
16,375333	0,5	0,579750
16,383667	0,5	0,580300
16,392000	0,5	0,574750
16,400333	0,5	0,579750
16,408667	0,5	0,579850
16,417000	0,5	0,578500
16,425333	0,5	0,573150
16,433667	0,5	0,569550
16,442000	0,5	0,570800
16,450333	0,5	0,578700
16,458667	0,5	0,576700
16,467000	0,5	0,584250
16,475333	0,5	0,586100
16,483667	0,5	0,590650
16,492000	0,5	0,594250
16,500333	0,5	0,597200
16,508667	0,5	0,599300
16,517000	0,5	0,599650
16,525333	0,5	0,608350
16,533667	0,5	0,607550
16,542000	0,5	0,610100
16,550333	0,5	0,618300
16,558667	0,5	0,619650
16,567000	0,5	0,617950
16,575333	0,5	0,607350
16,583667	0,5	0,604650
16,592000	0,5	0,614000
16,600333	0,5	0,607350
16,608667	0,5	0,611900
16,617000	0,5	0,608500
16,625333	0,5	0,616050
16,633667	0,5	0,612600
16,642000	0,5	0,619000
16,650333	0,5	0,620450
16,658667	0,5	0,623050
16,667000	0,5	0,628200
16,675333	0,5	0,635550
16,683667	0,5	0,626600
16,692000	0,5	0,639150
16,700333	0,5	0,641400
16,708667	0,5	0,644250
16,717000	0,5	0,641350
16,725333	0,5	0,631800
16,733667	0,5	0,644800
16,742000	0,5	0,648800
16,750333	0,5	0,652200
16,758667	0,5	0,647350
16,767000	0,5	0,656800
16,775333	0,5	0,655850
16,783667	0,5	0,663100
16,792000	0,5	0,664750
16,800333	0,5	0,666450
16,808667	0,5	0,668250
16,817000	0,5	0,671450
16,825333	0,5	0,678750
16,833667	0,5	0,672500
16,842000	0,5	0,685200
16,850333	0,5	0,690400
16,858667	0,5	0,691700
16,867000	0,5	0,687100
16,875333	0,5	0,685650
16,883667	0,5	0,691200
16,892000	0,5	0,703100
16,900333	0,5	0,704650
16,908667	0,5	0,709750
16,917000	0,5	0,707100
16,925333	0,5	0,717250
16,933667	0,5	0,718700
16,942000	0,5	0,726100
16,950333	0,5	0,726100
16,958667	0,5	0,728150
16,967000	0,5	0,733900
16,975333	0,5	0,737950
16,983667	0,5	0,735200
16,992000	0,5	0,746800
17,000333	0,5	0,747300
17,008667	0,5	0,749200
17,017000	0,5	0,740550
17,025333	0,5	0,736650
17,033667	0,5	0,751700
17,042000	0,5	0,756750
17,050333	0,5	0,762950
17,058667	0,5	0,767650
17,067000	0,5	0,774700
17,075333	0,5	0,777150
17,083667	0,5	0,786550
17,092000	0,5	0,785200
17,100333	0,5	0,789850
17,108667	0,5	0,788650
17,117000	0,5	0,791200
17,125333	0,5	0,780050
17,133667	0,5	0,790050
17,142000	0,5	0,794750
17,150333	0,5	0,792250
17,158667	0,5	0,788200
17,167000	0,5	0,779450
17,175333	0,5	0,781100
17,183667	0,5	0,786050
17,192000	0,5	0,789100
17,200333	0,5	0,790550
17,208667	0,5	0,799150
17,217000	0,5	0,800250
17,225333	0,5	0,805300
17,233667	0,5	0,807100
17,242000	0,5	0,811700
17,250333	0,5	0,811400
17,258667	0,5	0,820950
17,267000	0,5	0,815750
17,275333	0,5	0,810250
17,283667	0,5	0,812550
17,292000	0,5	0,816750
17,300333	0,5	0,808600
17,308667	0,5	0,802600
17,317000	0,5	0,791550
17,325333	0,5	0,795450
17,333667	0,5	0,795750
17,342000	0,5	0,798950
17,350333	0,5	0,798050
17,358667	0,5	0,798850
17,367000	0,5	0,801200
17,375333	0,5	0,798850
17,383667	0,5	0,803000
17,392000	0,5	0,798900
17,400333	0,5	0,803200
17,408667	0,5	0,806100
17,417000	0,5	0,800200
17,425333	0,5	0,797850
17,433667	0,5	0,806850
17,442000	0,5	0,808100
17,450333	0,5	0,802850
17,458667	0,5	0,791800
17,467000	0,5	0,793800
17,475333	0,5	0,792800
17,483667	0,5	0,795000
17,492000	0,5	0,791100
17,500333	0,5	0,793000
17,508667	0,5	0,792200
17,517000	0,5	0,796550
17,525333	0,5	0,792100
17,533667	0,5	0,791200
17,542000	0,5	0,793700
17,550333	0,5	0,789350
17,558667	0,5	0,800550
17,567000	0,5	0,788350
17,575333	0,5	0,795800
17,583667	0,5	0,798200
17,592000	0,5	0,801850
17,600333	0,5	0,792550
17,608667	0,5	0,784250
17,617000	0,5	0,790000
17,625333	0,5	0,795150
17,633667	0,5	0,792050
17,642000	0,5	0,794500
17,650333	0,5	0,788200
17,658667	0,5	0,790750
17,667000	0,5	0,795000
17,675333	0,5	0,792850
17,683667	0,5	0,794650
17,692000	0,5	0,797250
17,700333	0,5	0,802300
17,708667	0,5	0,804850
17,717000	0,5	0,791550
17,725333	0,5	0,800800
17,733667	0,5	0,802000
17,742000	0,5	0,796150
17,750333	0,5	0,793800
17,758667	0,5	0,780750
17,767000	0,5	0,792650
17,775333	0,5	0,786800
17,783667	0,5	0,791250
17,792000	0,5	0,790100
17,800333	0,5	0,793750
17,808667	0,5	0,790800
17,817000	0,5	0,796950
17,825333	0,5	0,793250
17,833667	0,5	0,791050
17,842000	0,5	0,794650
17,850333	0,5	0,797200
17,858667	0,5	0,793200
17,867000	0,5	0,796300
17,875333	0,5	0,802550
17,883667	0,5	0,797850
17,892000	0,5	0,794750
17,900333	0,5	0,782650
17,908667	0,5	0,786150
17,917000	0,5	0,786700
17,925333	0,5	0,788700
17,933667	0,5	0,791750
17,942000	0,5	0,797000
17,950333	0,5	0,795500
17,958667	0,5	0,799250
17,967000	0,5	0,799100
17,975333	0,5	0,798650
17,983667	0,5	0,798950
17,992000	0,5	0,798200
18,000333	0,5	0,800050
18,008667	0,5	0,796700
18,017000	0,5	0,795300
18,025333	0,5	0,798500
18,033667	0,5	0,795900
18,042000	0,5	0,788950
18,050333	0,5	0,784750
18,058667	0,5	0,783000
18,067000	0,5	0,789550
18,075333	0,5	0,786550
18,083667	0,5	0,790850
18,092000	0,5	0,787300
18,100333	0,5	0,788650
18,108667	0,5	0,793250
18,117000	0,5	0,794150
18,125333	0,5	0,791050
18,133667	0,5	0,794150
18,142000	0,5	0,800650
18,150333	0,5	0,802000
18,158667	0,5	0,799600
18,167000	0,5	0,803200
18,175333	0,5	0,802700
18,183667	0,5	0,803800
18,192000	0,5	0,791800
18,200333	0,5	0,785200
18,208667	0,5	0,794300
18,217000	0,5	0,791350
18,225333	0,5	0,795750
18,233667	0,5	0,793450
18,242000	0,5	0,800350
18,250333	0,5	0,798750
18,258667	0,5	0,807500
18,267000	0,5	0,806250
18,275333	0,5	0,808750
18,283667	0,5	0,813650
18,292000	0,5	0,822500
18,300333	0,5	0,810100
18,308667	0,5	0,826750
18,317000	0,5	0,830450
18,325333	0,5	0,837500
18,333667	0,5	0,832450
18,342000	0,5	0,826050
18,350333	0,5	0,835950
18,358667	0,5	0,839750
18,367000	0,5	0,840250
18,375333	0,5	0,838900
18,383667	0,5	0,841850
18,392000	0,5	0,842500
18,400333	0,5	0,841600
18,408667	0,5	0,845950
18,417000	0,5	0,847650
18,425333	0,5	0,847250
18,433667	0,5	0,850100
18,442000	0,5	0,847500
18,450333	0,5	0,835400
18,458667	0,5	0,843900
18,467000	0,5	0,848400
18,475333	0,5	0,844500
18,483667	0,5	0,841650
18,492000	0,5	0,829450
18,500333	0,5	0,841300
18,508667	0,5	0,838200
18,517000	0,5	0,836900
18,525333	0,5	0,842550
18,533667	0,5	0,844800
18,542000	0,5	0,843650
18,550333	0,5	0,850450
18,558667	0,5	0,851800
18,567000	0,5	0,853200
18,575333	0,5	0,855900
18,583667	0,5	0,860750
18,592000	0,5	0,863900
18,600333	0,5	0,860150
18,608667	0,5	0,870500
18,617000	0,5	0,870850
18,625333	0,5	0,873800
18,633667	0,5	0,859300
18,642000	0,5	0,857450
18,650333	0,5	0,869350
18,658667	0,5	0,872500
18,667000	0,5	0,875700
18,675333	0,5	0,879500
18,683667	0,5	0,883350
18,692000	0,5	0,884500
18,700333	0,5	0,890400
18,708667	0,5	0,891200
18,717000	0,5	0,897250
18,725333	0,5	0,899950
18,733667	0,5	0,912100
18,742000	0,5	0,903000
18,750333	0,5	0,915550
18,758667	0,5	0,914800
18,767000	0,5	0,918200
18,775333	0,5	0,907900
18,783667	0,5	0,902350
18,792000	0,5	0,902650
18,800333	0,5	0,905200
18,808667	0,5	0,905450
18,817000	0,5	0,904150
18,825333	0,5	0,904100
18,833667	0,5	0,904200
18,842000	0,5	0,906800
18,850333	0,5	0,909650
18,858667	0,5	0,911850
18,867000	0,5	0,911050
18,875333	0,5	0,920750
18,883667	0,5	0,916900
18,892000	0,5	0,910050
18,900333	0,5	0,911900
18,908667	0,5	0,916200
18,917000	0,5	0,911450
18,925333	0,5	0,905800
18,933667	0,5	0,891900
18,942000	0,5	0,895150
18,950333	0,5	0,897200
18,958667	0,5	0,903300
18,967000	0,5	0,903800
18,975333	0,5	0,912450
18,983667	0,5	0,907150
18,992000	0,5	0,914700
19,000333	0,5	0,916900
19,008667	0,5	0,917950
19,017000	0,5	0,927400
19,025333	0,5	0,929100
19,033667	0,5	0,924200
19,042000	0,5	0,921450
19,050333	0,5	0,928650
19,058667	0,5	0,922100
19,067000	0,5	0,920800
19,075333	0,5	0,907500
19,083667	0,5	0,907950
19,092000	0,5	0,908750
19,100333	0,5	0,918200
19,108667	0,5	0,914650
19,117000	0,5	0,922150
19,125333	0,5	0,919600
19,133667	0,5	0,924050
19,142000	0,5	0,928200
19,150333	0,5	0,932950
19,158667	0,5	0,938750
19,167000	0,5	0,946700
19,175333	0,5	0,951400
19,183667	0,5	0,940600
19,192000	0,5	0,953250
19,200333	0,5	0,958500
19,208667	0,5	0,960950
19,217000	0,5	0,956350
19,225333	0,5	0,946400
19,233667	0,5	0,957150
19,242000	0,5	0,959350
19,250333	0,5	0,957800
19,258667	0,5	0,966000
19,267000	0,5	0,967050
19,275333	0,5	0,975400
19,283667	0,5	0,979450
19,292000	0,5	0,980700
19,300333	0,5	0,982250
19,308667	0,5	0,985600
19,317000	0,5	0,997150
19,325333	0,5	0,996050
19,333667	0,5	0,989250
19,342000	0,5	0,994550
19,350333	0,5	0,999600
19,358667	0,5	0,993300
19,367000	0,5	0,989300
19,375333	0,5	0,982550
19,383667	0,5	0,998450
19,392000	0,5	0,999850
19,400333	0,5	1,004400
19,408667	0,5	1,001000
19,417000	0,5	1,005650
19,425333	0,5	1,005850
19,433667	0,5	1,013600
19,442000	0,5	1,008950
19,450333	0,5	1,012900
19,458667	0,5	1,026800
19,467000	0,5	1,035400
19,475333	0,5	1,027750
19,483667	0,5	1,031650
19,492000	0,5	1,039750
19,500333	0,5	1,035200
19,508667	0,5	1,032900
19,517000	0,5	1,024350
19,525333	0,5	1,027750
19,533667	0,5	1,029850
19,542000	0,5	1,034050
19,550333	0,5	1,038200
19,558667	0,5	1,050550
19,567000	0,5	1,050600
19,575333	0,5	1,059750
19,583667	0,5	1,062200
19,592000	0,5	1,064850
19,600333	0,5	1,065350
19,608667	0,5	1,076950
19,617000	0,5	1,078400
19,625333	0,5	1,076700
19,633667	0,5	1,089450
19,642000	0,5	1,086200
19,650333	0,5	1,083750
19,658667	0,5	1,074400
19,667000	0,5	1,075350
19,675333	0,5	1,078950
19,683667	0,5	1,082000
19,692000	0,5	1,083550
19,700333	0,5	1,094200
19,708667	0,5	1,095250
19,717000	0,5	1,107550
19,725333	0,5	1,109800
19,733667	0,5	1,117750
19,742000	0,5	1,119400
19,750333	0,5	1,125050
19,758667	0,5	1,144300
19,767000	0,5	1,138650
19,775333	0,5	1,144600
19,783667	0,5	1,152550
19,792000	0,5	1,155750
19,800333	0,5	1,162950
19,808667	0,5	1,154500
19,817000	0,5	1,157250
19,825333	0,5	1,169600
19,833667	0,5	1,170150
19,842000	0,5	1,173100
19,850333	0,5	1,175850
19,858667	0,5	1,189000
19,867000	0,5	1,189850
19,875333	0,5	1,200550
19,883667	0,5	1,202900
19,892000	0,5	1,202500
19,900333	0,5	1,210000
19,908667	0,5	1,216300
19,917000	0,5	1,204200
19,925333	0,5	1,220800
19,933667	0,5	1,218550
19,942000	0,5	1,219950
19,950333	0,5	1,213600
19,958667	0,5	1,207750
19,967000	0,5	1,221450
19,975333	0,5	1,223250
19,983667	0,5	1,230500
19,992000	0,5	1,233600
20,000333	0,5	1,238650
20,008667	0,5	1,244200
20,017000	0,5	1,250900
20,025333	0,5	1,253300
20,033667	0,5	1,261100
20,042000	0,5	1,264150
20,050333	0,5	1,269950
20,058667	0,5	1,275200
20,067000	0,5	1,273750
20,075333	0,5	1,287300
20,083667	0,5	1,289300
20,092000	0,5	1,283200
20,100333	0,5	1,279800
20,108667	0,5	1,270350
20,117000	0,5	1,277600
20,125333	0,5	1,285450
20,133667	0,5	1,284000
20,142000	0,5	1,288950
20,150333	0,5	1,281600
20,158667	0,5	1,292000
20,167000	0,5	1,293350
20,175333	0,5	1,302250
20,183667	0,5	1,303100
20,192000	0,5	1,309200
20,200333	0,5	1,314450
20,208667	0,5	1,317700
20,217000	0,5	1,317750
20,225333	0,5	1,333000
20,233667	0,5	1,335750
20,242000	0,5	1,340300
20,250333	0,5	1,324400
20,258667	0,5	1,330650
20,267000	0,5	1,341550
20,275333	0,5	1,346300
20,283667	0,5	1,353450
20,292000	0,5	1,358750
20,300333	0,5	1,368950
20,308667	0,5	1,374050
20,317000	0,5	1,385000
20,325333	0,5	1,383650
20,333667	0,5	1,395000
20,342000	0,5	1,406500
20,350333	0,5	1,415500
20,358667	0,5	1,409900
20,367000	0,5	1,424750
20,375333	0,5	1,428550
20,383667	0,5	1,430200
20,392000	0,5	1,421000
20,400333	0,5	1,419700
20,408667	0,5	1,432400
20,417000	0,5	1,436900
20,425333	0,5	1,449700
20,433667	0,5	1,458000
20,442000	0,5	1,467300
20,450333	0,5	1,462750
20,458667	0,5	1,475800
20,467000	0,5	1,478250
20,475333	0,5	1,489150
20,483667	0,5	1,497150
20,492000	0,5	1,510400
20,500333	0,5	1,507500
20,508667	0,5	1,511050
20,517000	0,5	1,513750
20,525333	0,5	1,516000
20,533667	0,5	1,514900
20,542000	0,5	1,502250
20,550333	0,5	1,510000
20,558667	0,5	1,512000
20,567000	0,5	1,520750
20,575333	0,5	1,524050
20,583667	0,5	1,536500
20,592000	0,5	1,544000
20,600333	0,5	1,555600
20,608667	0,5	1,560350
20,617000	0,5	1,575700
20,625333	0,5	1,573750
20,633667	0,5	1,596700
20,642000	0,5	1,611200
20,650333	0,5	1,605850
20,658667	0,5	1,609800
20,667000	0,5	1,617950
20,675333	0,5	1,619500
20,683667	0,5	1,619700
20,692000	0,5	1,614100
20,700333	0,5	1,631500
20,708667	0,5	1,641150
20,717000	0,5	1,649800
20,725333	0,5	1,659600
20,733667	0,5	1,671600
20,742000	0,5	1,682000
20,750333	0,5	1,689250
20,758667	0,5	1,699400
20,767000	0,5	1,706800
20,775333	0,5	1,720850
20,783667	0,5	1,741850
20,792000	0,5	1,755850
20,800333	0,5	1,753850
20,808667	0,5	1,763000
20,817000	0,5	1,761150
20,825333	0,5	1,764750
20,833667	0,5	1,762950
20,842000	0,5	1,769600
20,850333	0,5	1,785800
20,858667	0,5	1,792050
20,867000	0,5	1,812850
20,875333	0,5	1,834500
20,883667	0,5	1,866650
20,892000	0,5	1,896300
20,900333	0,5	1,938350
20,908667	0,5	1,964800
20,917000	0,5	1,989600
20,925333	0,5	2,009450
20,933667	0,5	2,022350
20,942000	0,5	2,017900
20,950333	0,5	2,007650
20,958667	0,5	2,003300
20,967000	0,5	1,998500
20,975333	0,5	1,990900
20,983667	0,5	1,984450
20,992000	0,5	1,997400
21,000333	0,5	2,008150
21,008667	0,5	2,014400
21,017000	0,5	2,023850
21,025333	0,5	2,040600
21,033667	0,5	2,054950
21,042000	0,5	2,070000
21,050333	0,5	2,080900
21,058667	0,5	2,094500
21,067000	0,5	2,107200
21,075333	0,5	2,140150
21,083667	0,5	2,164200
21,092000	0,5	2,173750
21,100333	0,5	2,187350
21,108667	0,5	2,199200
21,117000	0,5	2,211800
21,125333	0,5	2,224850
21,133667	0,5	2,235850
21,142000	0,5	2,265650
21,150333	0,5	2,292050
21,158667	0,5	2,318400
21,167000	0,5	2,348650
21,175333	0,5	2,382950
21,183667	0,5	2,421750
21,192000	0,5	2,457450
21,200333	0,5	2,486050
21,208667	0,5	2,498050
21,217000	0,5	2,523950
21,225333	0,5	2,530250
21,233667	0,5	2,526150
21,242000	0,5	2,514250
21,250333	0,5	2,506950
21,258667	0,5	2,494500
21,267000	0,5	2,479500
21,275333	0,5	2,474150
21,283667	0,5	2,479450
21,292000	0,5	2,491200
21,300333	0,5	2,506000
21,308667	0,5	2,521250
21,317000	0,5	2,549850
21,325333	0,5	2,577000
21,333667	0,5	2,602650
21,342000	0,5	2,630350
21,350333	0,5	2,646150
21,358667	0,5	2,671950
21,367000	0,5	2,695650
21,375333	0,5	2,719250
21,383667	0,5	2,724100
21,392000	0,5	2,727800
21,400333	0,5	2,735000
21,408667	0,5	2,739700
21,417000	0,5	2,738000
21,425333	0,5	2,752500
21,433667	0,5	2,771300
21,442000	0,5	2,790000
21,450333	0,5	2,803900
21,458667	0,5	2,819600
21,467000	0,5	2,833650
21,475333	0,5	2,850850
21,483667	0,5	2,873450
21,492000	0,5	2,895350
21,500333	0,5	2,916700
21,508667	0,5	2,951250
21,517000	0,5	2,984150
21,525333	0,5	3,009750
21,533667	0,5	3,019400
21,542000	0,5	3,038500
21,550333	0,5	3,046100
21,558667	0,5	3,055150
21,567000	0,5	3,051650
21,575333	0,5	3,079450
21,583667	0,5	3,099350
21,592000	0,5	3,114850
21,600333	0,5	3,128050
21,608667	0,5	3,146200
21,617000	0,5	3,162400
21,625333	0,5	3,183850
21,633667	0,5	3,204050
21,642000	0,5	3,226600
21,650333	0,5	3,247400
21,658667	0,5	3,293600
21,667000	0,5	3,329300
21,675333	0,5	3,348050
21,683667	0,5	3,368500
21,692000	0,5	3,390600
21,700333	0,5	3,394800
21,708667	0,5	3,400300
21,717000	0,5	3,415700
21,725333	0,5	3,437850
21,733667	0,5	3,457700
21,742000	0,5	3,473850
21,750333	0,5	3,494600
21,758667	0,5	3,517050
21,767000	0,5	3,540300
21,775333	0,5	3,559750
21,783667	0,5	3,589950
21,792000	0,5	3,610500
21,800333	0,5	3,645150
21,808667	0,5	3,678100
21,817000	0,5	3,692600
21,825333	0,5	3,710700
21,833667	0,5	3,723700
21,842000	0,5	3,737800
21,850333	0,5	3,746050
21,858667	0,5	3,751850
21,867000	0,5	3,778350
21,875333	0,5	3,800150
21,883667	0,5	3,820500
21,892000	0,5	3,844750
21,900333	0,5	3,871000
21,908667	0,5	3,905150
21,917000	0,5	3,938300
21,925333	0,5	3,976000
21,933667	0,5	4,011450
21,942000	0,5	4,050650
21,950333	0,5	4,100800
21,958667	0,5	4,149100
21,967000	0,5	4,187700
21,975333	0,5	4,239750
21,983667	0,5	4,285150
21,992000	0,5	4,332000
22,000333	0,5	4,364300
22,008667	0,5	4,396450
22,017000	0,5	4,433800
22,025333	0,5	4,453250
22,033667	0,5	4,467350
22,042000	0,5	4,467050
22,050333	0,5	4,475000
22,058667	0,5	4,484100
22,067000	0,5	4,505100
22,075333	0,5	4,515150
22,083667	0,5	4,540350
22,092000	0,5	4,567200
22,100333	0,5	4,597400
22,108667	0,5	4,613200
22,117000	0,5	4,644400
22,125333	0,5	4,666550
22,133667	0,5	4,691800
22,142000	0,5	4,713150
22,150333	0,5	4,734800
22,158667	0,5	4,765350
22,167000	0,5	4,804350
22,175333	0,5	4,846200
22,183667	0,5	4,883400
22,192000	0,5	4,935200
22,200333	0,5	4,977100
22,208667	0,5	5,023400
22,217000	0,5	5,062500
22,225333	0,5	5,099400
22,233667	0,5	5,136250
22,242000	0,5	5,168000
22,250333	0,5	5,195500
22,258667	0,5	5,240600
22,267000	0,5	5,286500
22,275333	0,5	5,321200
22,283667	0,5	5,360450
22,292000	0,5	5,392250
22,300333	0,5	5,435050
22,308667	0,5	5,485650
22,317000	0,5	5,544200
22,325333	0,5	5,594350
22,333667	0,5	5,655250
22,342000	0,5	5,707950
22,350333	0,5	5,772450
22,358667	0,5	5,827850
22,367000	0,5	5,896450
22,375333	0,5	5,959600
22,383667	0,5	6,047400
22,392000	0,5	6,138350
22,400333	0,5	6,257900
22,408667	0,5	6,395950
22,417000	0,5	6,519150
22,425333	0,5	6,613600
22,433667	0,5	6,690700
22,442000	0,5	6,732900
22,450333	0,5	6,776450
22,458667	0,5	6,814700
22,467000	0,5	6,839200
22,475333	0,5	6,867350
22,483667	0,5	6,898500
22,492000	0,5	6,937500
22,500333	0,5	6,977650
22,508667	0,5	7,031350
22,517000	0,5	7,073200
22,525333	0,5	7,130350
22,533667	0,5	7,163850
22,542000	0,5	7,227900
22,550333	0,5	7,295250
22,558667	0,5	7,354850
22,567000	0,5	7,402800
22,575333	0,5	7,436050
22,583667	0,5	7,474350
22,592000	0,5	7,507100
22,600333	0,5	7,559250
22,608667	0,5	7,588350
22,617000	0,5	7,615450
22,625333	0,5	7,631250
22,633667	0,5	7,645800
22,642000	0,5	7,642700
22,650333	0,5	7,641100
22,658667	0,5	7,622700
22,667000	0,5	7,600900
22,675333	0,5	7,548700
22,683667	0,5	7,497450
22,692000	0,5	7,442000
22,700333	0,5	7,420350
22,708667	0,5	7,349000
22,717000	0,5	7,278350
22,725333	0,5	7,185500
22,733667	0,5	7,083150
22,742000	0,5	6,990700
22,750333	0,5	6,889100
22,758667	0,5	6,778300
22,767000	0,5	6,662300
22,775333	0,5	6,542650
22,783667	0,5	6,418700
22,792000	0,5	6,285350
22,800333	0,5	6,147650
22,808667	0,5	5,996350
22,817000	0,5	5,842600
22,825333	0,5	5,642300
22,833667	0,5	5,481750
22,842000	0,5	5,326250
22,850333	0,5	5,154400
22,858667	0,5	4,971850
22,867000	0,5	4,785400
22,875333	0,5	4,595300
22,883667	0,5	4,415650
22,892000	0,5	4,226750
22,900333	0,5	4,046400
22,908667	0,5	3,866850
22,917000	0,5	3,691900
22,925333	0,5	3,527550
22,933667	0,5	3,359900
22,942000	0,5	3,192050
22,950333	0,5	3,023750
22,958667	0,5	2,871350
22,967000	0,5	2,724100
22,975333	0,5	2,558250
22,983667	0,5	2,423600
22,992000	0,5	2,261350
23,000333	0,5	2,096800
23,008667	0,5	1,965150
23,017000	0,5	1,837650
23,025333	0,5	1,712100
23,033667	0,5	1,589400
23,042000	0,5	1,462900
23,050333	0,5	1,350350
23,058667	0,5	1,236950
23,067000	0,5	1,138450
23,075333	0,5	1,028100
23,083667	0,5	0,935350
23,092000	0,5	0,829650
23,100333	0,5	0,746450
23,108667	0,5	0,648850
23,117000	0,5	0,594750
23,125333	0,5	0,500600
23,133667	0,5	0,416750
23,142000	0,5	0,302100
23,150333	0,5	0,223100
23,158667	0,5	0,149450
23,167000	0,5	0,097650
23,175333	0,5	0,027400
23,183667	0,5	-0,039050
23,192000	0,5	-0,102800
23,200333	0,5	-0,161050
23,208667	0,5	-0,223100
23,217000	0,5	-0,270200
23,225333	0,5	-0,321200
23,233667	0,5	-0,375550
23,242000	0,5	-0,420950
23,250333	0,5	-0,474600
23,258667	0,5	-0,514800
23,267000	0,5	-0,566900
23,275333	0,5	-0,597800
23,283667	0,5	-0,622000
23,292000	0,5	-0,691250
23,300333	0,5	-0,739500
23,308667	0,5	-0,772000
23,317000	0,5	-0,800850
23,325333	0,5	-0,830450
23,333667	0,5	-0,866550
23,342000	0,5	-0,895350
23,350333	0,5	-0,924500
23,358667	0,5	-0,949350
23,367000	0,5	-0,973400
23,375333	0,5	-1,000550
23,383667	0,5	-1,025350
23,392000	0,5	-1,049600
23,400333	0,5	-1,066900
23,408667	0,5	-1,088200
23,417000	0,5	-1,154550
23,425333	0,5	-1,142350
23,433667	0,5	-1,134200
23,442000	0,5	-1,169700
23,450333	0,5	-1,194550
23,458667	0,5	-1,220300
23,467000	0,5	-1,229000
23,475333	0,5	-1,252550
23,483667	0,5	-1,270650
23,492000	0,5	-1,291750
23,500333	0,5	-1,299900
23,508667	0,5	-1,314700
23,517000	0,5	-1,324500
23,525333	0,5	-1,337300
23,533667	0,5	-1,348150
23,542000	0,5	-1,357750
23,550333	0,5	-1,370300
23,558667	0,5	-1,458450
23,567000	0,5	-1,437650
23,575333	0,5	-1,422650
23,583667	0,5	-1,394700
23,592000	0,5	-1,400500
23,600333	0,5	-1,414700
23,608667	0,5	-1,421750
23,617000	0,5	-1,437200
23,625333	0,5	-1,440000
23,633667	0,5	-1,446600
23,642000	0,5	-1,454750
23,650333	0,5	-1,457200
23,658667	0,5	-1,461500
23,667000	0,5	-1,464650
23,675333	0,5	-1,468250
23,683667	0,5	-1,470150
23,692000	0,5	-1,477800
23,700333	0,5	-1,493100
23,708667	0,5	-1,590250
23,717000	0,5	-1,545350
23,725333	0,5	-1,520400
23,733667	0,5	-1,485900
23,742000	0,5	-1,483000
23,750333	0,5	-1,485000
23,758667	0,5	-1,487600
23,767000	0,5	-1,500350
23,775333	0,5	-1,485800
23,783667	0,5	-1,483600
23,792000	0,5	-1,476050
23,800333	0,5	-1,479150
23,808667	0,5	-1,471350
23,817000	0,5	-1,469100
23,825333	0,5	-1,464750
23,833667	0,5	-1,458650
23,842000	0,5	-1,459850
23,850333	0,5	-1,531800
23,858667	0,5	-1,551750
23,867000	0,5	-1,515900
23,875333	0,5	-1,465450
23,883667	0,5	-1,440450
23,892000	0,5	-1,439400
23,900333	0,5	-1,436050
23,908667	0,5	-1,440100
23,917000	0,5	-1,438700
23,925333	0,5	-1,430200
23,933667	0,5	-1,419850
23,942000	0,5	-1,413450
23,950333	0,5	-1,400100
23,958667	0,5	-1,395950
23,967000	0,5	-1,388050
23,975333	0,5	-1,377600
23,983667	0,5	-1,364800
23,992000	0,5	-1,361650
24,000333	0,5	-1,453000
24,008667	0,5	-1,429800
24,017000	0,5	-1,385400
24,025333	0,5	-1,349000
24,033667	0,5	-1,318350
24,042000	0,5	-1,316350
24,050333	0,5	-1,310250
24,058667	0,5	-1,309950
24,067000	0,5	-1,309750
24,075333	0,5	-1,291800
24,083667	0,5	-1,286250
24,092000	0,5	-1,274850
24,100333	0,5	-1,265850
24,108667	0,5	-1,255450
24,117000	0,5	-1,247500
24,125333	0,5	-1,232450
24,133667	0,5	-1,231450
24,142000	0,5	-1,241950
24,150333	0,5	-1,300950
24,158667	0,5	-1,258650
24,167000	0,5	-1,236400
24,175333	0,5	-1,195150
24,183667	0,5	-1,175650
24,192000	0,5	-1,170450
24,200333	0,5	-1,162400
24,208667	0,5	-1,162450
24,217000	0,5	-1,142400
24,225333	0,5	-1,131100
24,233667	0,5	-1,126000
24,242000	0,5	-1,115800
24,250333	0,5	-1,108750
24,258667	0,5	-1,098050
24,267000	0,5	-1,091150
24,275333	0,5	-1,086150
24,283667	0,5	-1,076700
24,292000	0,5	-1,137450
24,300333	0,5	-1,118250
24,308667	0,5	-1,106050
24,317000	0,5	-1,064400
24,325333	0,5	-1,042250
24,333667	0,5	-1,030100
24,342000	0,5	-1,032150
24,350333	0,5	-1,029900
24,358667	0,5	-1,021450
24,367000	0,5	-1,011100
24,375333	0,5	-1,004500
24,383667	0,5	-0,993500
24,392000	0,5	-0,985200
24,400333	0,5	-0,973500
24,408667	0,5	-0,962650
24,417000	0,5	-0,958600
24,425333	0,5	-0,944050
24,433667	0,5	-0,943550
24,442000	0,5	-0,999500
24,450333	0,5	-0,969250
24,458667	0,5	-0,953300
24,467000	0,5	-0,926250
24,475333	0,5	-0,916450
24,483667	0,5	-0,909550
24,492000	0,5	-0,907700
24,500333	0,5	-0,913000
24,508667	0,5	-0,902000
24,517000	0,5	-0,895200
24,525333	0,5	-0,887200
24,533667	0,5	-0,884350
24,542000	0,5	-0,873750
24,550333	0,5	-0,864450
24,558667	0,5	-0,856300
24,567000	0,5	-0,852800
24,575333	0,5	-0,847850
24,583667	0,5	-0,851900
24,592000	0,5	-0,882000
24,600333	0,5	-0,852250
24,608667	0,5	-0,835900
24,617000	0,5	-0,819900
24,625333	0,5	-0,815700
24,633667	0,5	-0,810900
24,642000	0,5	-0,812550
24,650333	0,5	-0,812600
24,658667	0,5	-0,807000
24,667000	0,5	-0,800700
24,675333	0,5	-0,797150
24,683667	0,5	-0,791150
24,692000	0,5	-0,785750
24,700333	0,5	-0,779350
24,708667	0,5	-0,779750
24,717000	0,5	-0,773050
24,725333	0,5	-0,764250
24,733667	0,5	-0,788500
24,742000	0,5	-0,782100
24,750333	0,5	-0,773400
24,758667	0,5	-0,757250
24,767000	0,5	-0,747250
24,775333	0,5	-0,745550
24,783667	0,5	-0,740300
24,792000	0,5	-0,743150
24,800333	0,5	-0,739650
24,808667	0,5	-0,730650
24,817000	0,5	-0,730350
24,825333	0,5	-0,724050
24,833667	0,5	-0,726300
24,842000	0,5	-0,719150
24,850333	0,5	-0,716450
24,858667	0,5	-0,710850
24,867000	0,5	-0,708450
24,875333	0,5	-0,708250
24,883667	0,5	-0,727300
24,892000	0,5	-0,713550
24,900333	0,5	-0,709750
24,908667	0,5	-0,694250
24,917000	0,5	-0,690950
24,925333	0,5	-0,685050
24,933667	0,5	-0,685900
24,942000	0,5	-0,688850
24,950333	0,5	-0,684700
24,958667	0,5	-0,679150
24,967000	0,5	-0,677550
24,975333	0,5	-0,677500
24,983667	0,5	-0,673100
24,992000	0,5	-0,670800
25,000333	0,5	-0,665300
25,008667	0,5	-0,662300
25,017000	0,5	-0,659100
25,025333	0,5	-0,659800
25,033667	0,5	-0,665750
25,042000	0,5	-0,656600
25,050333	0,5	-0,651700
25,058667	0,5	-0,646950
25,067000	0,5	-0,643150
25,075333	0,5	-0,645500
25,083667	0,5	-0,643650
25,092000	0,5	-0,643350
25,100333	0,5	-0,644300
25,108667	0,5	-0,637950
25,117000	0,5	-0,633700
25,125333	0,5	-0,632650
25,133667	0,5	-0,630500
25,142000	0,5	-0,627800
25,150333	0,5	-0,625700
25,158667	0,5	-0,622600
25,167000	0,5	-0,622400
25,175333	0,5	-0,626700
25,183667	0,5	-0,621500
25,192000	0,5	-0,615850
25,200333	0,5	-0,613250
25,208667	0,5	-0,613000
25,217000	0,5	-0,611150
25,225333	0,5	-0,611150
25,233667	0,5	-0,612950
25,242000	0,5	-0,608200
25,250333	0,5	-0,606550
25,258667	0,5	-0,602150
25,267000	0,5	-0,604300
25,275333	0,5	-0,604250
25,283667	0,5	-0,602100
25,292000	0,5	-0,600000
25,300333	0,5	-0,599250
25,308667	0,5	-0,598250
25,317000	0,5	-0,596250
25,325333	0,5	-0,594750
25,333667	0,5	-0,590350
25,342000	0,5	-0,587650
25,350333	0,5	-0,588150
25,358667	0,5	-0,586100
25,367000	0,5	-0,586050
25,375333	0,5	-0,585200
25,383667	0,5	-0,585650
25,392000	0,5	-0,582700
25,400333	0,5	-0,583100
25,408667	0,5	-0,579500
25,417000	0,5	-0,577550
25,425333	0,5	-0,580750
25,433667	0,5	-0,577400
25,442000	0,5	-0,575350
25,450333	0,5	-0,572700
25,458667	0,5	-0,575350
25,467000	0,5	-0,571950
25,475333	0,5	-0,567750
25,483667	0,5	-0,565350
25,492000	0,5	-0,564350
25,500333	0,5	-0,565950
25,508667	0,5	-0,569850
25,517000	0,5	-0,562100
25,525333	0,5	-0,563650
25,533667	0,5	-0,560050
25,542000	0,5	-0,562650
25,550333	0,5	-0,560000
25,558667	0,5	-0,559550
25,567000	0,5	-0,557800
25,575333	0,5	-0,557950
25,583667	0,5	-0,555150
25,592000	0,5	-0,556750
25,600333	0,5	-0,555250
25,608667	0,5	-0,553400
25,617000	0,5	-0,549300
25,625333	0,5	-0,546600
25,633667	0,5	-0,544950
25,642000	0,5	-0,545950
25,650333	0,5	-0,546800
25,658667	0,5	-0,544650
25,667000	0,5	-0,543850
25,675333	0,5	-0,539250
25,683667	0,5	-0,539650
25,692000	0,5	-0,537850
25,700333	0,5	-0,539050
25,708667	0,5	-0,536700
25,717000	0,5	-0,535400
25,725333	0,5	-0,532750
25,733667	0,5	-0,532800
25,742000	0,5	-0,531100
25,750333	0,5	-0,532850
25,758667	0,5	-0,531250
25,767000	0,5	-0,524100
25,775333	0,5	-0,526250
25,783667	0,5	-0,521450
25,792000	0,5	-0,524750
25,800333	0,5	-0,525100
25,808667	0,5	-0,525350
25,817000	0,5	-0,521900
25,825333	0,5	-0,517100
25,833667	0,5	-0,512600
25,842000	0,5	-0,516550
25,850333	0,5	-0,511950
25,858667	0,5	-0,511950
25,867000	0,5	-0,508100
25,875333	0,5	-0,509600
25,883667	0,5	-0,506250
25,892000	0,5	-0,506800
25,900333	0,5	-0,505650
25,908667	0,5	-0,502700
25,917000	0,5	-0,498500
25,925333	0,5	-0,501150
25,933667	0,5	-0,496800
25,942000	0,5	-0,502800
25,950333	0,5	-0,501450
25,958667	0,5	-0,499650
25,967000	0,5	-0,493450
25,975333	0,5	-0,486700
25,983667	0,5	-0,483950
25,992000	0,5	-0,483150
26,000333	0,5	-0,485900
