File Path	chrom://chromeleon01/ikbm_chromeleon/2022/ICS-5000/ED1/Esteban/20220612_Cell_7_4_eg.seq/410.smp/ED_1.channel/ED_1.chm
Channel	ED_1

Injection Information:
Data Vault	ikbm_chromeleon
Injection	Std_C1ox-0.00125_1
Injection Number	10
Position	RA5
Comment	
Processing Method	Stop sequence after Cell Death
Instrument Method	ICS5000_PA200_FullNative_Ox_26min_ED1
Type	Unknown
Status	Finished
Injection Date	12.06.2022
Injection Time	20:17:39
Injection Volume (µl)	5,0
Dilution Factor	1,0000
Weight	1,0000

Chromatogram Data Information:
Time Min. (min)	0,000333
Time Max. (min)	26,000333
Data Points	3121
Detector	EDet1
Generating Data System	Chromeleon 7.2.9.11323
Exporting Data System	Chromeleon 7.2.9.0
Operator	Instrument Controller
Signal Quantity	
Signal Unit	nC
Signal Min.	-1,614150
Signal Max.	9,416550
Channel	ED_1
Driver Name	DC-5000
Channel Type	Evaluation
Min. Step (s)	0,5
Max. Step (s)	0,5
Average Step (s)	0,5

Signal Parameter Information:
Signal Info	

Chromatogram Data:
Time (min)	Step (s)	Value (nC)
0,000333	n.a.	-0,046200
0,008667	0,5	-0,034250
0,017000	0,5	-0,034150
0,025333	0,5	-0,011300
0,033667	0,5	-0,020700
0,042000	0,5	-0,024650
0,050333	0,5	-0,019950
0,058667	0,5	-0,006900
0,067000	0,5	0,012100
0,075333	0,5	0,015150
0,083667	0,5	0,009600
0,092000	0,5	0,015650
0,100333	0,5	0,015400
0,108667	0,5	0,012700
0,117000	0,5	0,013550
0,125333	0,5	0,009100
0,133667	0,5	0,016300
0,142000	0,5	0,008800
0,150333	0,5	0,014350
0,158667	0,5	-0,001650
0,167000	0,5	0,003950
0,175333	0,5	0,013500
0,183667	0,5	-0,001000
0,192000	0,5	-0,004700
0,200333	0,5	0,004050
0,208667	0,5	0,014100
0,217000	0,5	0,034550
0,225333	0,5	0,036650
0,233667	0,5	0,036450
0,242000	0,5	0,028250
0,250333	0,5	0,034700
0,258667	0,5	0,029100
0,267000	0,5	0,027100
0,275333	0,5	0,024600
0,283667	0,5	0,021250
0,292000	0,5	0,030900
0,300333	0,5	0,024550
0,308667	0,5	0,018800
0,317000	0,5	0,021800
0,325333	0,5	0,026050
0,333667	0,5	0,007250
0,342000	0,5	0,013750
0,350333	0,5	0,010650
0,358667	0,5	0,032600
0,367000	0,5	0,033350
0,375333	0,5	0,039000
0,383667	0,5	0,034200
0,392000	0,5	0,037250
0,400333	0,5	0,029750
0,408667	0,5	0,030950
0,417000	0,5	0,028500
0,425333	0,5	0,030600
0,433667	0,5	0,028600
0,442000	0,5	0,025500
0,450333	0,5	0,029300
0,458667	0,5	0,022400
0,467000	0,5	0,041050
0,475333	0,5	0,025650
0,483667	0,5	0,016500
0,492000	0,5	0,021100
0,500333	0,5	0,027250
0,508667	0,5	0,045500
0,517000	0,5	0,045100
0,525333	0,5	0,041400
0,533667	0,5	0,050700
0,542000	0,5	0,040800
0,550333	0,5	0,045500
0,558667	0,5	0,038900
0,567000	0,5	0,043450
0,575333	0,5	0,039700
0,583667	0,5	0,043350
0,592000	0,5	0,043200
0,600333	0,5	0,035700
0,608667	0,5	0,030600
0,617000	0,5	0,054950
0,625333	0,5	0,044050
0,633667	0,5	0,036350
0,642000	0,5	0,043350
0,650333	0,5	0,045150
0,658667	0,5	0,071300
0,667000	0,5	0,056150
0,675333	0,5	0,062650
0,683667	0,5	0,059400
0,692000	0,5	0,069950
0,700333	0,5	0,065250
0,708667	0,5	0,071050
0,717000	0,5	0,064950
0,725333	0,5	0,073700
0,733667	0,5	0,069650
0,742000	0,5	0,074300
0,750333	0,5	0,062450
0,758667	0,5	0,070950
0,767000	0,5	0,079150
0,775333	0,5	0,068050
0,783667	0,5	0,068650
0,792000	0,5	0,073350
0,800333	0,5	0,085850
0,808667	0,5	0,103050
0,817000	0,5	0,100550
0,825333	0,5	0,099350
0,833667	0,5	0,104950
0,842000	0,5	0,100500
0,850333	0,5	0,100150
0,858667	0,5	0,098200
0,867000	0,5	0,104900
0,875333	0,5	0,101500
0,883667	0,5	0,109150
0,892000	0,5	0,107650
0,900333	0,5	0,107400
0,908667	0,5	0,111400
0,917000	0,5	0,120000
0,925333	0,5	0,105200
0,933667	0,5	0,109450
0,942000	0,5	0,114200
0,950333	0,5	0,133100
0,958667	0,5	0,140700
0,967000	0,5	0,140550
0,975333	0,5	0,136550
0,983667	0,5	0,140250
0,992000	0,5	0,140750
1,000333	0,5	0,141400
1,008667	0,5	0,143500
1,017000	0,5	0,145650
1,025333	0,5	0,149250
1,033667	0,5	0,147800
1,042000	0,5	0,145600
1,050333	0,5	0,137200
1,058667	0,5	0,152850
1,067000	0,5	0,145600
1,075333	0,5	0,144400
1,083667	0,5	0,146550
1,092000	0,5	0,158050
1,100333	0,5	0,172200
1,108667	0,5	0,178400
1,117000	0,5	0,179900
1,125333	0,5	0,181300
1,133667	0,5	0,177800
1,142000	0,5	0,181550
1,150333	0,5	0,176500
1,158667	0,5	0,178750
1,167000	0,5	0,176300
1,175333	0,5	0,178900
1,183667	0,5	0,176850
1,192000	0,5	0,162350
1,200333	0,5	0,170150
1,208667	0,5	0,176650
1,217000	0,5	0,169900
1,225333	0,5	0,168000
1,233667	0,5	0,173400
1,242000	0,5	0,185850
1,250333	0,5	0,200350
1,258667	0,5	0,193900
1,267000	0,5	0,197500
1,275333	0,5	0,187050
1,283667	0,5	0,191750
1,292000	0,5	0,183700
1,300333	0,5	0,186100
1,308667	0,5	0,183100
1,317000	0,5	0,186550
1,325333	0,5	0,185150
1,333667	0,5	0,169850
1,342000	0,5	0,162800
1,350333	0,5	0,174800
1,358667	0,5	0,168750
1,367000	0,5	0,160400
1,375333	0,5	0,157450
1,383667	0,5	0,156300
1,392000	0,5	0,171550
1,400333	0,5	0,168100
1,408667	0,5	0,171350
1,417000	0,5	0,164150
1,425333	0,5	0,166100
1,433667	0,5	0,155700
1,442000	0,5	0,160700
1,450333	0,5	0,155450
1,458667	0,5	0,161600
1,467000	0,5	0,159800
1,475333	0,5	0,161750
1,483667	0,5	0,161500
1,492000	0,5	0,148700
1,500333	0,5	0,161350
1,508667	0,5	0,151550
1,517000	0,5	0,137700
1,525333	0,5	0,132300
1,533667	0,5	0,133450
1,542000	0,5	0,141050
1,550333	0,5	0,110000
1,558667	0,5	-0,009250
1,567000	0,5	-0,315100
1,575333	0,5	-0,885000
1,583667	0,5	-1,442850
1,592000	0,5	-1,614150
1,600333	0,5	-1,186650
1,608667	0,5	-0,365050
1,617000	0,5	0,699650
1,625333	0,5	1,848500
1,633667	0,5	2,834550
1,642000	0,5	3,399750
1,650333	0,5	3,504300
1,658667	0,5	3,261800
1,667000	0,5	2,954200
1,675333	0,5	2,703650
1,683667	0,5	2,562150
1,692000	0,5	2,475300
1,700333	0,5	2,408000
1,708667	0,5	2,361500
1,717000	0,5	2,351050
1,725333	0,5	2,397550
1,733667	0,5	2,478650
1,742000	0,5	2,621150
1,750333	0,5	2,861350
1,758667	0,5	3,237950
1,767000	0,5	3,650900
1,775333	0,5	3,956450
1,783667	0,5	4,065900
1,792000	0,5	4,021550
1,800333	0,5	3,838150
1,808667	0,5	3,578800
1,817000	0,5	3,313350
1,825333	0,5	3,076300
1,833667	0,5	2,872850
1,842000	0,5	2,695800
1,850333	0,5	2,529300
1,858667	0,5	2,386950
1,867000	0,5	2,261250
1,875333	0,5	2,143050
1,883667	0,5	2,046700
1,892000	0,5	2,019800
1,900333	0,5	2,127050
1,908667	0,5	2,461200
1,917000	0,5	3,157100
1,925333	0,5	4,147600
1,933667	0,5	4,989500
1,942000	0,5	5,163400
1,950333	0,5	4,678750
1,958667	0,5	3,969400
1,967000	0,5	3,381900
1,975333	0,5	2,987750
1,983667	0,5	2,728050
1,992000	0,5	2,468850
2,000333	0,5	2,223200
2,008667	0,5	2,003450
2,017000	0,5	1,851650
2,025333	0,5	1,748350
2,033667	0,5	1,696750
2,042000	0,5	1,671400
2,050333	0,5	1,656050
2,058667	0,5	1,624450
2,067000	0,5	1,577100
2,075333	0,5	1,528250
2,083667	0,5	1,486850
2,092000	0,5	1,487100
2,100333	0,5	1,472100
2,108667	0,5	1,481200
2,117000	0,5	1,497400
2,125333	0,5	1,531950
2,133667	0,5	1,579750
2,142000	0,5	1,614550
2,150333	0,5	1,662400
2,158667	0,5	1,721550
2,167000	0,5	1,781200
2,175333	0,5	1,850450
2,183667	0,5	1,925900
2,192000	0,5	2,013150
2,200333	0,5	2,093350
2,208667	0,5	2,169800
2,217000	0,5	2,242750
2,225333	0,5	2,298950
2,233667	0,5	2,367900
2,242000	0,5	2,455200
2,250333	0,5	2,521000
2,258667	0,5	2,601750
2,267000	0,5	2,690000
2,275333	0,5	2,779750
2,283667	0,5	2,878200
2,292000	0,5	2,949800
2,300333	0,5	3,033450
2,308667	0,5	3,111500
2,317000	0,5	3,197200
2,325333	0,5	3,279400
2,333667	0,5	3,365750
2,342000	0,5	3,442500
2,350333	0,5	3,524400
2,358667	0,5	3,603050
2,367000	0,5	3,675600
2,375333	0,5	3,754900
2,383667	0,5	3,861100
2,392000	0,5	3,978550
2,400333	0,5	4,124250
2,408667	0,5	4,326300
2,417000	0,5	4,565600
2,425333	0,5	4,790050
2,433667	0,5	4,930350
2,442000	0,5	4,970250
2,450333	0,5	4,977200
2,458667	0,5	5,040450
2,467000	0,5	5,172250
2,475333	0,5	5,346300
2,483667	0,5	5,459550
2,492000	0,5	5,462600
2,500333	0,5	5,347150
2,508667	0,5	5,192600
2,517000	0,5	5,035150
2,525333	0,5	4,927650
2,533667	0,5	4,866200
2,542000	0,5	4,816550
2,550333	0,5	4,781750
2,558667	0,5	4,765100
2,567000	0,5	4,755350
2,575333	0,5	4,752250
2,583667	0,5	4,742650
2,592000	0,5	4,732100
2,600333	0,5	4,712650
2,608667	0,5	4,692500
2,617000	0,5	4,670300
2,625333	0,5	4,639700
2,633667	0,5	4,614850
2,642000	0,5	4,574800
2,650333	0,5	4,541550
2,658667	0,5	4,501050
2,667000	0,5	4,461600
2,675333	0,5	4,426200
2,683667	0,5	4,401500
2,692000	0,5	4,357750
2,700333	0,5	4,321100
2,708667	0,5	4,297350
2,717000	0,5	4,292400
2,725333	0,5	4,296700
2,733667	0,5	4,288600
2,742000	0,5	4,258950
2,750333	0,5	4,204650
2,758667	0,5	4,119250
2,767000	0,5	4,021450
2,775333	0,5	3,922850
2,783667	0,5	3,828600
2,792000	0,5	3,740700
2,800333	0,5	3,655250
2,808667	0,5	3,578550
2,817000	0,5	3,496050
2,825333	0,5	3,432050
2,833667	0,5	3,364700
2,842000	0,5	3,292300
2,850333	0,5	3,221000
2,858667	0,5	3,161800
2,867000	0,5	3,107600
2,875333	0,5	3,051500
2,883667	0,5	2,978600
2,892000	0,5	2,914100
2,900333	0,5	2,838250
2,908667	0,5	2,768700
2,917000	0,5	2,695150
2,925333	0,5	2,623850
2,933667	0,5	2,554700
2,942000	0,5	2,483000
2,950333	0,5	2,417450
2,958667	0,5	2,353000
2,967000	0,5	2,283500
2,975333	0,5	2,235600
2,983667	0,5	2,168850
2,992000	0,5	2,102500
3,000333	0,5	2,046350
3,008667	0,5	1,989350
3,017000	0,5	1,952450
3,025333	0,5	1,889500
3,033667	0,5	1,835100
3,042000	0,5	1,774800
3,050333	0,5	1,727850
3,058667	0,5	1,672900
3,067000	0,5	1,627400
3,075333	0,5	1,578050
3,083667	0,5	1,533100
3,092000	0,5	1,484700
3,100333	0,5	1,429950
3,108667	0,5	1,382350
3,117000	0,5	1,318350
3,125333	0,5	1,272900
3,133667	0,5	1,202000
3,142000	0,5	1,150250
3,150333	0,5	1,099800
3,158667	0,5	1,060300
3,167000	0,5	1,029200
3,175333	0,5	0,992900
3,183667	0,5	0,956650
3,192000	0,5	0,927750
3,200333	0,5	0,893250
3,208667	0,5	0,868650
3,217000	0,5	0,831400
3,225333	0,5	0,794800
3,233667	0,5	0,752050
3,242000	0,5	0,715050
3,250333	0,5	0,676300
3,258667	0,5	0,636500
3,267000	0,5	0,601700
3,275333	0,5	0,576900
3,283667	0,5	0,531700
3,292000	0,5	0,502800
3,300333	0,5	0,473250
3,308667	0,5	0,452650
3,317000	0,5	0,440450
3,325333	0,5	0,410000
3,333667	0,5	0,382150
3,342000	0,5	0,356250
3,350333	0,5	0,337600
3,358667	0,5	0,315550
3,367000	0,5	0,302050
3,375333	0,5	0,286200
3,383667	0,5	0,277450
3,392000	0,5	0,262800
3,400333	0,5	0,242550
3,408667	0,5	0,230600
3,417000	0,5	0,236850
3,425333	0,5	0,235550
3,433667	0,5	0,246300
3,442000	0,5	0,274050
3,450333	0,5	0,312900
3,458667	0,5	0,361200
3,467000	0,5	0,401200
3,475333	0,5	0,425250
3,483667	0,5	0,425650
3,492000	0,5	0,400150
3,500333	0,5	0,352150
3,508667	0,5	0,293300
3,517000	0,5	0,228400
3,525333	0,5	0,166100
3,533667	0,5	0,114100
3,542000	0,5	0,079700
3,550333	0,5	0,046000
3,558667	0,5	0,037400
3,567000	0,5	0,045000
3,575333	0,5	0,054850
3,583667	0,5	0,080150
3,592000	0,5	0,129700
3,600333	0,5	0,193700
3,608667	0,5	0,264550
3,617000	0,5	0,319850
3,625333	0,5	0,352400
3,633667	0,5	0,360050
3,642000	0,5	0,341650
3,650333	0,5	0,292850
3,658667	0,5	0,235500
3,667000	0,5	0,175150
3,675333	0,5	0,119700
3,683667	0,5	0,080000
3,692000	0,5	0,040050
3,700333	0,5	0,008650
3,708667	0,5	-0,012250
3,717000	0,5	-0,030000
3,725333	0,5	-0,062150
3,733667	0,5	-0,086250
3,742000	0,5	-0,106800
3,750333	0,5	-0,119500
3,758667	0,5	-0,130450
3,767000	0,5	-0,152600
3,775333	0,5	-0,170600
3,783667	0,5	-0,176100
3,792000	0,5	-0,192100
3,800333	0,5	-0,196900
3,808667	0,5	-0,204950
3,817000	0,5	-0,213950
3,825333	0,5	-0,220900
3,833667	0,5	-0,227750
3,842000	0,5	-0,225600
3,850333	0,5	-0,243000
3,858667	0,5	-0,241100
3,867000	0,5	-0,239250
3,875333	0,5	-0,251250
3,883667	0,5	-0,251000
3,892000	0,5	-0,249900
3,900333	0,5	-0,244150
3,908667	0,5	-0,234650
3,917000	0,5	-0,243400
3,925333	0,5	-0,243700
3,933667	0,5	-0,246550
3,942000	0,5	-0,242450
3,950333	0,5	-0,249550
3,958667	0,5	-0,251000
3,967000	0,5	-0,253400
3,975333	0,5	-0,252550
3,983667	0,5	-0,249950
3,992000	0,5	-0,258250
4,000333	0,5	-0,261100
4,008667	0,5	-0,252200
4,017000	0,5	-0,256900
4,025333	0,5	-0,257200
4,033667	0,5	-0,248450
4,042000	0,5	-0,229400
4,050333	0,5	-0,200650
4,058667	0,5	-0,180200
4,067000	0,5	-0,150450
4,075333	0,5	-0,118200
4,083667	0,5	-0,070450
4,092000	0,5	-0,020300
4,100333	0,5	0,046200
4,108667	0,5	0,115600
4,117000	0,5	0,209100
4,125333	0,5	0,311750
4,133667	0,5	0,444500
4,142000	0,5	0,609550
4,150333	0,5	0,852900
4,158667	0,5	1,200550
4,167000	0,5	1,687300
4,175333	0,5	2,366850
4,183667	0,5	3,281650
4,192000	0,5	4,414250
4,200333	0,5	5,715150
4,208667	0,5	7,020700
4,217000	0,5	8,181900
4,225333	0,5	9,025800
4,233667	0,5	9,416550
4,242000	0,5	9,322750
4,250333	0,5	8,779050
4,258667	0,5	7,910750
4,267000	0,5	6,849050
4,275333	0,5	5,743600
4,283667	0,5	4,695450
4,292000	0,5	3,767850
4,300333	0,5	3,002650
4,308667	0,5	2,382250
4,317000	0,5	1,886150
4,325333	0,5	1,509650
4,333667	0,5	1,219700
4,342000	0,5	1,007400
4,350333	0,5	0,839500
4,358667	0,5	0,698000
4,367000	0,5	0,594400
4,375333	0,5	0,515300
4,383667	0,5	0,458800
4,392000	0,5	0,412100
4,400333	0,5	0,390250
4,408667	0,5	0,378900
4,417000	0,5	0,383050
4,425333	0,5	0,390700
4,433667	0,5	0,395600
4,442000	0,5	0,388150
4,450333	0,5	0,393150
4,458667	0,5	0,362400
4,467000	0,5	0,328500
4,475333	0,5	0,281650
4,483667	0,5	0,239200
4,492000	0,5	0,201900
4,500333	0,5	0,152650
4,508667	0,5	0,104400
4,517000	0,5	0,067450
4,525333	0,5	0,037650
4,533667	0,5	0,012850
4,542000	0,5	-0,005050
4,550333	0,5	-0,024550
4,558667	0,5	-0,040850
4,567000	0,5	-0,054400
4,575333	0,5	-0,060250
4,583667	0,5	-0,074250
4,592000	0,5	-0,087250
4,600333	0,5	-0,079650
4,608667	0,5	-0,100050
4,617000	0,5	-0,102450
4,625333	0,5	-0,105350
4,633667	0,5	-0,106400
4,642000	0,5	-0,093750
4,650333	0,5	-0,103450
4,658667	0,5	-0,105200
4,667000	0,5	-0,109400
4,675333	0,5	-0,115400
4,683667	0,5	-0,118800
4,692000	0,5	-0,119600
4,700333	0,5	-0,125650
4,708667	0,5	-0,131400
4,717000	0,5	-0,132200
4,725333	0,5	-0,135100
4,733667	0,5	-0,137950
4,742000	0,5	-0,141150
4,750333	0,5	-0,137200
4,758667	0,5	-0,151450
4,767000	0,5	-0,146650
4,775333	0,5	-0,149050
4,783667	0,5	-0,138450
4,792000	0,5	-0,128700
4,800333	0,5	-0,129500
4,808667	0,5	-0,133900
4,817000	0,5	-0,128300
4,825333	0,5	-0,133300
4,833667	0,5	-0,130600
4,842000	0,5	-0,131300
4,850333	0,5	-0,128450
4,858667	0,5	-0,135650
4,867000	0,5	-0,133450
4,875333	0,5	-0,134150
4,883667	0,5	-0,134300
4,892000	0,5	-0,126100
4,900333	0,5	-0,126000
4,908667	0,5	-0,133800
4,917000	0,5	-0,131400
4,925333	0,5	-0,127850
4,933667	0,5	-0,119450
4,942000	0,5	-0,107450
4,950333	0,5	-0,112050
4,958667	0,5	-0,105000
4,967000	0,5	-0,106600
4,975333	0,5	-0,107650
4,983667	0,5	-0,108350
4,992000	0,5	-0,108900
5,000333	0,5	-0,112550
5,008667	0,5	-0,109300
5,017000	0,5	-0,111700
5,025333	0,5	-0,116950
5,033667	0,5	-0,116200
5,042000	0,5	-0,107550
5,050333	0,5	-0,117300
5,058667	0,5	-0,119150
5,067000	0,5	-0,117500
5,075333	0,5	-0,110400
5,083667	0,5	-0,100300
5,092000	0,5	-0,098250
5,100333	0,5	-0,096600
5,108667	0,5	-0,096750
5,117000	0,5	-0,097750
5,125333	0,5	-0,096900
5,133667	0,5	-0,092400
5,142000	0,5	-0,096000
5,150333	0,5	-0,095000
5,158667	0,5	-0,101350
5,167000	0,5	-0,095400
5,175333	0,5	-0,096800
5,183667	0,5	-0,092250
5,192000	0,5	-0,087850
5,200333	0,5	-0,094650
5,208667	0,5	-0,100100
5,217000	0,5	-0,094950
5,225333	0,5	-0,089000
5,233667	0,5	-0,083450
5,242000	0,5	-0,085300
5,250333	0,5	-0,084550
5,258667	0,5	-0,080200
5,267000	0,5	-0,083750
5,275333	0,5	-0,081200
5,283667	0,5	-0,084600
5,292000	0,5	-0,080250
5,300333	0,5	-0,083250
5,308667	0,5	-0,078700
5,317000	0,5	-0,079450
5,325333	0,5	-0,079600
5,333667	0,5	-0,071700
5,342000	0,5	-0,070800
5,350333	0,5	-0,076600
5,358667	0,5	-0,074500
5,367000	0,5	-0,073500
5,375333	0,5	-0,060200
5,383667	0,5	-0,058100
5,392000	0,5	-0,060600
5,400333	0,5	-0,060050
5,408667	0,5	-0,061400
5,417000	0,5	-0,065800
5,425333	0,5	-0,065050
5,433667	0,5	-0,062350
5,442000	0,5	-0,066900
5,450333	0,5	-0,062350
5,458667	0,5	-0,060400
5,467000	0,5	-0,049900
5,475333	0,5	-0,051650
5,483667	0,5	-0,024000
5,492000	0,5	-0,016200
5,500333	0,5	-0,002050
5,508667	0,5	0,016000
5,517000	0,5	0,042550
5,525333	0,5	0,069200
5,533667	0,5	0,086200
5,542000	0,5	0,089750
5,550333	0,5	0,095850
5,558667	0,5	0,096850
5,567000	0,5	0,088400
5,575333	0,5	0,080350
5,583667	0,5	0,063850
5,592000	0,5	0,046950
5,600333	0,5	0,030000
5,608667	0,5	0,016400
5,617000	0,5	-0,002850
5,625333	0,5	-0,016500
5,633667	0,5	-0,028700
5,642000	0,5	-0,047100
5,650333	0,5	-0,059050
5,658667	0,5	-0,065450
5,667000	0,5	-0,072500
5,675333	0,5	-0,071650
5,683667	0,5	-0,079550
5,692000	0,5	-0,080900
5,700333	0,5	-0,082350
5,708667	0,5	-0,088200
5,717000	0,5	-0,097900
5,725333	0,5	-0,101100
5,733667	0,5	-0,108300
5,742000	0,5	-0,110300
5,750333	0,5	-0,116300
5,758667	0,5	-0,125500
5,767000	0,5	-0,132550
5,775333	0,5	-0,133150
5,783667	0,5	-0,133900
5,792000	0,5	-0,140550
5,800333	0,5	-0,138400
5,808667	0,5	-0,138000
5,817000	0,5	-0,127600
5,825333	0,5	-0,120400
5,833667	0,5	-0,113800
5,842000	0,5	-0,113950
5,850333	0,5	-0,108400
5,858667	0,5	-0,104050
5,867000	0,5	-0,097600
5,875333	0,5	-0,095000
5,883667	0,5	-0,091300
5,892000	0,5	-0,093450
5,900333	0,5	-0,092300
5,908667	0,5	-0,099000
5,917000	0,5	-0,108100
5,925333	0,5	-0,107100
5,933667	0,5	-0,113600
5,942000	0,5	-0,128100
5,950333	0,5	-0,134900
5,958667	0,5	-0,138250
5,967000	0,5	-0,139500
5,975333	0,5	-0,139050
5,983667	0,5	-0,146750
5,992000	0,5	-0,147100
6,000333	0,5	-0,150100
6,008667	0,5	-0,154750
6,017000	0,5	-0,159150
6,025333	0,5	-0,160450
6,033667	0,5	-0,165450
6,042000	0,5	-0,165150
6,050333	0,5	-0,169650
6,058667	0,5	-0,167950
6,067000	0,5	-0,168950
6,075333	0,5	-0,163050
6,083667	0,5	-0,167600
6,092000	0,5	-0,170550
6,100333	0,5	-0,171700
6,108667	0,5	-0,165250
6,117000	0,5	-0,158150
6,125333	0,5	-0,161700
6,133667	0,5	-0,162300
6,142000	0,5	-0,162350
6,150333	0,5	-0,159050
6,158667	0,5	-0,163450
6,167000	0,5	-0,160050
6,175333	0,5	-0,163500
6,183667	0,5	-0,161050
6,192000	0,5	-0,163200
6,200333	0,5	-0,157900
6,208667	0,5	-0,165700
6,217000	0,5	-0,164500
6,225333	0,5	-0,155750
6,233667	0,5	-0,158050
6,242000	0,5	-0,160100
6,250333	0,5	-0,155700
6,258667	0,5	-0,151400
6,267000	0,5	-0,140400
6,275333	0,5	-0,138900
6,283667	0,5	-0,133700
6,292000	0,5	-0,131900
6,300333	0,5	-0,123000
6,308667	0,5	-0,114350
6,317000	0,5	-0,107250
6,325333	0,5	-0,100050
6,333667	0,5	-0,088450
6,342000	0,5	-0,073000
6,350333	0,5	-0,059400
6,358667	0,5	-0,042700
6,367000	0,5	-0,020050
6,375333	0,5	-0,000200
6,383667	0,5	0,018650
6,392000	0,5	0,040900
6,400333	0,5	0,071000
6,408667	0,5	0,110750
6,417000	0,5	0,151000
6,425333	0,5	0,199650
6,433667	0,5	0,264350
6,442000	0,5	0,358250
6,450333	0,5	0,479200
6,458667	0,5	0,650950
6,467000	0,5	0,878450
6,475333	0,5	1,168450
6,483667	0,5	1,517550
6,492000	0,5	1,913750
6,500333	0,5	2,330950
6,508667	0,5	2,722300
6,517000	0,5	3,056600
6,525333	0,5	3,272100
6,533667	0,5	3,361650
6,542000	0,5	3,303450
6,550333	0,5	3,119100
6,558667	0,5	2,827650
6,567000	0,5	2,468400
6,575333	0,5	2,071200
6,583667	0,5	1,686800
6,592000	0,5	1,342950
6,600333	0,5	1,050400
6,608667	0,5	0,812250
6,617000	0,5	0,628700
6,625333	0,5	0,487400
6,633667	0,5	0,386350
6,642000	0,5	0,311250
6,650333	0,5	0,256250
6,658667	0,5	0,219400
6,667000	0,5	0,196900
6,675333	0,5	0,174900
6,683667	0,5	0,156100
6,692000	0,5	0,146400
6,700333	0,5	0,145250
6,708667	0,5	0,147750
6,717000	0,5	0,144300
6,725333	0,5	0,142450
6,733667	0,5	0,137550
6,742000	0,5	0,138950
6,750333	0,5	0,133850
6,758667	0,5	0,135750
6,767000	0,5	0,131700
6,775333	0,5	0,131300
6,783667	0,5	0,130800
6,792000	0,5	0,129900
6,800333	0,5	0,122550
6,808667	0,5	0,131350
6,817000	0,5	0,130100
6,825333	0,5	0,122300
6,833667	0,5	0,122300
6,842000	0,5	0,124100
6,850333	0,5	0,131550
6,858667	0,5	0,131400
6,867000	0,5	0,134150
6,875333	0,5	0,132450
6,883667	0,5	0,134550
6,892000	0,5	0,134750
6,900333	0,5	0,134900
6,908667	0,5	0,136550
6,917000	0,5	0,138100
6,925333	0,5	0,140450
6,933667	0,5	0,139600
6,942000	0,5	0,136850
6,950333	0,5	0,140500
6,958667	0,5	0,145950
6,967000	0,5	0,143500
6,975333	0,5	0,142150
6,983667	0,5	0,144650
6,992000	0,5	0,147100
7,000333	0,5	0,153550
7,008667	0,5	0,158350
7,017000	0,5	0,159200
7,025333	0,5	0,161900
7,033667	0,5	0,164450
7,042000	0,5	0,166200
7,050333	0,5	0,170050
7,058667	0,5	0,170050
7,067000	0,5	0,169800
7,075333	0,5	0,171700
7,083667	0,5	0,172100
7,092000	0,5	0,177500
7,100333	0,5	0,174900
7,108667	0,5	0,182300
7,117000	0,5	0,177150
7,125333	0,5	0,178400
7,133667	0,5	0,179450
7,142000	0,5	0,184050
7,150333	0,5	0,191200
7,158667	0,5	0,195300
7,167000	0,5	0,196200
7,175333	0,5	0,198150
7,183667	0,5	0,197950
7,192000	0,5	0,200600
7,200333	0,5	0,201100
7,208667	0,5	0,203600
7,217000	0,5	0,203600
7,225333	0,5	0,204650
7,233667	0,5	0,205300
7,242000	0,5	0,205100
7,250333	0,5	0,209150
7,258667	0,5	0,212950
7,267000	0,5	0,209700
7,275333	0,5	0,210550
7,283667	0,5	0,219600
7,292000	0,5	0,223400
7,300333	0,5	0,229700
7,308667	0,5	0,231650
7,317000	0,5	0,236750
7,325333	0,5	0,239200
7,333667	0,5	0,240050
7,342000	0,5	0,243500
7,350333	0,5	0,246550
7,358667	0,5	0,246600
7,367000	0,5	0,246700
7,375333	0,5	0,247300
7,383667	0,5	0,248750
7,392000	0,5	0,251700
7,400333	0,5	0,257450
7,408667	0,5	0,258400
7,417000	0,5	0,258100
7,425333	0,5	0,258700
7,433667	0,5	0,259700
7,442000	0,5	0,267650
7,450333	0,5	0,272600
7,458667	0,5	0,276750
7,467000	0,5	0,277350
7,475333	0,5	0,283550
7,483667	0,5	0,283400
7,492000	0,5	0,286300
7,500333	0,5	0,287700
7,508667	0,5	0,290100
7,517000	0,5	0,292400
7,525333	0,5	0,298050
7,533667	0,5	0,305000
7,542000	0,5	0,302750
7,550333	0,5	0,309400
7,558667	0,5	0,308500
7,567000	0,5	0,308200
7,575333	0,5	0,312650
7,583667	0,5	0,315350
7,592000	0,5	0,321850
7,600333	0,5	0,326350
7,608667	0,5	0,329600
7,617000	0,5	0,331700
7,625333	0,5	0,334600
7,633667	0,5	0,336450
7,642000	0,5	0,340000
7,650333	0,5	0,342950
7,658667	0,5	0,343650
7,667000	0,5	0,344900
7,675333	0,5	0,348850
7,683667	0,5	0,350800
7,692000	0,5	0,350850
7,700333	0,5	0,354150
7,708667	0,5	0,351150
7,717000	0,5	0,354200
7,725333	0,5	0,357450
7,733667	0,5	0,362000
7,742000	0,5	0,368700
7,750333	0,5	0,371700
7,758667	0,5	0,373100
7,767000	0,5	0,375700
7,775333	0,5	0,380650
7,783667	0,5	0,384900
7,792000	0,5	0,385100
7,800333	0,5	0,389200
7,808667	0,5	0,391450
7,817000	0,5	0,391200
7,825333	0,5	0,394250
7,833667	0,5	0,395650
7,842000	0,5	0,398200
7,850333	0,5	0,395900
7,858667	0,5	0,394650
7,867000	0,5	0,396950
7,875333	0,5	0,398450
7,883667	0,5	0,403300
7,892000	0,5	0,411350
7,900333	0,5	0,412250
7,908667	0,5	0,417050
7,917000	0,5	0,423250
7,925333	0,5	0,424550
7,933667	0,5	0,426750
7,942000	0,5	0,426100
7,950333	0,5	0,430600
7,958667	0,5	0,434450
7,967000	0,5	0,434350
7,975333	0,5	0,435000
7,983667	0,5	0,437500
7,992000	0,5	0,440300
8,000333	0,5	0,442800
8,008667	0,5	0,439550
8,017000	0,5	0,441250
8,025333	0,5	0,443350
8,033667	0,5	0,452350
8,042000	0,5	0,457150
8,050333	0,5	0,458750
8,058667	0,5	0,461250
8,067000	0,5	0,465250
8,075333	0,5	0,465500
8,083667	0,5	0,466500
8,092000	0,5	0,465900
8,100333	0,5	0,470050
8,108667	0,5	0,470050
8,117000	0,5	0,470150
8,125333	0,5	0,473300
8,133667	0,5	0,475550
8,142000	0,5	0,478250
8,150333	0,5	0,477500
8,158667	0,5	0,477800
8,167000	0,5	0,480150
8,175333	0,5	0,486700
8,183667	0,5	0,492750
8,192000	0,5	0,497750
8,200333	0,5	0,501600
8,208667	0,5	0,505400
8,217000	0,5	0,504100
8,225333	0,5	0,506050
8,233667	0,5	0,507850
8,242000	0,5	0,509300
8,250333	0,5	0,510100
8,258667	0,5	0,511850
8,267000	0,5	0,514850
8,275333	0,5	0,522600
8,283667	0,5	0,532100
8,292000	0,5	0,545600
8,300333	0,5	0,560650
8,308667	0,5	0,584050
8,317000	0,5	0,609900
8,325333	0,5	0,644600
8,333667	0,5	0,683550
8,342000	0,5	0,728000
8,350333	0,5	0,774250
8,358667	0,5	0,832150
8,367000	0,5	0,906100
8,375333	0,5	1,017600
8,383667	0,5	1,189700
8,392000	0,5	1,458100
8,400333	0,5	1,862150
8,408667	0,5	2,429950
8,417000	0,5	3,150550
8,425333	0,5	3,956400
8,433667	0,5	4,740800
8,442000	0,5	5,341800
8,450333	0,5	5,636100
8,458667	0,5	5,562300
8,467000	0,5	5,146550
8,475333	0,5	4,488700
8,483667	0,5	3,721000
8,492000	0,5	2,967200
8,500333	0,5	2,310600
8,508667	0,5	1,794650
8,517000	0,5	1,414300
8,525333	0,5	1,153700
8,533667	0,5	0,979900
8,542000	0,5	0,867300
8,550333	0,5	0,798600
8,558667	0,5	0,752650
8,567000	0,5	0,721450
8,575333	0,5	0,695650
8,583667	0,5	0,684000
8,592000	0,5	0,672350
8,600333	0,5	0,664050
8,608667	0,5	0,656150
8,617000	0,5	0,650600
8,625333	0,5	0,651450
8,633667	0,5	0,649000
8,642000	0,5	0,650000
8,650333	0,5	0,645000
8,658667	0,5	0,645300
8,667000	0,5	0,641100
8,675333	0,5	0,642350
8,683667	0,5	0,637150
8,692000	0,5	0,634750
8,700333	0,5	0,635200
8,708667	0,5	0,631500
8,717000	0,5	0,630250
8,725333	0,5	0,627150
8,733667	0,5	0,625700
8,742000	0,5	0,625200
8,750333	0,5	0,623700
8,758667	0,5	0,624050
8,767000	0,5	0,625300
8,775333	0,5	0,624600
8,783667	0,5	0,623500
8,792000	0,5	0,623450
8,800333	0,5	0,625100
8,808667	0,5	0,622700
8,817000	0,5	0,624400
8,825333	0,5	0,622950
8,833667	0,5	0,621300
8,842000	0,5	0,618500
8,850333	0,5	0,618500
8,858667	0,5	0,618350
8,867000	0,5	0,614950
8,875333	0,5	0,612500
8,883667	0,5	0,614900
8,892000	0,5	0,611400
8,900333	0,5	0,612400
8,908667	0,5	0,612750
8,917000	0,5	0,610700
8,925333	0,5	0,616900
8,933667	0,5	0,614700
8,942000	0,5	0,619750
8,950333	0,5	0,620400
8,958667	0,5	0,620950
8,967000	0,5	0,623650
8,975333	0,5	0,625200
8,983667	0,5	0,624750
8,992000	0,5	0,625100
9,000333	0,5	0,623350
9,008667	0,5	0,622900
9,017000	0,5	0,621350
9,025333	0,5	0,621600
9,033667	0,5	0,624600
9,042000	0,5	0,620400
9,050333	0,5	0,616750
9,058667	0,5	0,621000
9,067000	0,5	0,623900
9,075333	0,5	0,627250
9,083667	0,5	0,627950
9,092000	0,5	0,631700
9,100333	0,5	0,634500
9,108667	0,5	0,635300
9,117000	0,5	0,638750
9,125333	0,5	0,638150
9,133667	0,5	0,640000
9,142000	0,5	0,638700
9,150333	0,5	0,637200
9,158667	0,5	0,639000
9,167000	0,5	0,639500
9,175333	0,5	0,638200
9,183667	0,5	0,641700
9,192000	0,5	0,641150
9,200333	0,5	0,642000
9,208667	0,5	0,642850
9,217000	0,5	0,650050
9,225333	0,5	0,649950
9,233667	0,5	0,654250
9,242000	0,5	0,654650
9,250333	0,5	0,658500
9,258667	0,5	0,658450
9,267000	0,5	0,660250
9,275333	0,5	0,660950
9,283667	0,5	0,661250
9,292000	0,5	0,660900
9,300333	0,5	0,663300
9,308667	0,5	0,662500
9,317000	0,5	0,662800
9,325333	0,5	0,665400
9,333667	0,5	0,666000
9,342000	0,5	0,663700
9,350333	0,5	0,667250
9,358667	0,5	0,669150
9,367000	0,5	0,671700
9,375333	0,5	0,672650
9,383667	0,5	0,675150
9,392000	0,5	0,674300
9,400333	0,5	0,678400
9,408667	0,5	0,679200
9,417000	0,5	0,681500
9,425333	0,5	0,683950
9,433667	0,5	0,679750
9,442000	0,5	0,679800
9,450333	0,5	0,682350
9,458667	0,5	0,681700
9,467000	0,5	0,682750
9,475333	0,5	0,684100
9,483667	0,5	0,684700
9,492000	0,5	0,680450
9,500333	0,5	0,682200
9,508667	0,5	0,685050
9,517000	0,5	0,685500
9,525333	0,5	0,686050
9,533667	0,5	0,686750
9,542000	0,5	0,685850
9,550333	0,5	0,684600
9,558667	0,5	0,683350
9,567000	0,5	0,685800
9,575333	0,5	0,683300
9,583667	0,5	0,678150
9,592000	0,5	0,679200
9,600333	0,5	0,678500
9,608667	0,5	0,673400
9,617000	0,5	0,672850
9,625333	0,5	0,676700
9,633667	0,5	0,670300
9,642000	0,5	0,669450
9,650333	0,5	0,664600
9,658667	0,5	0,665600
9,667000	0,5	0,669100
9,675333	0,5	0,669500
9,683667	0,5	0,668900
9,692000	0,5	0,667700
9,700333	0,5	0,665900
9,708667	0,5	0,665050
9,717000	0,5	0,663800
9,725333	0,5	0,664200
9,733667	0,5	0,660600
9,742000	0,5	0,664900
9,750333	0,5	0,660250
9,758667	0,5	0,656650
9,767000	0,5	0,658000
9,775333	0,5	0,655350
9,783667	0,5	0,655150
9,792000	0,5	0,657000
9,800333	0,5	0,658650
9,808667	0,5	0,659050
9,817000	0,5	0,660350
9,825333	0,5	0,665800
9,833667	0,5	0,663600
9,842000	0,5	0,665850
9,850333	0,5	0,662050
9,858667	0,5	0,661250
9,867000	0,5	0,662500
9,875333	0,5	0,658850
9,883667	0,5	0,658300
9,892000	0,5	0,654950
9,900333	0,5	0,654200
9,908667	0,5	0,651400
9,917000	0,5	0,649700
9,925333	0,5	0,645750
9,933667	0,5	0,643500
9,942000	0,5	0,640750
9,950333	0,5	0,639350
9,958667	0,5	0,641350
9,967000	0,5	0,639500
9,975333	0,5	0,641150
9,983667	0,5	0,643250
9,992000	0,5	0,641900
10,000333	0,5	0,643850
10,008667	0,5	0,643750
10,017000	0,5	0,640300
10,025333	0,5	0,638750
10,033667	0,5	0,639400
10,042000	0,5	0,637500
10,050333	0,5	0,636400
10,058667	0,5	0,635450
10,067000	0,5	0,636200
10,075333	0,5	0,633350
10,083667	0,5	0,632550
10,092000	0,5	0,630450
10,100333	0,5	0,629550
10,108667	0,5	0,635850
10,117000	0,5	0,633450
10,125333	0,5	0,636050
10,133667	0,5	0,633900
10,142000	0,5	0,634900
10,150333	0,5	0,630700
10,158667	0,5	0,631250
10,167000	0,5	0,629750
10,175333	0,5	0,626850
10,183667	0,5	0,628700
10,192000	0,5	0,624300
10,200333	0,5	0,618550
10,208667	0,5	0,618950
10,217000	0,5	0,619050
10,225333	0,5	0,617350
10,233667	0,5	0,617950
10,242000	0,5	0,612850
10,250333	0,5	0,613100
10,258667	0,5	0,610700
10,267000	0,5	0,614400
10,275333	0,5	0,609900
10,283667	0,5	0,609150
10,292000	0,5	0,605800
10,300333	0,5	0,602250
10,308667	0,5	0,599100
10,317000	0,5	0,598850
10,325333	0,5	0,594600
10,333667	0,5	0,593250
10,342000	0,5	0,590900
10,350333	0,5	0,586200
10,358667	0,5	0,586850
10,367000	0,5	0,582850
10,375333	0,5	0,578550
10,383667	0,5	0,574500
10,392000	0,5	0,567550
10,400333	0,5	0,569750
10,408667	0,5	0,569950
10,417000	0,5	0,566650
10,425333	0,5	0,563750
10,433667	0,5	0,560700
10,442000	0,5	0,562600
10,450333	0,5	0,559950
10,458667	0,5	0,557500
10,467000	0,5	0,554500
10,475333	0,5	0,556900
10,483667	0,5	0,553950
10,492000	0,5	0,549750
10,500333	0,5	0,549600
10,508667	0,5	0,550350
10,517000	0,5	0,547650
10,525333	0,5	0,544800
10,533667	0,5	0,542800
10,542000	0,5	0,536950
10,550333	0,5	0,543050
10,558667	0,5	0,541700
10,567000	0,5	0,540850
10,575333	0,5	0,543150
10,583667	0,5	0,545000
10,592000	0,5	0,547300
10,600333	0,5	0,545600
10,608667	0,5	0,541600
10,617000	0,5	0,543850
10,625333	0,5	0,544800
10,633667	0,5	0,544600
10,642000	0,5	0,538200
10,650333	0,5	0,539150
10,658667	0,5	0,536550
10,667000	0,5	0,530900
10,675333	0,5	0,527950
10,683667	0,5	0,528700
10,692000	0,5	0,526700
10,700333	0,5	0,526700
10,708667	0,5	0,528700
10,717000	0,5	0,524700
10,725333	0,5	0,528550
10,733667	0,5	0,526700
10,742000	0,5	0,526900
10,750333	0,5	0,524350
10,758667	0,5	0,523300
10,767000	0,5	0,517850
10,775333	0,5	0,520450
10,783667	0,5	0,514700
10,792000	0,5	0,513100
10,800333	0,5	0,512300
10,808667	0,5	0,510300
10,817000	0,5	0,504450
10,825333	0,5	0,503750
10,833667	0,5	0,501400
10,842000	0,5	0,502400
10,850333	0,5	0,500950
10,858667	0,5	0,499200
10,867000	0,5	0,497300
10,875333	0,5	0,491900
10,883667	0,5	0,494350
10,892000	0,5	0,491850
10,900333	0,5	0,492050
10,908667	0,5	0,490600
10,917000	0,5	0,489150
10,925333	0,5	0,486500
10,933667	0,5	0,488650
10,942000	0,5	0,483850
10,950333	0,5	0,488350
10,958667	0,5	0,483700
10,967000	0,5	0,482450
10,975333	0,5	0,479050
10,983667	0,5	0,477750
10,992000	0,5	0,481000
11,000333	0,5	0,481000
11,008667	0,5	0,478650
11,017000	0,5	0,481250
11,025333	0,5	0,482050
11,033667	0,5	0,482850
11,042000	0,5	0,485400
11,050333	0,5	0,486300
11,058667	0,5	0,488600
11,067000	0,5	0,488700
11,075333	0,5	0,493950
11,083667	0,5	0,489600
11,092000	0,5	0,490000
11,100333	0,5	0,492650
11,108667	0,5	0,490100
11,117000	0,5	0,486600
11,125333	0,5	0,485350
11,133667	0,5	0,484250
11,142000	0,5	0,486550
11,150333	0,5	0,486600
11,158667	0,5	0,489250
11,167000	0,5	0,488300
11,175333	0,5	0,492150
11,183667	0,5	0,490450
11,192000	0,5	0,492950
11,200333	0,5	0,496150
11,208667	0,5	0,496000
11,217000	0,5	0,498050
11,225333	0,5	0,501300
11,233667	0,5	0,493650
11,242000	0,5	0,501550
11,250333	0,5	0,504500
11,258667	0,5	0,506800
11,267000	0,5	0,507550
11,275333	0,5	0,509700
11,283667	0,5	0,510150
11,292000	0,5	0,516450
11,300333	0,5	0,525100
11,308667	0,5	0,528300
11,317000	0,5	0,535550
11,325333	0,5	0,536650
11,333667	0,5	0,539100
11,342000	0,5	0,542950
11,350333	0,5	0,544300
11,358667	0,5	0,546750
11,367000	0,5	0,549300
11,375333	0,5	0,547300
11,383667	0,5	0,544450
11,392000	0,5	0,545900
11,400333	0,5	0,543200
11,408667	0,5	0,539700
11,417000	0,5	0,533300
11,425333	0,5	0,525500
11,433667	0,5	0,521500
11,442000	0,5	0,521150
11,450333	0,5	0,512200
11,458667	0,5	0,507200
11,467000	0,5	0,497850
11,475333	0,5	0,492400
11,483667	0,5	0,483700
11,492000	0,5	0,475750
11,500333	0,5	0,466650
11,508667	0,5	0,460850
11,517000	0,5	0,456300
11,525333	0,5	0,447550
11,533667	0,5	0,440750
11,542000	0,5	0,435250
11,550333	0,5	0,423800
11,558667	0,5	0,421150
11,567000	0,5	0,410950
11,575333	0,5	0,406050
11,583667	0,5	0,406050
11,592000	0,5	0,401850
11,600333	0,5	0,400450
11,608667	0,5	0,397500
11,617000	0,5	0,396850
11,625333	0,5	0,394100
11,633667	0,5	0,391800
11,642000	0,5	0,388600
11,650333	0,5	0,387600
11,658667	0,5	0,387150
11,667000	0,5	0,384500
11,675333	0,5	0,376450
11,683667	0,5	0,380800
11,692000	0,5	0,375050
11,700333	0,5	0,373450
11,708667	0,5	0,370600
11,717000	0,5	0,367500
11,725333	0,5	0,365850
11,733667	0,5	0,369550
11,742000	0,5	0,368050
11,750333	0,5	0,369200
11,758667	0,5	0,371150
11,767000	0,5	0,368950
11,775333	0,5	0,368900
11,783667	0,5	0,365500
11,792000	0,5	0,365650
11,800333	0,5	0,364300
11,808667	0,5	0,367550
11,817000	0,5	0,365150
11,825333	0,5	0,360350
11,833667	0,5	0,363650
11,842000	0,5	0,363600
11,850333	0,5	0,358300
11,858667	0,5	0,358150
11,867000	0,5	0,352550
11,875333	0,5	0,357700
11,883667	0,5	0,358850
11,892000	0,5	0,357900
11,900333	0,5	0,356750
11,908667	0,5	0,357950
11,917000	0,5	0,360350
11,925333	0,5	0,363150
11,933667	0,5	0,364500
11,942000	0,5	0,362000
11,950333	0,5	0,360900
11,958667	0,5	0,359400
11,967000	0,5	0,361950
11,975333	0,5	0,361600
11,983667	0,5	0,364100
11,992000	0,5	0,363850
12,000333	0,5	0,358950
12,008667	0,5	0,355300
12,017000	0,5	0,357000
12,025333	0,5	0,360300
12,033667	0,5	0,363500
12,042000	0,5	0,365500
12,050333	0,5	0,364950
12,058667	0,5	0,366800
12,067000	0,5	0,367100
12,075333	0,5	0,369800
12,083667	0,5	0,373450
12,092000	0,5	0,376300
12,100333	0,5	0,374550
12,108667	0,5	0,381850
12,117000	0,5	0,381600
12,125333	0,5	0,383800
12,133667	0,5	0,386450
12,142000	0,5	0,387250
12,150333	0,5	0,385750
12,158667	0,5	0,385200
12,167000	0,5	0,383750
12,175333	0,5	0,391100
12,183667	0,5	0,394700
12,192000	0,5	0,395300
12,200333	0,5	0,391800
12,208667	0,5	0,393850
12,217000	0,5	0,394550
12,225333	0,5	0,396350
12,233667	0,5	0,397600
12,242000	0,5	0,394250
12,250333	0,5	0,397400
12,258667	0,5	0,397400
12,267000	0,5	0,392450
12,275333	0,5	0,394900
12,283667	0,5	0,398300
12,292000	0,5	0,393600
12,300333	0,5	0,390700
12,308667	0,5	0,386000
12,317000	0,5	0,388700
12,325333	0,5	0,392150
12,333667	0,5	0,397400
12,342000	0,5	0,397950
12,350333	0,5	0,402650
12,358667	0,5	0,403600
12,367000	0,5	0,407750
12,375333	0,5	0,408450
12,383667	0,5	0,412350
12,392000	0,5	0,414000
12,400333	0,5	0,420100
12,408667	0,5	0,415150
12,417000	0,5	0,421300
12,425333	0,5	0,426700
12,433667	0,5	0,428350
12,442000	0,5	0,429900
12,450333	0,5	0,425000
12,458667	0,5	0,428250
12,467000	0,5	0,435650
12,475333	0,5	0,439150
12,483667	0,5	0,442750
12,492000	0,5	0,445100
12,500333	0,5	0,448000
12,508667	0,5	0,446350
12,517000	0,5	0,446550
12,525333	0,5	0,451650
12,533667	0,5	0,446150
12,542000	0,5	0,448500
12,550333	0,5	0,444900
12,558667	0,5	0,440600
12,567000	0,5	0,437200
12,575333	0,5	0,437800
12,583667	0,5	0,436850
12,592000	0,5	0,431100
12,600333	0,5	0,424950
12,608667	0,5	0,422200
12,617000	0,5	0,422950
12,625333	0,5	0,421750
12,633667	0,5	0,418050
12,642000	0,5	0,417400
12,650333	0,5	0,415500
12,658667	0,5	0,414950
12,667000	0,5	0,415300
12,675333	0,5	0,409700
12,683667	0,5	0,410150
12,692000	0,5	0,409700
12,700333	0,5	0,411000
12,708667	0,5	0,402600
12,717000	0,5	0,408250
12,725333	0,5	0,403550
12,733667	0,5	0,404300
12,742000	0,5	0,399050
12,750333	0,5	0,392200
12,758667	0,5	0,401000
12,767000	0,5	0,405700
12,775333	0,5	0,402100
12,783667	0,5	0,401600
12,792000	0,5	0,402950
12,800333	0,5	0,404600
12,808667	0,5	0,405800
12,817000	0,5	0,398850
12,825333	0,5	0,403150
12,833667	0,5	0,400100
12,842000	0,5	0,402900
12,850333	0,5	0,397550
12,858667	0,5	0,389850
12,867000	0,5	0,396500
12,875333	0,5	0,392300
12,883667	0,5	0,385300
12,892000	0,5	0,382350
12,900333	0,5	0,379200
12,908667	0,5	0,382000
12,917000	0,5	0,379700
12,925333	0,5	0,377350
12,933667	0,5	0,381450
12,942000	0,5	0,382250
12,950333	0,5	0,380550
12,958667	0,5	0,378950
12,967000	0,5	0,378200
12,975333	0,5	0,374400
12,983667	0,5	0,378000
12,992000	0,5	0,373350
13,000333	0,5	0,368950
13,008667	0,5	0,369700
13,017000	0,5	0,372400
13,025333	0,5	0,366250
13,033667	0,5	0,369350
13,042000	0,5	0,362150
13,050333	0,5	0,365550
13,058667	0,5	0,366250
13,067000	0,5	0,369850
13,075333	0,5	0,369400
13,083667	0,5	0,373550
13,092000	0,5	0,372650
13,100333	0,5	0,374600
13,108667	0,5	0,372850
13,117000	0,5	0,370450
13,125333	0,5	0,370200
13,133667	0,5	0,371950
13,142000	0,5	0,374250
13,150333	0,5	0,366400
13,158667	0,5	0,372600
13,167000	0,5	0,371850
13,175333	0,5	0,369950
13,183667	0,5	0,370050
13,192000	0,5	0,362000
13,200333	0,5	0,367850
13,208667	0,5	0,374200
13,217000	0,5	0,370750
13,225333	0,5	0,370350
13,233667	0,5	0,367850
13,242000	0,5	0,374700
13,250333	0,5	0,375350
13,258667	0,5	0,378650
13,267000	0,5	0,380000
13,275333	0,5	0,380300
13,283667	0,5	0,382450
13,292000	0,5	0,380550
13,300333	0,5	0,371600
13,308667	0,5	0,382300
13,317000	0,5	0,379350
13,325333	0,5	0,372950
13,333667	0,5	0,375200
13,342000	0,5	0,370750
13,350333	0,5	0,380500
13,358667	0,5	0,380200
13,367000	0,5	0,381800
13,375333	0,5	0,381850
13,383667	0,5	0,385600
13,392000	0,5	0,382450
13,400333	0,5	0,383300
13,408667	0,5	0,383450
13,417000	0,5	0,383700
13,425333	0,5	0,386650
13,433667	0,5	0,382550
13,442000	0,5	0,382200
13,450333	0,5	0,379600
13,458667	0,5	0,384750
13,467000	0,5	0,382200
13,475333	0,5	0,378100
13,483667	0,5	0,372500
13,492000	0,5	0,373900
13,500333	0,5	0,374600
13,508667	0,5	0,375450
13,517000	0,5	0,377650
13,525333	0,5	0,380500
13,533667	0,5	0,378350
13,542000	0,5	0,381250
13,550333	0,5	0,378550
13,558667	0,5	0,384500
13,567000	0,5	0,378900
13,575333	0,5	0,385150
13,583667	0,5	0,381900
13,592000	0,5	0,380000
13,600333	0,5	0,379600
13,608667	0,5	0,382400
13,617000	0,5	0,378800
13,625333	0,5	0,381200
13,633667	0,5	0,373600
13,642000	0,5	0,377050
13,650333	0,5	0,383550
13,658667	0,5	0,385150
13,667000	0,5	0,388300
13,675333	0,5	0,386000
13,683667	0,5	0,389450
13,692000	0,5	0,391250
13,700333	0,5	0,393800
13,708667	0,5	0,391700
13,717000	0,5	0,395800
13,725333	0,5	0,397750
13,733667	0,5	0,393700
13,742000	0,5	0,393450
13,750333	0,5	0,404150
13,758667	0,5	0,402950
13,767000	0,5	0,403850
13,775333	0,5	0,401900
13,783667	0,5	0,400500
13,792000	0,5	0,406650
13,800333	0,5	0,409600
13,808667	0,5	0,407250
13,817000	0,5	0,407400
13,825333	0,5	0,406000
13,833667	0,5	0,404750
13,842000	0,5	0,401100
13,850333	0,5	0,401100
13,858667	0,5	0,400000
13,867000	0,5	0,401200
13,875333	0,5	0,402550
13,883667	0,5	0,396450
13,892000	0,5	0,394850
13,900333	0,5	0,396250
13,908667	0,5	0,395050
13,917000	0,5	0,386700
13,925333	0,5	0,385500
13,933667	0,5	0,385150
13,942000	0,5	0,387100
13,950333	0,5	0,386200
13,958667	0,5	0,389050
13,967000	0,5	0,388650
13,975333	0,5	0,391000
13,983667	0,5	0,390550
13,992000	0,5	0,388950
14,000333	0,5	0,392350
14,008667	0,5	0,391650
14,017000	0,5	0,396000
14,025333	0,5	0,396750
14,033667	0,5	0,387100
14,042000	0,5	0,387600
14,050333	0,5	0,388700
14,058667	0,5	0,388100
14,067000	0,5	0,386900
14,075333	0,5	0,377750
14,083667	0,5	0,381300
14,092000	0,5	0,381050
14,100333	0,5	0,387550
14,108667	0,5	0,385700
14,117000	0,5	0,391350
14,125333	0,5	0,388900
14,133667	0,5	0,393950
14,142000	0,5	0,388100
14,150333	0,5	0,386450
14,158667	0,5	0,387400
14,167000	0,5	0,392800
14,175333	0,5	0,384100
14,183667	0,5	0,378500
14,192000	0,5	0,381550
14,200333	0,5	0,378450
14,208667	0,5	0,377900
14,217000	0,5	0,369700
14,225333	0,5	0,367750
14,233667	0,5	0,374450
14,242000	0,5	0,377100
14,250333	0,5	0,375750
14,258667	0,5	0,381950
14,267000	0,5	0,383800
14,275333	0,5	0,386650
14,283667	0,5	0,384900
14,292000	0,5	0,386650
14,300333	0,5	0,385200
14,308667	0,5	0,386350
14,317000	0,5	0,385050
14,325333	0,5	0,377200
14,333667	0,5	0,380200
14,342000	0,5	0,382600
14,350333	0,5	0,379400
14,358667	0,5	0,377500
14,367000	0,5	0,371700
14,375333	0,5	0,370500
14,383667	0,5	0,380000
14,392000	0,5	0,377050
14,400333	0,5	0,378350
14,408667	0,5	0,378400
14,417000	0,5	0,379700
14,425333	0,5	0,378900
14,433667	0,5	0,381750
14,442000	0,5	0,380400
14,450333	0,5	0,374900
14,458667	0,5	0,379850
14,467000	0,5	0,384700
14,475333	0,5	0,371050
14,483667	0,5	0,377400
14,492000	0,5	0,373500
14,500333	0,5	0,372300
14,508667	0,5	0,364350
14,517000	0,5	0,352500
14,525333	0,5	0,358950
14,533667	0,5	0,360350
14,542000	0,5	0,361800
14,550333	0,5	0,356700
14,558667	0,5	0,353500
14,567000	0,5	0,353000
14,575333	0,5	0,354700
14,583667	0,5	0,350000
14,592000	0,5	0,350150
14,600333	0,5	0,346050
14,608667	0,5	0,354750
14,617000	0,5	0,350800
14,625333	0,5	0,347050
14,633667	0,5	0,350550
14,642000	0,5	0,347950
14,650333	0,5	0,344050
14,658667	0,5	0,336150
14,667000	0,5	0,333300
14,675333	0,5	0,337300
14,683667	0,5	0,337350
14,692000	0,5	0,339700
14,700333	0,5	0,341350
14,708667	0,5	0,340900
14,717000	0,5	0,344350
14,725333	0,5	0,342550
14,733667	0,5	0,348700
14,742000	0,5	0,346950
14,750333	0,5	0,352050
14,758667	0,5	0,348200
14,767000	0,5	0,347200
14,775333	0,5	0,352250
14,783667	0,5	0,353100
14,792000	0,5	0,351450
14,800333	0,5	0,350450
14,808667	0,5	0,339250
14,817000	0,5	0,342400
14,825333	0,5	0,343850
14,833667	0,5	0,344950
14,842000	0,5	0,344400
14,850333	0,5	0,348950
14,858667	0,5	0,346850
14,867000	0,5	0,351400
14,875333	0,5	0,357750
14,883667	0,5	0,356650
14,892000	0,5	0,360000
14,900333	0,5	0,362600
14,908667	0,5	0,366650
14,917000	0,5	0,353400
14,925333	0,5	0,361000
14,933667	0,5	0,358450
14,942000	0,5	0,358800
14,950333	0,5	0,350550
14,958667	0,5	0,341500
14,967000	0,5	0,345400
14,975333	0,5	0,350550
14,983667	0,5	0,345550
14,992000	0,5	0,352200
15,000333	0,5	0,349300
15,008667	0,5	0,353700
15,017000	0,5	0,353900
15,025333	0,5	0,356200
15,033667	0,5	0,358350
15,042000	0,5	0,353650
15,050333	0,5	0,360050
15,058667	0,5	0,356650
15,067000	0,5	0,344950
15,075333	0,5	0,355950
15,083667	0,5	0,356100
15,092000	0,5	0,353100
15,100333	0,5	0,350800
15,108667	0,5	0,341650
15,117000	0,5	0,352400
15,125333	0,5	0,347900
15,133667	0,5	0,350800
15,142000	0,5	0,347750
15,150333	0,5	0,350700
15,158667	0,5	0,349900
15,167000	0,5	0,345650
15,175333	0,5	0,350150
15,183667	0,5	0,344550
15,192000	0,5	0,347050
15,200333	0,5	0,347600
15,208667	0,5	0,345750
15,217000	0,5	0,345400
15,225333	0,5	0,349200
15,233667	0,5	0,347800
15,242000	0,5	0,342650
15,250333	0,5	0,334000
15,258667	0,5	0,336300
15,267000	0,5	0,332700
15,275333	0,5	0,340500
15,283667	0,5	0,339250
15,292000	0,5	0,344650
15,300333	0,5	0,343850
15,308667	0,5	0,348650
15,317000	0,5	0,350950
15,325333	0,5	0,352700
15,333667	0,5	0,354900
15,342000	0,5	0,359750
15,350333	0,5	0,362750
15,358667	0,5	0,360150
15,367000	0,5	0,362700
15,375333	0,5	0,366450
15,383667	0,5	0,364000
15,392000	0,5	0,357700
15,400333	0,5	0,357200
15,408667	0,5	0,352550
15,417000	0,5	0,357450
15,425333	0,5	0,354450
15,433667	0,5	0,359500
15,442000	0,5	0,356950
15,450333	0,5	0,362300
15,458667	0,5	0,363000
15,467000	0,5	0,363750
15,475333	0,5	0,360000
15,483667	0,5	0,360550
15,492000	0,5	0,364650
15,500333	0,5	0,360250
15,508667	0,5	0,360700
15,517000	0,5	0,365800
15,525333	0,5	0,365850
15,533667	0,5	0,365050
15,542000	0,5	0,357350
15,550333	0,5	0,352200
15,558667	0,5	0,358150
15,567000	0,5	0,356450
15,575333	0,5	0,358900
15,583667	0,5	0,357700
15,592000	0,5	0,362350
15,600333	0,5	0,361100
15,608667	0,5	0,365700
15,617000	0,5	0,364350
15,625333	0,5	0,367500
15,633667	0,5	0,365250
15,642000	0,5	0,370000
15,650333	0,5	0,356650
15,658667	0,5	0,368400
15,667000	0,5	0,369600
15,675333	0,5	0,370000
15,683667	0,5	0,368850
15,692000	0,5	0,357900
15,700333	0,5	0,366800
15,708667	0,5	0,370450
15,717000	0,5	0,374700
15,725333	0,5	0,376050
15,733667	0,5	0,377350
15,742000	0,5	0,376500
15,750333	0,5	0,381100
15,758667	0,5	0,380100
15,767000	0,5	0,385250
15,775333	0,5	0,377100
15,783667	0,5	0,382750
15,792000	0,5	0,384350
15,800333	0,5	0,378150
15,808667	0,5	0,388350
15,817000	0,5	0,391350
15,825333	0,5	0,391500
15,833667	0,5	0,389850
15,842000	0,5	0,379550
15,850333	0,5	0,386250
15,858667	0,5	0,392150
15,867000	0,5	0,395150
15,875333	0,5	0,397300
15,883667	0,5	0,398200
15,892000	0,5	0,402150
15,900333	0,5	0,404600
15,908667	0,5	0,414700
15,917000	0,5	0,410100
15,925333	0,5	0,411700
15,933667	0,5	0,408000
15,942000	0,5	0,416950
15,950333	0,5	0,412250
15,958667	0,5	0,428200
15,967000	0,5	0,424450
15,975333	0,5	0,422750
15,983667	0,5	0,416850
15,992000	0,5	0,412150
16,000333	0,5	0,424400
16,008667	0,5	0,427000
16,017000	0,5	0,427450
16,025333	0,5	0,432550
16,033667	0,5	0,436950
16,042000	0,5	0,438200
16,050333	0,5	0,444200
16,058667	0,5	0,446150
16,067000	0,5	0,450600
16,075333	0,5	0,448650
16,083667	0,5	0,452100
16,092000	0,5	0,440650
16,100333	0,5	0,442700
16,108667	0,5	0,444350
16,117000	0,5	0,442450
16,125333	0,5	0,432000
16,133667	0,5	0,427600
16,142000	0,5	0,421350
16,150333	0,5	0,429950
16,158667	0,5	0,427550
16,167000	0,5	0,430500
16,175333	0,5	0,433350
16,183667	0,5	0,430600
16,192000	0,5	0,434500
16,200333	0,5	0,435850
16,208667	0,5	0,436000
16,217000	0,5	0,436500
16,225333	0,5	0,441750
16,233667	0,5	0,440650
16,242000	0,5	0,437100
16,250333	0,5	0,440900
16,258667	0,5	0,443150
16,267000	0,5	0,439650
16,275333	0,5	0,438050
16,283667	0,5	0,425900
16,292000	0,5	0,431200
16,300333	0,5	0,436650
16,308667	0,5	0,440450
16,317000	0,5	0,440450
16,325333	0,5	0,448850
16,333667	0,5	0,442800
16,342000	0,5	0,448900
16,350333	0,5	0,446850
16,358667	0,5	0,446800
16,367000	0,5	0,452750
16,375333	0,5	0,453800
16,383667	0,5	0,444450
16,392000	0,5	0,449000
16,400333	0,5	0,456300
16,408667	0,5	0,452300
16,417000	0,5	0,456650
16,425333	0,5	0,446850
16,433667	0,5	0,449300
16,442000	0,5	0,451750
16,450333	0,5	0,459200
16,458667	0,5	0,458950
16,467000	0,5	0,464750
16,475333	0,5	0,468150
16,483667	0,5	0,470850
16,492000	0,5	0,472250
16,500333	0,5	0,481300
16,508667	0,5	0,481950
16,517000	0,5	0,485550
16,525333	0,5	0,488600
16,533667	0,5	0,478450
16,542000	0,5	0,487550
16,550333	0,5	0,490250
16,558667	0,5	0,491950
16,567000	0,5	0,485950
16,575333	0,5	0,475600
16,583667	0,5	0,481550
16,592000	0,5	0,484800
16,600333	0,5	0,482700
16,608667	0,5	0,489500
16,617000	0,5	0,491800
16,625333	0,5	0,498600
16,633667	0,5	0,496550
16,642000	0,5	0,507150
16,650333	0,5	0,505200
16,658667	0,5	0,509000
16,667000	0,5	0,515650
16,675333	0,5	0,523250
16,683667	0,5	0,511700
16,692000	0,5	0,523200
16,700333	0,5	0,531650
16,708667	0,5	0,528250
16,717000	0,5	0,527650
16,725333	0,5	0,520650
16,733667	0,5	0,530550
16,742000	0,5	0,530400
16,750333	0,5	0,537000
16,758667	0,5	0,537600
16,767000	0,5	0,542200
16,775333	0,5	0,544150
16,783667	0,5	0,553650
16,792000	0,5	0,551650
16,800333	0,5	0,556750
16,808667	0,5	0,560650
16,817000	0,5	0,571750
16,825333	0,5	0,569600
16,833667	0,5	0,572900
16,842000	0,5	0,579500
16,850333	0,5	0,585250
16,858667	0,5	0,581200
16,867000	0,5	0,578300
16,875333	0,5	0,576350
16,883667	0,5	0,585700
16,892000	0,5	0,589400
16,900333	0,5	0,591100
16,908667	0,5	0,598100
16,917000	0,5	0,600400
16,925333	0,5	0,606950
16,933667	0,5	0,606800
16,942000	0,5	0,609950
16,950333	0,5	0,610500
16,958667	0,5	0,618150
16,967000	0,5	0,621950
16,975333	0,5	0,624000
16,983667	0,5	0,627000
16,992000	0,5	0,630500
17,000333	0,5	0,630300
17,008667	0,5	0,630750
17,017000	0,5	0,624600
17,025333	0,5	0,625650
17,033667	0,5	0,643050
17,042000	0,5	0,642300
17,050333	0,5	0,645000
17,058667	0,5	0,648000
17,067000	0,5	0,651650
17,075333	0,5	0,650300
17,083667	0,5	0,657050
17,092000	0,5	0,652600
17,100333	0,5	0,653200
17,108667	0,5	0,656350
17,117000	0,5	0,656300
17,125333	0,5	0,651000
17,133667	0,5	0,662100
17,142000	0,5	0,660550
17,150333	0,5	0,665200
17,158667	0,5	0,657100
17,167000	0,5	0,650600
17,175333	0,5	0,652900
17,183667	0,5	0,657000
17,192000	0,5	0,661350
17,200333	0,5	0,658500
17,208667	0,5	0,662650
17,217000	0,5	0,663950
17,225333	0,5	0,668300
17,233667	0,5	0,670750
17,242000	0,5	0,670350
17,250333	0,5	0,667600
17,258667	0,5	0,677050
17,267000	0,5	0,665200
17,275333	0,5	0,665600
17,283667	0,5	0,670200
17,292000	0,5	0,671800
17,300333	0,5	0,658300
17,308667	0,5	0,650200
17,317000	0,5	0,649400
17,325333	0,5	0,655000
17,333667	0,5	0,651750
17,342000	0,5	0,656150
17,350333	0,5	0,655850
17,358667	0,5	0,657400
17,367000	0,5	0,658900
17,375333	0,5	0,658400
17,383667	0,5	0,660750
17,392000	0,5	0,660350
17,400333	0,5	0,660050
17,408667	0,5	0,660300
17,417000	0,5	0,650600
17,425333	0,5	0,661850
17,433667	0,5	0,666800
17,442000	0,5	0,661400
17,450333	0,5	0,659300
17,458667	0,5	0,643700
17,467000	0,5	0,655050
17,475333	0,5	0,653850
17,483667	0,5	0,656650
17,492000	0,5	0,653200
17,500333	0,5	0,655650
17,508667	0,5	0,653650
17,517000	0,5	0,656300
17,525333	0,5	0,656950
17,533667	0,5	0,655500
17,542000	0,5	0,659100
17,550333	0,5	0,660250
17,558667	0,5	0,666600
17,567000	0,5	0,658150
17,575333	0,5	0,672950
17,583667	0,5	0,668700
17,592000	0,5	0,669700
17,600333	0,5	0,656800
17,608667	0,5	0,649550
17,617000	0,5	0,649650
17,625333	0,5	0,656650
17,633667	0,5	0,652900
17,642000	0,5	0,659300
17,650333	0,5	0,657400
17,658667	0,5	0,660600
17,667000	0,5	0,656900
17,675333	0,5	0,662350
17,683667	0,5	0,661550
17,692000	0,5	0,661800
17,700333	0,5	0,664650
17,708667	0,5	0,657900
17,717000	0,5	0,658050
17,725333	0,5	0,663350
17,733667	0,5	0,659450
17,742000	0,5	0,652700
17,750333	0,5	0,647500
17,758667	0,5	0,634000
17,767000	0,5	0,641950
17,775333	0,5	0,641050
17,783667	0,5	0,644700
17,792000	0,5	0,636900
17,800333	0,5	0,644500
17,808667	0,5	0,636050
17,817000	0,5	0,640400
17,825333	0,5	0,639600
17,833667	0,5	0,642250
17,842000	0,5	0,648850
17,850333	0,5	0,649800
17,858667	0,5	0,638500
17,867000	0,5	0,640600
17,875333	0,5	0,647100
17,883667	0,5	0,642900
17,892000	0,5	0,640500
17,900333	0,5	0,629050
17,908667	0,5	0,626900
17,917000	0,5	0,626750
17,925333	0,5	0,631150
17,933667	0,5	0,630150
17,942000	0,5	0,637650
17,950333	0,5	0,634350
17,958667	0,5	0,636750
17,967000	0,5	0,635650
17,975333	0,5	0,636100
17,983667	0,5	0,637400
17,992000	0,5	0,645850
18,000333	0,5	0,637800
18,008667	0,5	0,633000
18,017000	0,5	0,636300
18,025333	0,5	0,640000
18,033667	0,5	0,634600
18,042000	0,5	0,626000
18,050333	0,5	0,626200
18,058667	0,5	0,626850
18,067000	0,5	0,632800
18,075333	0,5	0,631500
18,083667	0,5	0,632950
18,092000	0,5	0,632450
18,100333	0,5	0,638850
18,108667	0,5	0,635400
18,117000	0,5	0,642400
18,125333	0,5	0,641650
18,133667	0,5	0,646400
18,142000	0,5	0,650300
18,150333	0,5	0,645850
18,158667	0,5	0,645850
18,167000	0,5	0,651850
18,175333	0,5	0,648200
18,183667	0,5	0,646200
18,192000	0,5	0,637400
18,200333	0,5	0,639150
18,208667	0,5	0,648500
18,217000	0,5	0,641800
18,225333	0,5	0,647000
18,233667	0,5	0,652200
18,242000	0,5	0,656350
18,250333	0,5	0,655500
18,258667	0,5	0,661900
18,267000	0,5	0,663950
18,275333	0,5	0,664650
18,283667	0,5	0,671550
18,292000	0,5	0,683000
18,300333	0,5	0,672700
18,308667	0,5	0,686200
18,317000	0,5	0,679450
18,325333	0,5	0,681200
18,333667	0,5	0,675750
18,342000	0,5	0,656400
18,350333	0,5	0,662350
18,358667	0,5	0,667850
18,367000	0,5	0,667700
18,375333	0,5	0,667050
18,383667	0,5	0,670300
18,392000	0,5	0,667200
18,400333	0,5	0,668650
18,408667	0,5	0,666750
18,417000	0,5	0,664450
18,425333	0,5	0,668000
18,433667	0,5	0,677050
18,442000	0,5	0,671600
18,450333	0,5	0,669600
18,458667	0,5	0,672550
18,467000	0,5	0,668800
18,475333	0,5	0,666400
18,483667	0,5	0,658850
18,492000	0,5	0,653100
18,500333	0,5	0,659000
18,508667	0,5	0,667400
18,517000	0,5	0,663050
18,525333	0,5	0,665550
18,533667	0,5	0,669050
18,542000	0,5	0,672300
18,550333	0,5	0,674100
18,558667	0,5	0,677800
18,567000	0,5	0,676350
18,575333	0,5	0,688650
18,583667	0,5	0,691050
18,592000	0,5	0,682600
18,600333	0,5	0,689300
18,608667	0,5	0,695500
18,617000	0,5	0,683950
18,625333	0,5	0,686550
18,633667	0,5	0,678150
18,642000	0,5	0,677050
18,650333	0,5	0,681750
18,658667	0,5	0,688800
18,667000	0,5	0,688550
18,675333	0,5	0,690150
18,683667	0,5	0,693000
18,692000	0,5	0,697450
18,700333	0,5	0,698050
18,708667	0,5	0,698850
18,717000	0,5	0,700150
18,725333	0,5	0,709250
18,733667	0,5	0,712500
18,742000	0,5	0,698500
18,750333	0,5	0,707450
18,758667	0,5	0,706450
18,767000	0,5	0,703150
18,775333	0,5	0,692900
18,783667	0,5	0,686100
18,792000	0,5	0,693650
18,800333	0,5	0,697850
18,808667	0,5	0,695150
18,817000	0,5	0,696600
18,825333	0,5	0,694850
18,833667	0,5	0,701700
18,842000	0,5	0,705450
18,850333	0,5	0,708050
18,858667	0,5	0,708500
18,867000	0,5	0,706100
18,875333	0,5	0,718550
18,883667	0,5	0,712950
18,892000	0,5	0,715450
18,900333	0,5	0,719600
18,908667	0,5	0,718950
18,917000	0,5	0,713100
18,925333	0,5	0,708300
18,933667	0,5	0,704950
18,942000	0,5	0,717250
18,950333	0,5	0,711150
18,958667	0,5	0,717800
18,967000	0,5	0,719250
18,975333	0,5	0,721900
18,983667	0,5	0,725150
18,992000	0,5	0,728300
19,000333	0,5	0,729650
19,008667	0,5	0,726900
19,017000	0,5	0,736900
19,025333	0,5	0,737000
19,033667	0,5	0,728200
19,042000	0,5	0,733550
19,050333	0,5	0,734950
19,058667	0,5	0,731250
19,067000	0,5	0,723800
19,075333	0,5	0,710450
19,083667	0,5	0,716850
19,092000	0,5	0,719100
19,100333	0,5	0,726600
19,108667	0,5	0,725000
19,117000	0,5	0,731800
19,125333	0,5	0,727000
19,133667	0,5	0,733100
19,142000	0,5	0,739850
19,150333	0,5	0,738250
19,158667	0,5	0,743150
19,167000	0,5	0,745750
19,175333	0,5	0,747600
19,183667	0,5	0,744400
19,192000	0,5	0,751250
19,200333	0,5	0,754700
19,208667	0,5	0,756100
19,217000	0,5	0,740850
19,225333	0,5	0,733800
19,233667	0,5	0,732400
19,242000	0,5	0,743850
19,250333	0,5	0,744550
19,258667	0,5	0,749250
19,267000	0,5	0,749850
19,275333	0,5	0,756050
19,283667	0,5	0,755150
19,292000	0,5	0,759400
19,300333	0,5	0,761000
19,308667	0,5	0,766600
19,317000	0,5	0,772950
19,325333	0,5	0,764400
19,333667	0,5	0,769900
19,342000	0,5	0,777950
19,350333	0,5	0,777800
19,358667	0,5	0,775950
19,367000	0,5	0,766550
19,375333	0,5	0,767800
19,383667	0,5	0,774000
19,392000	0,5	0,774600
19,400333	0,5	0,781950
19,408667	0,5	0,783800
19,417000	0,5	0,792150
19,425333	0,5	0,785900
19,433667	0,5	0,794800
19,442000	0,5	0,798550
19,450333	0,5	0,804100
19,458667	0,5	0,814750
19,467000	0,5	0,819750
19,475333	0,5	0,806750
19,483667	0,5	0,817650
19,492000	0,5	0,823350
19,500333	0,5	0,822250
19,508667	0,5	0,819150
19,517000	0,5	0,809650
19,525333	0,5	0,824600
19,533667	0,5	0,824500
19,542000	0,5	0,830500
19,550333	0,5	0,831100
19,558667	0,5	0,843350
19,567000	0,5	0,842900
19,575333	0,5	0,847150
19,583667	0,5	0,847650
19,592000	0,5	0,855100
19,600333	0,5	0,852800
19,608667	0,5	0,864800
19,617000	0,5	0,862350
19,625333	0,5	0,867950
19,633667	0,5	0,868550
19,642000	0,5	0,871800
19,650333	0,5	0,869700
19,658667	0,5	0,862850
19,667000	0,5	0,861300
19,675333	0,5	0,864800
19,683667	0,5	0,871950
19,692000	0,5	0,875400
19,700333	0,5	0,882250
19,708667	0,5	0,885600
19,717000	0,5	0,891600
19,725333	0,5	0,896350
19,733667	0,5	0,895400
19,742000	0,5	0,896750
19,750333	0,5	0,906600
19,758667	0,5	0,912200
19,767000	0,5	0,912100
19,775333	0,5	0,923450
19,783667	0,5	0,930400
19,792000	0,5	0,928700
19,800333	0,5	0,929150
19,808667	0,5	0,918150
19,817000	0,5	0,925700
19,825333	0,5	0,937100
19,833667	0,5	0,934450
19,842000	0,5	0,941550
19,850333	0,5	0,944100
19,858667	0,5	0,951500
19,867000	0,5	0,949500
19,875333	0,5	0,956850
19,883667	0,5	0,952900
19,892000	0,5	0,960600
19,900333	0,5	0,967000
19,908667	0,5	0,973000
19,917000	0,5	0,963900
19,925333	0,5	0,978300
19,933667	0,5	0,972350
19,942000	0,5	0,977600
19,950333	0,5	0,970700
19,958667	0,5	0,966000
19,967000	0,5	0,975050
19,975333	0,5	0,978150
19,983667	0,5	0,980450
19,992000	0,5	0,985300
20,000333	0,5	0,993150
20,008667	0,5	0,996950
20,017000	0,5	1,000700
20,025333	0,5	1,001750
20,033667	0,5	1,004600
20,042000	0,5	1,008850
20,050333	0,5	1,019900
20,058667	0,5	1,014800
20,067000	0,5	1,021750
20,075333	0,5	1,027050
20,083667	0,5	1,023800
20,092000	0,5	1,021350
20,100333	0,5	1,014050
20,108667	0,5	1,009950
20,117000	0,5	1,014750
20,125333	0,5	1,018650
20,133667	0,5	1,020300
20,142000	0,5	1,021300
20,150333	0,5	1,021950
20,158667	0,5	1,030050
20,167000	0,5	1,033000
20,175333	0,5	1,040050
20,183667	0,5	1,039200
20,192000	0,5	1,053750
20,200333	0,5	1,053500
20,208667	0,5	1,051250
20,217000	0,5	1,060100
20,225333	0,5	1,068200
20,233667	0,5	1,060800
20,242000	0,5	1,056050
20,250333	0,5	1,053200
20,258667	0,5	1,061200
20,267000	0,5	1,066850
20,275333	0,5	1,073750
20,283667	0,5	1,075350
20,292000	0,5	1,081200
20,300333	0,5	1,090800
20,308667	0,5	1,094900
20,317000	0,5	1,104300
20,325333	0,5	1,106150
20,333667	0,5	1,116400
20,342000	0,5	1,122000
20,350333	0,5	1,123350
20,358667	0,5	1,126000
20,367000	0,5	1,138550
20,375333	0,5	1,143350
20,383667	0,5	1,146800
20,392000	0,5	1,138300
20,400333	0,5	1,143650
20,408667	0,5	1,156250
20,417000	0,5	1,162100
20,425333	0,5	1,161900
20,433667	0,5	1,169950
20,442000	0,5	1,170550
20,450333	0,5	1,176950
20,458667	0,5	1,184050
20,467000	0,5	1,185400
20,475333	0,5	1,190150
20,483667	0,5	1,203000
20,492000	0,5	1,214200
20,500333	0,5	1,204250
20,508667	0,5	1,211600
20,517000	0,5	1,213750
20,525333	0,5	1,223200
20,533667	0,5	1,216200
20,542000	0,5	1,203300
20,550333	0,5	1,215950
20,558667	0,5	1,227250
20,567000	0,5	1,234300
20,575333	0,5	1,240200
20,583667	0,5	1,245350
20,592000	0,5	1,250700
20,600333	0,5	1,259300
20,608667	0,5	1,268100
20,617000	0,5	1,279950
20,625333	0,5	1,277450
20,633667	0,5	1,300200
20,642000	0,5	1,309700
20,650333	0,5	1,304100
20,658667	0,5	1,316650
20,667000	0,5	1,322100
20,675333	0,5	1,322450
20,683667	0,5	1,323750
20,692000	0,5	1,319450
20,700333	0,5	1,336900
20,708667	0,5	1,342250
20,717000	0,5	1,350050
20,725333	0,5	1,359500
20,733667	0,5	1,374200
20,742000	0,5	1,380750
20,750333	0,5	1,386600
20,758667	0,5	1,397350
20,767000	0,5	1,398450
20,775333	0,5	1,419250
20,783667	0,5	1,436150
20,792000	0,5	1,444400
20,800333	0,5	1,443350
20,808667	0,5	1,452450
20,817000	0,5	1,454100
20,825333	0,5	1,454350
20,833667	0,5	1,448500
20,842000	0,5	1,462700
20,850333	0,5	1,481600
20,858667	0,5	1,510600
20,867000	0,5	1,537750
20,875333	0,5	1,570300
20,883667	0,5	1,597550
20,892000	0,5	1,616600
20,900333	0,5	1,633750
20,908667	0,5	1,633800
20,917000	0,5	1,640100
20,925333	0,5	1,651850
20,933667	0,5	1,655050
20,942000	0,5	1,647900
20,950333	0,5	1,643000
20,958667	0,5	1,642800
20,967000	0,5	1,648300
20,975333	0,5	1,643800
20,983667	0,5	1,644000
20,992000	0,5	1,653550
21,000333	0,5	1,662600
21,008667	0,5	1,674250
21,017000	0,5	1,687050
21,025333	0,5	1,702750
21,033667	0,5	1,714400
21,042000	0,5	1,731500
21,050333	0,5	1,740800
21,058667	0,5	1,753950
21,067000	0,5	1,774750
21,075333	0,5	1,801550
21,083667	0,5	1,820850
21,092000	0,5	1,831400
21,100333	0,5	1,848450
21,108667	0,5	1,860950
21,117000	0,5	1,863450
21,125333	0,5	1,873350
21,133667	0,5	1,899650
21,142000	0,5	1,923450
21,150333	0,5	1,949900
21,158667	0,5	1,986500
21,167000	0,5	2,021350
21,175333	0,5	2,049950
21,183667	0,5	2,070250
21,192000	0,5	2,078200
21,200333	0,5	2,084750
21,208667	0,5	2,075300
21,217000	0,5	2,090350
21,225333	0,5	2,096900
21,233667	0,5	2,085350
21,242000	0,5	2,076950
21,250333	0,5	2,073800
21,258667	0,5	2,068250
21,267000	0,5	2,062800
21,275333	0,5	2,071700
21,283667	0,5	2,091900
21,292000	0,5	2,113850
21,300333	0,5	2,133550
21,308667	0,5	2,153100
21,317000	0,5	2,173250
21,325333	0,5	2,191650
21,333667	0,5	2,206450
21,342000	0,5	2,218150
21,350333	0,5	2,221250
21,358667	0,5	2,238600
21,367000	0,5	2,264500
21,375333	0,5	2,278650
21,383667	0,5	2,287350
21,392000	0,5	2,294300
21,400333	0,5	2,302300
21,408667	0,5	2,312750
21,417000	0,5	2,308700
21,425333	0,5	2,323700
21,433667	0,5	2,340300
21,442000	0,5	2,354600
21,450333	0,5	2,373000
21,458667	0,5	2,382650
21,467000	0,5	2,404050
21,475333	0,5	2,420050
21,483667	0,5	2,444200
21,492000	0,5	2,466650
21,500333	0,5	2,483450
21,508667	0,5	2,518900
21,517000	0,5	2,549150
21,525333	0,5	2,556300
21,533667	0,5	2,572300
21,542000	0,5	2,585150
21,550333	0,5	2,598250
21,558667	0,5	2,599550
21,567000	0,5	2,609650
21,575333	0,5	2,635900
21,583667	0,5	2,655450
21,592000	0,5	2,668450
21,600333	0,5	2,686500
21,608667	0,5	2,703800
21,617000	0,5	2,720300
21,625333	0,5	2,744300
21,633667	0,5	2,765900
21,642000	0,5	2,798650
21,650333	0,5	2,823350
21,658667	0,5	2,859800
21,667000	0,5	2,882850
21,675333	0,5	2,899550
21,683667	0,5	2,909450
21,692000	0,5	2,927000
21,700333	0,5	2,929050
21,708667	0,5	2,937250
21,717000	0,5	2,961150
21,725333	0,5	2,982200
21,733667	0,5	3,005600
21,742000	0,5	3,029500
21,750333	0,5	3,051550
21,758667	0,5	3,075400
21,767000	0,5	3,104800
21,775333	0,5	3,128000
21,783667	0,5	3,151950
21,792000	0,5	3,171000
21,800333	0,5	3,209850
21,808667	0,5	3,234000
21,817000	0,5	3,242850
21,825333	0,5	3,261400
21,833667	0,5	3,271450
21,842000	0,5	3,276200
21,850333	0,5	3,290700
21,858667	0,5	3,291650
21,867000	0,5	3,322300
21,875333	0,5	3,354000
21,883667	0,5	3,383600
21,892000	0,5	3,410750
21,900333	0,5	3,441650
21,908667	0,5	3,476250
21,917000	0,5	3,513000
21,925333	0,5	3,551950
21,933667	0,5	3,585950
21,942000	0,5	3,627850
21,950333	0,5	3,678500
21,958667	0,5	3,719450
21,967000	0,5	3,757300
21,975333	0,5	3,803500
21,983667	0,5	3,833400
21,992000	0,5	3,861450
22,000333	0,5	3,879000
22,008667	0,5	3,897150
22,017000	0,5	3,918050
22,025333	0,5	3,927700
22,033667	0,5	3,935900
22,042000	0,5	3,958850
22,050333	0,5	3,983100
22,058667	0,5	3,999450
22,067000	0,5	4,031250
22,075333	0,5	4,052450
22,083667	0,5	4,082450
22,092000	0,5	4,107900
22,100333	0,5	4,140350
22,108667	0,5	4,158900
22,117000	0,5	4,199450
22,125333	0,5	4,222150
22,133667	0,5	4,253600
22,142000	0,5	4,271100
22,150333	0,5	4,300050
22,158667	0,5	4,336650
22,167000	0,5	4,380500
22,175333	0,5	4,429250
22,183667	0,5	4,473600
22,192000	0,5	4,525500
22,200333	0,5	4,563100
22,208667	0,5	4,607600
22,217000	0,5	4,642150
22,225333	0,5	4,673950
22,233667	0,5	4,707300
22,242000	0,5	4,740750
22,250333	0,5	4,772200
22,258667	0,5	4,825050
22,267000	0,5	4,874000
22,275333	0,5	4,914250
22,283667	0,5	4,952550
22,292000	0,5	4,994550
22,300333	0,5	5,047000
22,308667	0,5	5,104050
22,317000	0,5	5,162650
22,325333	0,5	5,217350
22,333667	0,5	5,280950
22,342000	0,5	5,334450
22,350333	0,5	5,403150
22,358667	0,5	5,480350
22,367000	0,5	5,574200
22,375333	0,5	5,673750
22,383667	0,5	5,761650
22,392000	0,5	5,859700
22,400333	0,5	5,969450
22,408667	0,5	6,056600
22,417000	0,5	6,119450
22,425333	0,5	6,162100
22,433667	0,5	6,193100
22,442000	0,5	6,220900
22,450333	0,5	6,261800
22,458667	0,5	6,296800
22,467000	0,5	6,344650
22,475333	0,5	6,395750
22,483667	0,5	6,448750
22,492000	0,5	6,508800
22,500333	0,5	6,564600
22,508667	0,5	6,629800
22,517000	0,5	6,690650
22,525333	0,5	6,749850
22,533667	0,5	6,782900
22,542000	0,5	6,849500
22,550333	0,5	6,937900
22,558667	0,5	6,992050
22,567000	0,5	7,046300
22,575333	0,5	7,094550
22,583667	0,5	7,130050
22,592000	0,5	7,174800
22,600333	0,5	7,218100
22,608667	0,5	7,250850
22,617000	0,5	7,266800
22,625333	0,5	7,287450
22,633667	0,5	7,295550
22,642000	0,5	7,295400
22,650333	0,5	7,300700
22,658667	0,5	7,284050
22,667000	0,5	7,270600
22,675333	0,5	7,193400
22,683667	0,5	7,180850
22,692000	0,5	7,147700
22,700333	0,5	7,122050
22,708667	0,5	7,053450
22,717000	0,5	6,977100
22,725333	0,5	6,889800
22,733667	0,5	6,787750
22,742000	0,5	6,700550
22,750333	0,5	6,600000
22,758667	0,5	6,483650
22,767000	0,5	6,370700
22,775333	0,5	6,246200
22,783667	0,5	6,110350
22,792000	0,5	5,974150
22,800333	0,5	5,831100
22,808667	0,5	5,674900
22,817000	0,5	5,505750
22,825333	0,5	5,284550
22,833667	0,5	5,141150
22,842000	0,5	4,986150
22,850333	0,5	4,810700
22,858667	0,5	4,623300
22,867000	0,5	4,438700
22,875333	0,5	4,257850
22,883667	0,5	4,075100
22,892000	0,5	3,886000
22,900333	0,5	3,707100
22,908667	0,5	3,539650
22,917000	0,5	3,362650
22,925333	0,5	3,197500
22,933667	0,5	3,027950
22,942000	0,5	2,871450
22,950333	0,5	2,710300
22,958667	0,5	2,557950
22,967000	0,5	2,423750
22,975333	0,5	2,255350
22,983667	0,5	2,126900
22,992000	0,5	1,953450
23,000333	0,5	1,806300
23,008667	0,5	1,674250
23,017000	0,5	1,556200
23,025333	0,5	1,437500
23,033667	0,5	1,309950
23,042000	0,5	1,191750
23,050333	0,5	1,087950
23,058667	0,5	0,982400
23,067000	0,5	0,882650
23,075333	0,5	0,776750
23,083667	0,5	0,686150
23,092000	0,5	0,588650
23,100333	0,5	0,504000
23,108667	0,5	0,418950
23,117000	0,5	0,356900
23,125333	0,5	0,259500
23,133667	0,5	0,176550
23,142000	0,5	0,074900
23,150333	0,5	0,019900
23,158667	0,5	-0,055450
23,167000	0,5	-0,105100
23,175333	0,5	-0,162800
23,183667	0,5	-0,224900
23,192000	0,5	-0,286500
23,200333	0,5	-0,333300
23,208667	0,5	-0,387600
23,217000	0,5	-0,438850
23,225333	0,5	-0,483200
23,233667	0,5	-0,529950
23,242000	0,5	-0,571400
23,250333	0,5	-0,613700
23,258667	0,5	-0,638500
23,267000	0,5	-0,678250
23,275333	0,5	-0,727800
23,283667	0,5	-0,779400
23,292000	0,5	-0,827200
23,300333	0,5	-0,856050
23,308667	0,5	-0,882500
23,317000	0,5	-0,909950
23,325333	0,5	-0,933100
23,333667	0,5	-0,962100
23,342000	0,5	-0,983150
23,350333	0,5	-1,010400
23,358667	0,5	-1,027850
23,367000	0,5	-1,049650
23,375333	0,5	-1,066650
23,383667	0,5	-1,086750
23,392000	0,5	-1,102100
23,400333	0,5	-1,116900
23,408667	0,5	-1,130850
23,417000	0,5	-1,150700
23,425333	0,5	-1,157950
23,433667	0,5	-1,182350
23,442000	0,5	-1,207800
23,450333	0,5	-1,221500
23,458667	0,5	-1,236350
23,467000	0,5	-1,247050
23,475333	0,5	-1,261250
23,483667	0,5	-1,270050
23,492000	0,5	-1,284000
23,500333	0,5	-1,291750
23,508667	0,5	-1,304150
23,517000	0,5	-1,308850
23,525333	0,5	-1,317400
23,533667	0,5	-1,323650
23,542000	0,5	-1,328600
23,550333	0,5	-1,338600
23,558667	0,5	-1,371650
23,567000	0,5	-1,365050
23,575333	0,5	-1,343250
23,583667	0,5	-1,352500
23,592000	0,5	-1,363950
23,600333	0,5	-1,370150
23,608667	0,5	-1,375250
23,617000	0,5	-1,381300
23,625333	0,5	-1,386200
23,633667	0,5	-1,388250
23,642000	0,5	-1,396200
23,650333	0,5	-1,399050
23,658667	0,5	-1,399850
23,667000	0,5	-1,398400
23,675333	0,5	-1,405000
23,683667	0,5	-1,400600
23,692000	0,5	-1,400450
23,700333	0,5	-1,430450
23,708667	0,5	-1,436250
23,717000	0,5	-1,434600
23,725333	0,5	-1,395450
23,733667	0,5	-1,391850
23,742000	0,5	-1,396300
23,750333	0,5	-1,393900
23,758667	0,5	-1,398000
23,767000	0,5	-1,392050
23,775333	0,5	-1,381550
23,783667	0,5	-1,380550
23,792000	0,5	-1,374000
23,800333	0,5	-1,371750
23,808667	0,5	-1,358250
23,817000	0,5	-1,357650
23,825333	0,5	-1,350050
23,833667	0,5	-1,345750
23,842000	0,5	-1,344550
23,850333	0,5	-1,411800
23,858667	0,5	-1,356000
23,867000	0,5	-1,375500
23,875333	0,5	-1,315800
23,883667	0,5	-1,315850
23,892000	0,5	-1,308100
23,900333	0,5	-1,311250
23,908667	0,5	-1,326250
23,917000	0,5	-1,303250
23,925333	0,5	-1,293100
23,933667	0,5	-1,286950
23,942000	0,5	-1,284100
23,950333	0,5	-1,273350
23,958667	0,5	-1,264600
23,967000	0,5	-1,248950
23,975333	0,5	-1,239000
23,983667	0,5	-1,230100
23,992000	0,5	-1,235800
24,000333	0,5	-1,270300
24,008667	0,5	-1,242750
24,017000	0,5	-1,216300
24,025333	0,5	-1,181700
24,033667	0,5	-1,174100
24,042000	0,5	-1,174800
24,050333	0,5	-1,169900
24,058667	0,5	-1,179850
24,067000	0,5	-1,159650
24,075333	0,5	-1,149100
24,083667	0,5	-1,139200
24,092000	0,5	-1,128900
24,100333	0,5	-1,119400
24,108667	0,5	-1,110050
24,117000	0,5	-1,099600
24,125333	0,5	-1,085100
24,133667	0,5	-1,078050
24,142000	0,5	-1,098050
24,150333	0,5	-1,111450
24,158667	0,5	-1,076550
24,167000	0,5	-1,052150
24,175333	0,5	-1,019400
24,183667	0,5	-1,018000
24,192000	0,5	-1,009700
24,200333	0,5	-1,014950
24,208667	0,5	-1,013900
24,217000	0,5	-0,997750
24,225333	0,5	-0,979400
24,233667	0,5	-0,972200
24,242000	0,5	-0,963600
24,250333	0,5	-0,951100
24,258667	0,5	-0,940400
24,267000	0,5	-0,933300
24,275333	0,5	-0,926200
24,283667	0,5	-0,913800
24,292000	0,5	-0,943300
24,300333	0,5	-0,917550
24,308667	0,5	-0,913200
24,317000	0,5	-0,888200
24,325333	0,5	-0,873100
24,333667	0,5	-0,866750
24,342000	0,5	-0,874600
24,350333	0,5	-0,874700
24,358667	0,5	-0,873850
24,367000	0,5	-0,847650
24,375333	0,5	-0,843450
24,383667	0,5	-0,830450
24,392000	0,5	-0,822050
24,400333	0,5	-0,810300
24,408667	0,5	-0,803900
24,417000	0,5	-0,791900
24,425333	0,5	-0,780800
24,433667	0,5	-0,779900
24,442000	0,5	-0,791050
24,450333	0,5	-0,786150
24,458667	0,5	-0,776350
24,467000	0,5	-0,753500
24,475333	0,5	-0,743600
24,483667	0,5	-0,743550
24,492000	0,5	-0,740300
24,500333	0,5	-0,748200
24,508667	0,5	-0,741700
24,517000	0,5	-0,737100
24,525333	0,5	-0,723750
24,533667	0,5	-0,717100
24,542000	0,5	-0,708700
24,550333	0,5	-0,703100
24,558667	0,5	-0,690900
24,567000	0,5	-0,687350
24,575333	0,5	-0,680450
24,583667	0,5	-0,679550
24,592000	0,5	-0,675250
24,600333	0,5	-0,681850
24,608667	0,5	-0,663650
24,617000	0,5	-0,652500
24,625333	0,5	-0,644300
24,633667	0,5	-0,646150
24,642000	0,5	-0,659100
24,650333	0,5	-0,652550
24,658667	0,5	-0,649700
24,667000	0,5	-0,635350
24,675333	0,5	-0,635400
24,683667	0,5	-0,628750
24,692000	0,5	-0,623150
24,700333	0,5	-0,616700
24,708667	0,5	-0,612750
24,717000	0,5	-0,610600
24,725333	0,5	-0,602900
24,733667	0,5	-0,599900
24,742000	0,5	-0,601550
24,750333	0,5	-0,600850
24,758667	0,5	-0,588800
24,767000	0,5	-0,580100
24,775333	0,5	-0,578150
24,783667	0,5	-0,575100
24,792000	0,5	-0,582550
24,800333	0,5	-0,574350
24,808667	0,5	-0,568450
24,817000	0,5	-0,564500
24,825333	0,5	-0,560600
24,833667	0,5	-0,561400
24,842000	0,5	-0,556600
24,850333	0,5	-0,555050
24,858667	0,5	-0,547900
24,867000	0,5	-0,548900
24,875333	0,5	-0,542700
24,883667	0,5	-0,545650
24,892000	0,5	-0,536750
24,900333	0,5	-0,541750
24,908667	0,5	-0,528950
24,917000	0,5	-0,526450
24,925333	0,5	-0,522100
24,933667	0,5	-0,523750
24,942000	0,5	-0,529650
24,950333	0,5	-0,519400
24,958667	0,5	-0,516200
24,967000	0,5	-0,515300
24,975333	0,5	-0,509200
24,983667	0,5	-0,506950
24,992000	0,5	-0,504200
25,000333	0,5	-0,498950
25,008667	0,5	-0,498000
25,017000	0,5	-0,496650
25,025333	0,5	-0,495050
25,033667	0,5	-0,492800
25,042000	0,5	-0,492200
25,050333	0,5	-0,490050
25,058667	0,5	-0,485450
25,067000	0,5	-0,480850
25,075333	0,5	-0,482450
25,083667	0,5	-0,481800
25,092000	0,5	-0,481500
25,100333	0,5	-0,474350
25,108667	0,5	-0,470700
25,117000	0,5	-0,470850
25,125333	0,5	-0,468200
25,133667	0,5	-0,465600
25,142000	0,5	-0,463700
25,150333	0,5	-0,456400
25,158667	0,5	-0,455250
25,167000	0,5	-0,454050
25,175333	0,5	-0,454050
25,183667	0,5	-0,449900
25,192000	0,5	-0,449400
25,200333	0,5	-0,444050
25,208667	0,5	-0,443800
25,217000	0,5	-0,442150
25,225333	0,5	-0,442300
25,233667	0,5	-0,446650
25,242000	0,5	-0,443500
25,250333	0,5	-0,442650
25,258667	0,5	-0,438600
25,267000	0,5	-0,435100
25,275333	0,5	-0,432650
25,283667	0,5	-0,430400
25,292000	0,5	-0,430400
25,300333	0,5	-0,428500
25,308667	0,5	-0,425350
25,317000	0,5	-0,424850
25,325333	0,5	-0,423650
25,333667	0,5	-0,419650
25,342000	0,5	-0,422750
25,350333	0,5	-0,419600
25,358667	0,5	-0,418100
25,367000	0,5	-0,417750
25,375333	0,5	-0,417400
25,383667	0,5	-0,416650
25,392000	0,5	-0,415500
25,400333	0,5	-0,413600
25,408667	0,5	-0,411800
25,417000	0,5	-0,411100
25,425333	0,5	-0,408400
25,433667	0,5	-0,407500
25,442000	0,5	-0,408250
25,450333	0,5	-0,405350
25,458667	0,5	-0,405600
25,467000	0,5	-0,401550
25,475333	0,5	-0,401600
25,483667	0,5	-0,398650
25,492000	0,5	-0,395550
25,500333	0,5	-0,398050
25,508667	0,5	-0,395300
25,517000	0,5	-0,396050
25,525333	0,5	-0,393900
25,533667	0,5	-0,390750
25,542000	0,5	-0,390900
25,550333	0,5	-0,388550
25,558667	0,5	-0,389150
25,567000	0,5	-0,385650
25,575333	0,5	-0,386200
25,583667	0,5	-0,384150
25,592000	0,5	-0,385850
25,600333	0,5	-0,383200
25,608667	0,5	-0,382700
25,617000	0,5	-0,380350
25,625333	0,5	-0,382000
25,633667	0,5	-0,376200
25,642000	0,5	-0,378800
25,650333	0,5	-0,378300
25,658667	0,5	-0,370100
25,667000	0,5	-0,373750
25,675333	0,5	-0,368150
25,683667	0,5	-0,365650
25,692000	0,5	-0,366600
25,700333	0,5	-0,365750
25,708667	0,5	-0,366650
25,717000	0,5	-0,363750
25,725333	0,5	-0,363750
25,733667	0,5	-0,362200
25,742000	0,5	-0,360150
25,750333	0,5	-0,362350
25,758667	0,5	-0,358000
25,767000	0,5	-0,361700
25,775333	0,5	-0,358600
25,783667	0,5	-0,354300
25,792000	0,5	-0,357250
25,800333	0,5	-0,357200
25,808667	0,5	-0,352100
25,817000	0,5	-0,350250
25,825333	0,5	-0,344050
25,833667	0,5	-0,343900
25,842000	0,5	-0,341750
25,850333	0,5	-0,340800
25,858667	0,5	-0,338000
25,867000	0,5	-0,336200
25,875333	0,5	-0,336700
25,883667	0,5	-0,336050
25,892000	0,5	-0,335450
25,900333	0,5	-0,331950
25,908667	0,5	-0,334000
25,917000	0,5	-0,330450
25,925333	0,5	-0,332500
25,933667	0,5	-0,321850
25,942000	0,5	-0,330400
25,950333	0,5	-0,328400
25,958667	0,5	-0,327350
25,967000	0,5	-0,322400
25,975333	0,5	-0,315750
25,983667	0,5	-0,320350
25,992000	0,5	-0,317850
26,000333	0,5	-0,314850
