File Path	chrom://chromeleon01/ikbm_chromeleon/2022/ICS-5000/ED1/Esteban/20220612_Cell_7_4_eg.seq/335.smp/ED_1.channel/ED_1.chm
Channel	ED_1

Injection Information:
Data Vault	ikbm_chromeleon
Injection	Std_C1ox-0.0025_1
Injection Number	9
Position	RA4
Comment	
Processing Method	Stop sequence after Cell Death
Instrument Method	ICS5000_PA200_FullNative_Ox_26min_ED1
Type	Unknown
Status	Finished
Injection Date	12.06.2022
Injection Time	19:48:52
Injection Volume (µl)	5,0
Dilution Factor	1,0000
Weight	1,0000

Chromatogram Data Information:
Time Min. (min)	0,000167
Time Max. (min)	26,000167
Data Points	3121
Detector	EDet1
Generating Data System	Chromeleon 7.2.9.11323
Exporting Data System	Chromeleon 7.2.9.0
Operator	Instrument Controller
Signal Quantity	
Signal Unit	nC
Signal Min.	-1,589550
Signal Max.	10,121700
Channel	ED_1
Driver Name	DC-5000
Channel Type	Evaluation
Min. Step (s)	0,5
Max. Step (s)	0,5
Average Step (s)	0,5

Signal Parameter Information:
Signal Info	

Chromatogram Data:
Time (min)	Step (s)	Value (nC)
0,000167	n.a.	-0,048050
0,008500	0,5	-0,046200
0,016833	0,5	-0,035700
0,025167	0,5	-0,024900
0,033500	0,5	-0,018400
0,041833	0,5	-0,006150
0,050167	0,5	-0,013500
0,058500	0,5	-0,005750
0,066833	0,5	-0,010400
0,075167	0,5	0,005000
0,083500	0,5	-0,015300
0,091833	0,5	-0,007450
0,100167	0,5	0,005300
0,108500	0,5	-0,008650
0,116833	0,5	-0,013650
0,125167	0,5	-0,003850
0,133500	0,5	0,000950
0,141833	0,5	0,025400
0,150167	0,5	0,011850
0,158500	0,5	0,011400
0,166833	0,5	0,012850
0,175167	0,5	0,020600
0,183500	0,5	0,019400
0,191833	0,5	0,014200
0,200167	0,5	0,015250
0,208500	0,5	0,007100
0,216833	0,5	0,012950
0,225167	0,5	0,014400
0,233500	0,5	0,008050
0,241833	0,5	0,010050
0,250167	0,5	0,015400
0,258500	0,5	-0,004000
0,266833	0,5	0,002850
0,275167	0,5	0,008750
0,283500	0,5	0,027600
0,291833	0,5	0,035500
0,300167	0,5	0,038050
0,308500	0,5	0,033100
0,316833	0,5	0,027850
0,325167	0,5	0,022350
0,333500	0,5	0,021400
0,341833	0,5	0,023450
0,350167	0,5	0,019350
0,358500	0,5	0,024350
0,366833	0,5	0,018650
0,375167	0,5	0,022100
0,383500	0,5	0,015100
0,391833	0,5	0,024650
0,400167	0,5	0,016700
0,408500	0,5	0,013300
0,416833	0,5	0,015100
0,425167	0,5	0,029050
0,433500	0,5	0,042900
0,441833	0,5	0,053250
0,450167	0,5	0,037350
0,458500	0,5	0,046250
0,466833	0,5	0,043900
0,475167	0,5	0,048950
0,483500	0,5	0,043600
0,491833	0,5	0,045800
0,500167	0,5	0,040450
0,508500	0,5	0,039700
0,516833	0,5	0,040700
0,525167	0,5	0,026450
0,533500	0,5	0,029650
0,541833	0,5	0,041900
0,550167	0,5	0,038950
0,558500	0,5	0,031750
0,566833	0,5	0,036500
0,575167	0,5	0,051550
0,583500	0,5	0,069550
0,591833	0,5	0,068600
0,600167	0,5	0,076100
0,608500	0,5	0,068250
0,616833	0,5	0,075200
0,625167	0,5	0,066000
0,633500	0,5	0,073250
0,641833	0,5	0,067700
0,650167	0,5	0,067750
0,658500	0,5	0,068000
0,666833	0,5	0,069750
0,675167	0,5	0,059500
0,683500	0,5	0,078350
0,691833	0,5	0,071950
0,700167	0,5	0,066050
0,708500	0,5	0,069100
0,716833	0,5	0,072350
0,725167	0,5	0,093500
0,733500	0,5	0,100400
0,741833	0,5	0,102050
0,750167	0,5	0,096550
0,758500	0,5	0,102750
0,766833	0,5	0,105900
0,775167	0,5	0,107200
0,783500	0,5	0,108750
0,791833	0,5	0,108650
0,800167	0,5	0,102250
0,808500	0,5	0,110550
0,816833	0,5	0,105750
0,825167	0,5	0,106500
0,833500	0,5	0,124350
0,841833	0,5	0,115400
0,850167	0,5	0,108700
0,858500	0,5	0,110800
0,866833	0,5	0,118550
0,875167	0,5	0,141550
0,883500	0,5	0,140950
0,891833	0,5	0,136350
0,900167	0,5	0,142000
0,908500	0,5	0,143950
0,916833	0,5	0,147800
0,925167	0,5	0,144600
0,933500	0,5	0,149400
0,941833	0,5	0,144250
0,950167	0,5	0,150650
0,958500	0,5	0,148300
0,966833	0,5	0,156000
0,975167	0,5	0,140650
0,983500	0,5	0,166300
0,991833	0,5	0,146100
1,000167	0,5	0,150450
1,008500	0,5	0,151600
1,016833	0,5	0,159250
1,025167	0,5	0,182200
1,033500	0,5	0,179750
1,041833	0,5	0,173250
1,050167	0,5	0,182700
1,058500	0,5	0,180350
1,066833	0,5	0,186550
1,075167	0,5	0,186450
1,083500	0,5	0,181700
1,091833	0,5	0,184850
1,100167	0,5	0,181300
1,108500	0,5	0,187300
1,116833	0,5	0,169600
1,125167	0,5	0,180900
1,133500	0,5	0,189650
1,141833	0,5	0,173450
1,150167	0,5	0,177100
1,158500	0,5	0,186550
1,166833	0,5	0,194500
1,175167	0,5	0,215250
1,183500	0,5	0,202750
1,191833	0,5	0,208200
1,200167	0,5	0,202100
1,208500	0,5	0,207350
1,216833	0,5	0,199450
1,225167	0,5	0,200550
1,233500	0,5	0,197950
1,241833	0,5	0,193750
1,250167	0,5	0,194350
1,258500	0,5	0,188650
1,266833	0,5	0,184650
1,275167	0,5	0,192850
1,283500	0,5	0,187400
1,291833	0,5	0,169650
1,300167	0,5	0,175800
1,308500	0,5	0,180100
1,316833	0,5	0,193550
1,325167	0,5	0,197150
1,333500	0,5	0,200650
1,341833	0,5	0,188800
1,350167	0,5	0,192700
1,358500	0,5	0,183650
1,366833	0,5	0,183500
1,375167	0,5	0,175050
1,383500	0,5	0,171100
1,391833	0,5	0,164500
1,400167	0,5	0,160900
1,408500	0,5	0,152250
1,416833	0,5	0,148650
1,425167	0,5	0,155050
1,433500	0,5	0,144500
1,441833	0,5	0,134300
1,450167	0,5	0,141950
1,458500	0,5	0,156950
1,466833	0,5	0,175700
1,475167	0,5	0,183100
1,483500	0,5	0,172950
1,491833	0,5	0,173550
1,500167	0,5	0,161700
1,508500	0,5	0,162350
1,516833	0,5	0,148550
1,525167	0,5	0,143250
1,533500	0,5	0,132400
1,541833	0,5	0,122700
1,550167	0,5	0,105050
1,558500	0,5	0,022350
1,566833	0,5	-0,217400
1,575167	0,5	-0,698950
1,583500	0,5	-1,290050
1,591833	0,5	-1,589550
1,600167	0,5	-1,337850
1,608500	0,5	-0,632550
1,616833	0,5	0,371200
1,625167	0,5	1,507600
1,633500	0,5	2,582950
1,641833	0,5	3,316950
1,650167	0,5	3,598500
1,658500	0,5	3,499050
1,666833	0,5	3,252250
1,675167	0,5	2,995150
1,683500	0,5	2,812150
1,691833	0,5	2,678700
1,700167	0,5	2,577400
1,708500	0,5	2,481150
1,716833	0,5	2,456200
1,725167	0,5	2,450500
1,733500	0,5	2,495300
1,741833	0,5	2,588500
1,750167	0,5	2,795200
1,758500	0,5	3,142100
1,766833	0,5	3,555200
1,775167	0,5	3,900500
1,783500	0,5	4,085200
1,791833	0,5	4,089750
1,800167	0,5	3,942900
1,808500	0,5	3,713200
1,816833	0,5	3,447000
1,825167	0,5	3,195050
1,833500	0,5	2,950850
1,841833	0,5	2,748150
1,850167	0,5	2,574800
1,858500	0,5	2,417700
1,866833	0,5	2,293200
1,875167	0,5	2,164700
1,883500	0,5	2,057850
1,891833	0,5	2,036800
1,900167	0,5	2,180850
1,908500	0,5	2,635000
1,916833	0,5	3,604700
1,925167	0,5	5,173300
1,933500	0,5	6,794900
1,941833	0,5	7,527000
1,950167	0,5	7,087700
1,958500	0,5	6,020350
1,966833	0,5	4,920800
1,975167	0,5	4,053200
1,983500	0,5	3,439400
1,991833	0,5	2,972500
2,000167	0,5	2,603500
2,008500	0,5	2,311300
2,016833	0,5	2,103550
2,025167	0,5	1,938000
2,033500	0,5	1,842550
2,041833	0,5	1,798400
2,050167	0,5	1,783200
2,058500	0,5	1,752300
2,066833	0,5	1,701650
2,075167	0,5	1,638850
2,083500	0,5	1,593350
2,091833	0,5	1,555200
2,100167	0,5	1,547400
2,108500	0,5	1,546500
2,116833	0,5	1,558400
2,125167	0,5	1,578150
2,133500	0,5	1,606650
2,141833	0,5	1,649050
2,150167	0,5	1,677900
2,158500	0,5	1,741200
2,166833	0,5	1,796700
2,175167	0,5	1,855750
2,183500	0,5	1,922850
2,191833	0,5	2,008400
2,200167	0,5	2,100650
2,208500	0,5	2,188400
2,216833	0,5	2,248250
2,225167	0,5	2,323850
2,233500	0,5	2,390950
2,241833	0,5	2,475150
2,250167	0,5	2,549750
2,258500	0,5	2,633550
2,266833	0,5	2,708750
2,275167	0,5	2,795300
2,283500	0,5	2,881100
2,291833	0,5	2,964050
2,300167	0,5	3,035700
2,308500	0,5	3,133350
2,316833	0,5	3,205700
2,325167	0,5	3,285650
2,333500	0,5	3,368600
2,341833	0,5	3,458250
2,350167	0,5	3,553250
2,358500	0,5	3,632500
2,366833	0,5	3,711400
2,375167	0,5	3,789550
2,383500	0,5	3,885450
2,391833	0,5	3,979650
2,400167	0,5	4,117000
2,408500	0,5	4,290400
2,416833	0,5	4,513800
2,425167	0,5	4,742950
2,433500	0,5	4,936000
2,441833	0,5	5,058700
2,450167	0,5	5,134300
2,458500	0,5	5,266250
2,466833	0,5	5,502850
2,475167	0,5	5,837500
2,483500	0,5	6,149550
2,491833	0,5	6,284250
2,500167	0,5	6,191150
2,508500	0,5	5,925750
2,516833	0,5	5,606850
2,525167	0,5	5,346100
2,533500	0,5	5,151700
2,541833	0,5	5,025700
2,550167	0,5	4,937750
2,558500	0,5	4,887100
2,566833	0,5	4,844000
2,575167	0,5	4,821150
2,583500	0,5	4,792850
2,591833	0,5	4,770500
2,600167	0,5	4,751250
2,608500	0,5	4,739650
2,616833	0,5	4,703800
2,625167	0,5	4,679300
2,633500	0,5	4,652500
2,641833	0,5	4,631650
2,650167	0,5	4,598200
2,658500	0,5	4,559300
2,666833	0,5	4,516800
2,675167	0,5	4,475450
2,683500	0,5	4,436600
2,691833	0,5	4,394800
2,700167	0,5	4,352250
2,708500	0,5	4,303500
2,716833	0,5	4,264600
2,725167	0,5	4,216700
2,733500	0,5	4,175750
2,741833	0,5	4,119100
2,750167	0,5	4,078500
2,758500	0,5	4,012150
2,766833	0,5	3,934600
2,775167	0,5	3,862650
2,783500	0,5	3,790200
2,791833	0,5	3,731050
2,800167	0,5	3,668700
2,808500	0,5	3,592450
2,816833	0,5	3,523150
2,825167	0,5	3,451450
2,833500	0,5	3,384550
2,841833	0,5	3,315350
2,850167	0,5	3,248400
2,858500	0,5	3,183150
2,866833	0,5	3,114700
2,875167	0,5	3,052300
2,883500	0,5	2,978300
2,891833	0,5	2,909700
2,900167	0,5	2,852750
2,908500	0,5	2,773350
2,916833	0,5	2,696300
2,925167	0,5	2,628300
2,933500	0,5	2,562850
2,941833	0,5	2,511200
2,950167	0,5	2,431700
2,958500	0,5	2,371750
2,966833	0,5	2,300550
2,975167	0,5	2,246150
2,983500	0,5	2,179800
2,991833	0,5	2,118450
3,000167	0,5	2,060250
3,008500	0,5	1,997400
3,016833	0,5	1,949400
3,025167	0,5	1,894350
3,033500	0,5	1,846150
3,041833	0,5	1,785500
3,050167	0,5	1,748550
3,058500	0,5	1,677550
3,066833	0,5	1,628850
3,075167	0,5	1,583100
3,083500	0,5	1,549650
3,091833	0,5	1,524750
3,100167	0,5	1,483150
3,108500	0,5	1,428950
3,116833	0,5	1,381450
3,125167	0,5	1,316950
3,133500	0,5	1,260750
3,141833	0,5	1,194350
3,150167	0,5	1,137000
3,158500	0,5	1,082600
3,166833	0,5	1,033700
3,175167	0,5	0,991300
3,183500	0,5	0,949250
3,191833	0,5	0,917250
3,200167	0,5	0,891350
3,208500	0,5	0,853400
3,216833	0,5	0,825750
3,225167	0,5	0,798350
3,233500	0,5	0,770150
3,241833	0,5	0,746100
3,250167	0,5	0,696650
3,258500	0,5	0,659200
3,266833	0,5	0,618900
3,275167	0,5	0,585900
3,283500	0,5	0,549750
3,291833	0,5	0,520900
3,300167	0,5	0,486600
3,308500	0,5	0,457950
3,316833	0,5	0,427150
3,325167	0,5	0,398450
3,333500	0,5	0,369200
3,341833	0,5	0,361100
3,350167	0,5	0,326300
3,358500	0,5	0,302900
3,366833	0,5	0,292750
3,375167	0,5	0,282350
3,383500	0,5	0,289200
3,391833	0,5	0,280450
3,400167	0,5	0,277700
3,408500	0,5	0,270700
3,416833	0,5	0,270200
3,425167	0,5	0,268050
3,433500	0,5	0,283100
3,441833	0,5	0,304150
3,450167	0,5	0,354700
3,458500	0,5	0,423200
3,466833	0,5	0,507150
3,475167	0,5	0,589300
3,483500	0,5	0,659050
3,491833	0,5	0,711650
3,500167	0,5	0,695150
3,508500	0,5	0,647450
3,516833	0,5	0,570100
3,525167	0,5	0,476950
3,533500	0,5	0,390200
3,541833	0,5	0,289000
3,550167	0,5	0,207550
3,558500	0,5	0,154950
3,566833	0,5	0,127050
3,575167	0,5	0,117500
3,583500	0,5	0,130150
3,591833	0,5	0,179550
3,600167	0,5	0,248600
3,608500	0,5	0,353300
3,616833	0,5	0,470500
3,625167	0,5	0,595550
3,633500	0,5	0,691300
3,641833	0,5	0,757600
3,650167	0,5	0,748700
3,658500	0,5	0,706250
3,666833	0,5	0,617500
3,675167	0,5	0,514200
3,683500	0,5	0,407050
3,691833	0,5	0,295100
3,700167	0,5	0,204550
3,708500	0,5	0,133000
3,716833	0,5	0,072050
3,725167	0,5	0,029950
3,733500	0,5	-0,009950
3,741833	0,5	-0,049150
3,750167	0,5	-0,075250
3,758500	0,5	-0,105300
3,766833	0,5	-0,127250
3,775167	0,5	-0,154800
3,783500	0,5	-0,164400
3,791833	0,5	-0,187150
3,800167	0,5	-0,206350
3,808500	0,5	-0,218850
3,816833	0,5	-0,219650
3,825167	0,5	-0,217150
3,833500	0,5	-0,214700
3,841833	0,5	-0,226000
3,850167	0,5	-0,227550
3,858500	0,5	-0,234900
3,866833	0,5	-0,236400
3,875167	0,5	-0,244950
3,883500	0,5	-0,248450
3,891833	0,5	-0,253150
3,900167	0,5	-0,255400
3,908500	0,5	-0,255950
3,916833	0,5	-0,269550
3,925167	0,5	-0,271950
3,933500	0,5	-0,257100
3,941833	0,5	-0,268250
3,950167	0,5	-0,275900
3,958500	0,5	-0,274050
3,966833	0,5	-0,272100
3,975167	0,5	-0,260000
3,983500	0,5	-0,266850
3,991833	0,5	-0,260900
4,000167	0,5	-0,266550
4,008500	0,5	-0,260100
4,016833	0,5	-0,264350
4,025167	0,5	-0,259600
4,033500	0,5	-0,257750
4,041833	0,5	-0,255450
4,050167	0,5	-0,244650
4,058500	0,5	-0,232450
4,066833	0,5	-0,219300
4,075167	0,5	-0,191600
4,083500	0,5	-0,157800
4,091833	0,5	-0,125800
4,100167	0,5	-0,079850
4,108500	0,5	-0,018950
4,116833	0,5	0,053600
4,125167	0,5	0,141900
4,133500	0,5	0,237250
4,141833	0,5	0,350700
4,150167	0,5	0,496200
4,158500	0,5	0,692100
4,166833	0,5	0,968700
4,175167	0,5	1,360950
4,183500	0,5	1,921350
4,191833	0,5	2,677700
4,200167	0,5	3,665650
4,208500	0,5	4,849750
4,216833	0,5	6,125800
4,225167	0,5	7,368950
4,233500	0,5	8,405200
4,241833	0,5	9,057300
4,250167	0,5	9,267100
4,258500	0,5	9,021000
4,266833	0,5	8,379400
4,275167	0,5	7,464950
4,283500	0,5	6,385400
4,291833	0,5	5,306500
4,300167	0,5	4,294200
4,308500	0,5	3,413800
4,316833	0,5	2,676200
4,325167	0,5	2,085550
4,333500	0,5	1,622100
4,341833	0,5	1,266150
4,350167	0,5	0,986550
4,358500	0,5	0,780600
4,366833	0,5	0,617500
4,375167	0,5	0,508700
4,383500	0,5	0,413300
4,391833	0,5	0,343250
4,400167	0,5	0,296250
4,408500	0,5	0,278650
4,416833	0,5	0,278650
4,425167	0,5	0,286850
4,433500	0,5	0,299300
4,441833	0,5	0,311950
4,450167	0,5	0,329800
4,458500	0,5	0,330650
4,466833	0,5	0,324700
4,475167	0,5	0,301200
4,483500	0,5	0,271300
4,491833	0,5	0,227750
4,500167	0,5	0,186250
4,508500	0,5	0,130450
4,516833	0,5	0,089850
4,525167	0,5	0,052350
4,533500	0,5	0,014000
4,541833	0,5	-0,016400
4,550167	0,5	-0,039350
4,558500	0,5	-0,049950
4,566833	0,5	-0,055700
4,575167	0,5	-0,065900
4,583500	0,5	-0,075800
4,591833	0,5	-0,084950
4,600167	0,5	-0,089800
4,608500	0,5	-0,097850
4,616833	0,5	-0,103050
4,625167	0,5	-0,107500
4,633500	0,5	-0,112450
4,641833	0,5	-0,116800
4,650167	0,5	-0,123450
4,658500	0,5	-0,125900
4,666833	0,5	-0,125000
4,675167	0,5	-0,127600
4,683500	0,5	-0,139350
4,691833	0,5	-0,143000
4,700167	0,5	-0,145950
4,708500	0,5	-0,138850
4,716833	0,5	-0,134700
4,725167	0,5	-0,136600
4,733500	0,5	-0,141250
4,741833	0,5	-0,138250
4,750167	0,5	-0,144000
4,758500	0,5	-0,145050
4,766833	0,5	-0,148600
4,775167	0,5	-0,150100
4,783500	0,5	-0,150450
4,791833	0,5	-0,150550
4,800167	0,5	-0,148850
4,808500	0,5	-0,155850
4,816833	0,5	-0,140550
4,825167	0,5	-0,151900
4,833500	0,5	-0,154100
4,841833	0,5	-0,154900
4,850167	0,5	-0,151450
4,858500	0,5	-0,138250
4,866833	0,5	-0,136800
4,875167	0,5	-0,142700
4,883500	0,5	-0,136100
4,891833	0,5	-0,140400
4,900167	0,5	-0,139750
4,908500	0,5	-0,139850
4,916833	0,5	-0,133450
4,925167	0,5	-0,138350
4,933500	0,5	-0,130300
4,941833	0,5	-0,126850
4,950167	0,5	-0,130050
4,958500	0,5	-0,132350
4,966833	0,5	-0,118350
4,975167	0,5	-0,128400
4,983500	0,5	-0,125750
4,991833	0,5	-0,124950
5,000167	0,5	-0,119900
5,008500	0,5	-0,110450
5,016833	0,5	-0,116500
5,025167	0,5	-0,115000
5,033500	0,5	-0,117550
5,041833	0,5	-0,110050
5,050167	0,5	-0,117700
5,058500	0,5	-0,111950
5,066833	0,5	-0,118300
5,075167	0,5	-0,113500
5,083500	0,5	-0,115850
5,091833	0,5	-0,114750
5,100167	0,5	-0,121800
5,108500	0,5	-0,119450
5,116833	0,5	-0,111050
5,125167	0,5	-0,121350
5,133500	0,5	-0,123550
5,141833	0,5	-0,115650
5,150167	0,5	-0,105600
5,158500	0,5	-0,101400
5,166833	0,5	-0,100400
5,175167	0,5	-0,100450
5,183500	0,5	-0,096750
5,191833	0,5	-0,100300
5,200167	0,5	-0,096650
5,208500	0,5	-0,100800
5,216833	0,5	-0,098550
5,225167	0,5	-0,101400
5,233500	0,5	-0,096900
5,241833	0,5	-0,098350
5,250167	0,5	-0,098300
5,258500	0,5	-0,098050
5,266833	0,5	-0,098550
5,275167	0,5	-0,105150
5,283500	0,5	-0,104100
5,291833	0,5	-0,099350
5,300167	0,5	-0,088050
5,308500	0,5	-0,083150
5,316833	0,5	-0,084350
5,325167	0,5	-0,084400
5,333500	0,5	-0,085250
5,341833	0,5	-0,080200
5,350167	0,5	-0,078950
5,358500	0,5	-0,073550
5,366833	0,5	-0,079150
5,375167	0,5	-0,074250
5,383500	0,5	-0,077300
5,391833	0,5	-0,074600
5,400167	0,5	-0,074750
5,408500	0,5	-0,068350
5,416833	0,5	-0,076200
5,425167	0,5	-0,082600
5,433500	0,5	-0,083800
5,441833	0,5	-0,080600
5,450167	0,5	-0,071900
5,458500	0,5	-0,066900
5,466833	0,5	-0,066150
5,475167	0,5	-0,062100
5,483500	0,5	-0,058300
5,491833	0,5	-0,047850
5,500167	0,5	-0,035400
5,508500	0,5	-0,023450
5,516833	0,5	-0,006650
5,525167	0,5	0,009400
5,533500	0,5	0,033150
5,541833	0,5	0,046150
5,550167	0,5	0,068250
5,558500	0,5	0,076250
5,566833	0,5	0,074950
5,575167	0,5	0,070250
5,583500	0,5	0,070500
5,591833	0,5	0,063550
5,600167	0,5	0,056800
5,608500	0,5	0,041250
5,616833	0,5	0,024550
5,625167	0,5	0,007050
5,633500	0,5	-0,006050
5,641833	0,5	-0,022150
5,650167	0,5	-0,035450
5,658500	0,5	-0,050350
5,666833	0,5	-0,063100
5,675167	0,5	-0,071850
5,683500	0,5	-0,079550
5,691833	0,5	-0,090000
5,700167	0,5	-0,092150
5,708500	0,5	-0,093750
5,716833	0,5	-0,102950
5,725167	0,5	-0,104700
5,733500	0,5	-0,109250
5,741833	0,5	-0,102350
5,750167	0,5	-0,107750
5,758500	0,5	-0,113950
5,766833	0,5	-0,122250
5,775167	0,5	-0,123550
5,783500	0,5	-0,128900
5,791833	0,5	-0,134300
5,800167	0,5	-0,140600
5,808500	0,5	-0,140050
5,816833	0,5	-0,141700
5,825167	0,5	-0,142350
5,833500	0,5	-0,136000
5,841833	0,5	-0,137050
5,850167	0,5	-0,123400
5,858500	0,5	-0,128800
5,866833	0,5	-0,125850
5,875167	0,5	-0,125000
5,883500	0,5	-0,115750
5,891833	0,5	-0,105750
5,900167	0,5	-0,100350
5,908500	0,5	-0,103250
5,916833	0,5	-0,103400
5,925167	0,5	-0,104550
5,933500	0,5	-0,109050
5,941833	0,5	-0,115350
5,950167	0,5	-0,119400
5,958500	0,5	-0,130450
5,966833	0,5	-0,134500
5,975167	0,5	-0,143800
5,983500	0,5	-0,147350
5,991833	0,5	-0,156500
6,000167	0,5	-0,153350
6,008500	0,5	-0,168350
6,016833	0,5	-0,171400
6,025167	0,5	-0,172850
6,033500	0,5	-0,171000
6,041833	0,5	-0,163450
6,050167	0,5	-0,166150
6,058500	0,5	-0,166600
6,066833	0,5	-0,166950
6,075167	0,5	-0,167300
6,083500	0,5	-0,167900
6,091833	0,5	-0,167850
6,100167	0,5	-0,169300
6,108500	0,5	-0,169650
6,116833	0,5	-0,168800
6,125167	0,5	-0,168450
6,133500	0,5	-0,172950
6,141833	0,5	-0,166800
6,150167	0,5	-0,171650
6,158500	0,5	-0,175050
6,166833	0,5	-0,177000
6,175167	0,5	-0,172450
6,183500	0,5	-0,170450
6,191833	0,5	-0,163350
6,200167	0,5	-0,158350
6,208500	0,5	-0,158050
6,216833	0,5	-0,157150
6,225167	0,5	-0,159150
6,233500	0,5	-0,157700
6,241833	0,5	-0,158850
6,250167	0,5	-0,153850
6,258500	0,5	-0,153800
6,266833	0,5	-0,150450
6,275167	0,5	-0,152250
6,283500	0,5	-0,151300
6,291833	0,5	-0,139250
6,300167	0,5	-0,140550
6,308500	0,5	-0,134450
6,316833	0,5	-0,128300
6,325167	0,5	-0,116350
6,333500	0,5	-0,097800
6,341833	0,5	-0,080400
6,350167	0,5	-0,058700
6,358500	0,5	-0,035600
6,366833	0,5	-0,007200
6,375167	0,5	0,020600
6,383500	0,5	0,056150
6,391833	0,5	0,090250
6,400167	0,5	0,127650
6,408500	0,5	0,172550
6,416833	0,5	0,215400
6,425167	0,5	0,273900
6,433500	0,5	0,336100
6,441833	0,5	0,428800
6,450167	0,5	0,532000
6,458500	0,5	0,684400
6,466833	0,5	0,900100
6,475167	0,5	1,209050
6,483500	0,5	1,627350
6,491833	0,5	2,162250
6,500167	0,5	2,815750
6,508500	0,5	3,579050
6,516833	0,5	4,389300
6,525167	0,5	5,173450
6,533500	0,5	5,843400
6,541833	0,5	6,316350
6,550167	0,5	6,527900
6,558500	0,5	6,452100
6,566833	0,5	6,100900
6,575167	0,5	5,524900
6,583500	0,5	4,808500
6,591833	0,5	4,033900
6,600167	0,5	3,261250
6,608500	0,5	2,564900
6,616833	0,5	1,974550
6,625167	0,5	1,501300
6,633500	0,5	1,141250
6,641833	0,5	0,861300
6,650167	0,5	0,667250
6,658500	0,5	0,527500
6,666833	0,5	0,431200
6,675167	0,5	0,358500
6,683500	0,5	0,311950
6,691833	0,5	0,273050
6,700167	0,5	0,246650
6,708500	0,5	0,227800
6,716833	0,5	0,212200
6,725167	0,5	0,195300
6,733500	0,5	0,190250
6,741833	0,5	0,180800
6,750167	0,5	0,171450
6,758500	0,5	0,165150
6,766833	0,5	0,162000
6,775167	0,5	0,162100
6,783500	0,5	0,161750
6,791833	0,5	0,161050
6,800167	0,5	0,156500
6,808500	0,5	0,155600
6,816833	0,5	0,151550
6,825167	0,5	0,152150
6,833500	0,5	0,145350
6,841833	0,5	0,141650
6,850167	0,5	0,139700
6,858500	0,5	0,138050
6,866833	0,5	0,134850
6,875167	0,5	0,134250
6,883500	0,5	0,135800
6,891833	0,5	0,134000
6,900167	0,5	0,128200
6,908500	0,5	0,126350
6,916833	0,5	0,130600
6,925167	0,5	0,135900
6,933500	0,5	0,141100
6,941833	0,5	0,138100
6,950167	0,5	0,141750
6,958500	0,5	0,143050
6,966833	0,5	0,148400
6,975167	0,5	0,143700
6,983500	0,5	0,146650
6,991833	0,5	0,144900
7,000167	0,5	0,147300
7,008500	0,5	0,148200
7,016833	0,5	0,146800
7,025167	0,5	0,151700
7,033500	0,5	0,153300
7,041833	0,5	0,153350
7,050167	0,5	0,150600
7,058500	0,5	0,149600
7,066833	0,5	0,157700
7,075167	0,5	0,162200
7,083500	0,5	0,161500
7,091833	0,5	0,163300
7,100167	0,5	0,166400
7,108500	0,5	0,166850
7,116833	0,5	0,168950
7,125167	0,5	0,174950
7,133500	0,5	0,170850
7,141833	0,5	0,174050
7,150167	0,5	0,172500
7,158500	0,5	0,176250
7,166833	0,5	0,172900
7,175167	0,5	0,181500
7,183500	0,5	0,180050
7,191833	0,5	0,176750
7,200167	0,5	0,175350
7,208500	0,5	0,181550
7,216833	0,5	0,185650
7,225167	0,5	0,192350
7,233500	0,5	0,196300
7,241833	0,5	0,195550
7,250167	0,5	0,198000
7,258500	0,5	0,198700
7,266833	0,5	0,201500
7,275167	0,5	0,205400
7,283500	0,5	0,206300
7,291833	0,5	0,209450
7,300167	0,5	0,213400
7,308500	0,5	0,210700
7,316833	0,5	0,215850
7,325167	0,5	0,218750
7,333500	0,5	0,218750
7,341833	0,5	0,217200
7,350167	0,5	0,219050
7,358500	0,5	0,222000
7,366833	0,5	0,229400
7,375167	0,5	0,232650
7,383500	0,5	0,235750
7,391833	0,5	0,234600
7,400167	0,5	0,237100
7,408500	0,5	0,239250
7,416833	0,5	0,238850
7,425167	0,5	0,238850
7,433500	0,5	0,243100
7,441833	0,5	0,241600
7,450167	0,5	0,242250
7,458500	0,5	0,240350
7,466833	0,5	0,246300
7,475167	0,5	0,249800
7,483500	0,5	0,247300
7,491833	0,5	0,249200
7,500167	0,5	0,247850
7,508500	0,5	0,256000
7,516833	0,5	0,261100
7,525167	0,5	0,265850
7,533500	0,5	0,269300
7,541833	0,5	0,272000
7,550167	0,5	0,274200
7,558500	0,5	0,278000
7,566833	0,5	0,279050
7,575167	0,5	0,283500
7,583500	0,5	0,285250
7,591833	0,5	0,287550
7,600167	0,5	0,291600
7,608500	0,5	0,289100
7,616833	0,5	0,299450
7,625167	0,5	0,302300
7,633500	0,5	0,299250
7,641833	0,5	0,299500
7,650167	0,5	0,303300
7,658500	0,5	0,310750
7,666833	0,5	0,316350
7,675167	0,5	0,314750
7,683500	0,5	0,318900
7,691833	0,5	0,322000
7,700167	0,5	0,321900
7,708500	0,5	0,324950
7,716833	0,5	0,325500
7,725167	0,5	0,324400
7,733500	0,5	0,327750
7,741833	0,5	0,329400
7,750167	0,5	0,332600
7,758500	0,5	0,329300
7,766833	0,5	0,334800
7,775167	0,5	0,337700
7,783500	0,5	0,340700
7,791833	0,5	0,342550
7,800167	0,5	0,349350
7,808500	0,5	0,355800
7,816833	0,5	0,361150
7,825167	0,5	0,361300
7,833500	0,5	0,363300
7,841833	0,5	0,365500
7,850167	0,5	0,365950
7,858500	0,5	0,368750
7,866833	0,5	0,368100
7,875167	0,5	0,367700
7,883500	0,5	0,370200
7,891833	0,5	0,369900
7,900167	0,5	0,373400
7,908500	0,5	0,373300
7,916833	0,5	0,376300
7,925167	0,5	0,378050
7,933500	0,5	0,379650
7,941833	0,5	0,381450
7,950167	0,5	0,385150
7,958500	0,5	0,394600
7,966833	0,5	0,400400
7,975167	0,5	0,402900
7,983500	0,5	0,408350
7,991833	0,5	0,410800
8,000167	0,5	0,413200
8,008500	0,5	0,414150
8,016833	0,5	0,417550
8,025167	0,5	0,419300
8,033500	0,5	0,419850
8,041833	0,5	0,420000
8,050167	0,5	0,424050
8,058500	0,5	0,426700
8,066833	0,5	0,430750
8,075167	0,5	0,427500
8,083500	0,5	0,429050
8,091833	0,5	0,429350
8,100167	0,5	0,436600
8,108500	0,5	0,441200
8,116833	0,5	0,446150
8,125167	0,5	0,448750
8,133500	0,5	0,451200
8,141833	0,5	0,454750
8,150167	0,5	0,457000
8,158500	0,5	0,459400
8,166833	0,5	0,462050
8,175167	0,5	0,468900
8,183500	0,5	0,472200
8,191833	0,5	0,475950
8,200167	0,5	0,481000
8,208500	0,5	0,486700
8,216833	0,5	0,486700
8,225167	0,5	0,487900
8,233500	0,5	0,486650
8,241833	0,5	0,487550
8,250167	0,5	0,491250
8,258500	0,5	0,494600
8,266833	0,5	0,501000
8,275167	0,5	0,510400
8,283500	0,5	0,524800
8,291833	0,5	0,542550
8,300167	0,5	0,571400
8,308500	0,5	0,607300
8,316833	0,5	0,651900
8,325167	0,5	0,708950
8,333500	0,5	0,771750
8,341833	0,5	0,840650
8,350167	0,5	0,918300
8,358500	0,5	1,013750
8,366833	0,5	1,128550
8,375167	0,5	1,295750
8,383500	0,5	1,547300
8,391833	0,5	1,947750
8,400167	0,5	2,579350
8,408500	0,5	3,486650
8,416833	0,5	4,704550
8,425167	0,5	6,158450
8,433500	0,5	7,686600
8,441833	0,5	9,017350
8,450167	0,5	9,896350
8,458500	0,5	10,121700
8,466833	0,5	9,666350
8,475167	0,5	8,640250
8,483500	0,5	7,273500
8,491833	0,5	5,810250
8,500167	0,5	4,461750
8,508500	0,5	3,338600
8,516833	0,5	2,481150
8,525167	0,5	1,868500
8,533500	0,5	1,456550
8,541833	0,5	1,184800
8,550167	0,5	1,018700
8,558500	0,5	0,906050
8,566833	0,5	0,834650
8,575167	0,5	0,789700
8,583500	0,5	0,759000
8,591833	0,5	0,734750
8,600167	0,5	0,718500
8,608500	0,5	0,705200
8,616833	0,5	0,692000
8,625167	0,5	0,683700
8,633500	0,5	0,676050
8,641833	0,5	0,668050
8,650167	0,5	0,661150
8,658500	0,5	0,656600
8,666833	0,5	0,650200
8,675167	0,5	0,644000
8,683500	0,5	0,643400
8,691833	0,5	0,643500
8,700167	0,5	0,641300
8,708500	0,5	0,642150
8,716833	0,5	0,640100
8,725167	0,5	0,637550
8,733500	0,5	0,637800
8,741833	0,5	0,636850
8,750167	0,5	0,637850
8,758500	0,5	0,632200
8,766833	0,5	0,633750
8,775167	0,5	0,630600
8,783500	0,5	0,628200
8,791833	0,5	0,631200
8,800167	0,5	0,623650
8,808500	0,5	0,623600
8,816833	0,5	0,619600
8,825167	0,5	0,619100
8,833500	0,5	0,618650
8,841833	0,5	0,618850
8,850167	0,5	0,622950
8,858500	0,5	0,624500
8,866833	0,5	0,623450
8,875167	0,5	0,624900
8,883500	0,5	0,621800
8,891833	0,5	0,623700
8,900167	0,5	0,623500
8,908500	0,5	0,624350
8,916833	0,5	0,622300
8,925167	0,5	0,620750
8,933500	0,5	0,617300
8,941833	0,5	0,617350
8,950167	0,5	0,621500
8,958500	0,5	0,620700
8,966833	0,5	0,618450
8,975167	0,5	0,617350
8,983500	0,5	0,618800
8,991833	0,5	0,621100
9,000167	0,5	0,625350
9,008500	0,5	0,627350
9,016833	0,5	0,628350
9,025167	0,5	0,631550
9,033500	0,5	0,630050
9,041833	0,5	0,630300
9,050167	0,5	0,631550
9,058500	0,5	0,631600
9,066833	0,5	0,629400
9,075167	0,5	0,628600
9,083500	0,5	0,627850
9,091833	0,5	0,627100
9,100167	0,5	0,629800
9,108500	0,5	0,628000
9,116833	0,5	0,630450
9,125167	0,5	0,627300
9,133500	0,5	0,628500
9,141833	0,5	0,634450
9,150167	0,5	0,634750
9,158500	0,5	0,633050
9,166833	0,5	0,633050
9,175167	0,5	0,634750
9,183500	0,5	0,634350
9,191833	0,5	0,634600
9,200167	0,5	0,633200
9,208500	0,5	0,634900
9,216833	0,5	0,633950
9,225167	0,5	0,633050
9,233500	0,5	0,636000
9,241833	0,5	0,632400
9,250167	0,5	0,635550
9,258500	0,5	0,634250
9,266833	0,5	0,632250
9,275167	0,5	0,631700
9,283500	0,5	0,632050
9,291833	0,5	0,635150
9,300167	0,5	0,634850
9,308500	0,5	0,637200
9,316833	0,5	0,636100
9,325167	0,5	0,640150
9,333500	0,5	0,641400
9,341833	0,5	0,643850
9,350167	0,5	0,642700
9,358500	0,5	0,643150
9,366833	0,5	0,641650
9,375167	0,5	0,643300
9,383500	0,5	0,643950
9,391833	0,5	0,642200
9,400167	0,5	0,643750
9,408500	0,5	0,643200
9,416833	0,5	0,645250
9,425167	0,5	0,643750
9,433500	0,5	0,647600
9,441833	0,5	0,650800
9,450167	0,5	0,654500
9,458500	0,5	0,654550
9,466833	0,5	0,656350
9,475167	0,5	0,658100
9,483500	0,5	0,658950
9,491833	0,5	0,658400
9,500167	0,5	0,662800
9,508500	0,5	0,663600
9,516833	0,5	0,667000
9,525167	0,5	0,661900
9,533500	0,5	0,662100
9,541833	0,5	0,664100
9,550167	0,5	0,661450
9,558500	0,5	0,664200
9,566833	0,5	0,660350
9,575167	0,5	0,657850
9,583500	0,5	0,662000
9,591833	0,5	0,661100
9,600167	0,5	0,660700
9,608500	0,5	0,661450
9,616833	0,5	0,662700
9,625167	0,5	0,664100
9,633500	0,5	0,662150
9,641833	0,5	0,664650
9,650167	0,5	0,661300
9,658500	0,5	0,660550
9,666833	0,5	0,661950
9,675167	0,5	0,662150
9,683500	0,5	0,660050
9,691833	0,5	0,658650
9,700167	0,5	0,657100
9,708500	0,5	0,657300
9,716833	0,5	0,656700
9,725167	0,5	0,657050
9,733500	0,5	0,655650
9,741833	0,5	0,655500
9,750167	0,5	0,656700
9,758500	0,5	0,659400
9,766833	0,5	0,657900
9,775167	0,5	0,657750
9,783500	0,5	0,658100
9,791833	0,5	0,659000
9,800167	0,5	0,659950
9,808500	0,5	0,663050
9,816833	0,5	0,666700
9,825167	0,5	0,670200
9,833500	0,5	0,671850
9,841833	0,5	0,674000
9,850167	0,5	0,666950
9,858500	0,5	0,667400
9,866833	0,5	0,665650
9,875167	0,5	0,660800
9,883500	0,5	0,665300
9,891833	0,5	0,663800
9,900167	0,5	0,661300
9,908500	0,5	0,657150
9,916833	0,5	0,654750
9,925167	0,5	0,652250
9,933500	0,5	0,649650
9,941833	0,5	0,649550
9,950167	0,5	0,644200
9,958500	0,5	0,640650
9,966833	0,5	0,635950
9,975167	0,5	0,633200
9,983500	0,5	0,631100
9,991833	0,5	0,629850
10,000167	0,5	0,627850
10,008500	0,5	0,623250
10,016833	0,5	0,619450
10,025167	0,5	0,619100
10,033500	0,5	0,620200
10,041833	0,5	0,619650
10,050167	0,5	0,620550
10,058500	0,5	0,620100
10,066833	0,5	0,617750
10,075167	0,5	0,619050
10,083500	0,5	0,619250
10,091833	0,5	0,618400
10,100167	0,5	0,616500
10,108500	0,5	0,615500
10,116833	0,5	0,618100
10,125167	0,5	0,616050
10,133500	0,5	0,617450
10,141833	0,5	0,616250
10,150167	0,5	0,617250
10,158500	0,5	0,611650
10,166833	0,5	0,608500
10,175167	0,5	0,610150
10,183500	0,5	0,608600
10,191833	0,5	0,609300
10,200167	0,5	0,607500
10,208500	0,5	0,606350
10,216833	0,5	0,606950
10,225167	0,5	0,605000
10,233500	0,5	0,604350
10,241833	0,5	0,603950
10,250167	0,5	0,606100
10,258500	0,5	0,604750
10,266833	0,5	0,606600
10,275167	0,5	0,605250
10,283500	0,5	0,607400
10,291833	0,5	0,605100
10,300167	0,5	0,604200
10,308500	0,5	0,600850
10,316833	0,5	0,595850
10,325167	0,5	0,612600
10,333500	0,5	0,600900
10,341833	0,5	0,594350
10,350167	0,5	0,595950
10,358500	0,5	0,594250
10,366833	0,5	0,595250
10,375167	0,5	0,593650
10,383500	0,5	0,591350
10,391833	0,5	0,588700
10,400167	0,5	0,584350
10,408500	0,5	0,583700
10,416833	0,5	0,578700
10,425167	0,5	0,575100
10,433500	0,5	0,576200
10,441833	0,5	0,569800
10,450167	0,5	0,565000
10,458500	0,5	0,560050
10,466833	0,5	0,558900
10,475167	0,5	0,563200
10,483500	0,5	0,559800
10,491833	0,5	0,557350
10,500167	0,5	0,555800
10,508500	0,5	0,554600
10,516833	0,5	0,551700
10,525167	0,5	0,551850
10,533500	0,5	0,548700
10,541833	0,5	0,543400
10,550167	0,5	0,546200
10,558500	0,5	0,545500
10,566833	0,5	0,541950
10,575167	0,5	0,542150
10,583500	0,5	0,546500
10,591833	0,5	0,538950
10,600167	0,5	0,537100
10,608500	0,5	0,536250
10,616833	0,5	0,535700
10,625167	0,5	0,539450
10,633500	0,5	0,540750
10,641833	0,5	0,537900
10,650167	0,5	0,541250
10,658500	0,5	0,540750
10,666833	0,5	0,539900
10,675167	0,5	0,540000
10,683500	0,5	0,539850
10,691833	0,5	0,535150
10,700167	0,5	0,540650
10,708500	0,5	0,532500
10,716833	0,5	0,529500
10,725167	0,5	0,529600
10,733500	0,5	0,531050
10,741833	0,5	0,527000
10,750167	0,5	0,521500
10,758500	0,5	0,520650
10,766833	0,5	0,518400
10,775167	0,5	0,522850
10,783500	0,5	0,523150
10,791833	0,5	0,522950
10,800167	0,5	0,522750
10,808500	0,5	0,520100
10,816833	0,5	0,518900
10,825167	0,5	0,518950
10,833500	0,5	0,517400
10,841833	0,5	0,516700
10,850167	0,5	0,514800
10,858500	0,5	0,509300
10,866833	0,5	0,510500
10,875167	0,5	0,509650
10,883500	0,5	0,507050
10,891833	0,5	0,506200
10,900167	0,5	0,503100
10,908500	0,5	0,499000
10,916833	0,5	0,500800
10,925167	0,5	0,502200
10,933500	0,5	0,499000
10,941833	0,5	0,501200
10,950167	0,5	0,502150
10,958500	0,5	0,500300
10,966833	0,5	0,500000
10,975167	0,5	0,501000
10,983500	0,5	0,501650
10,991833	0,5	0,498950
11,000167	0,5	0,499850
11,008500	0,5	0,494650
11,016833	0,5	0,500700
11,025167	0,5	0,495800
11,033500	0,5	0,494150
11,041833	0,5	0,493500
11,050167	0,5	0,490650
11,058500	0,5	0,493500
11,066833	0,5	0,496800
11,075167	0,5	0,498150
11,083500	0,5	0,503950
11,091833	0,5	0,507050
11,100167	0,5	0,510300
11,108500	0,5	0,511800
11,116833	0,5	0,513000
11,125167	0,5	0,511550
11,133500	0,5	0,511050
11,141833	0,5	0,510250
11,150167	0,5	0,507850
11,158500	0,5	0,501000
11,166833	0,5	0,502600
11,175167	0,5	0,498950
11,183500	0,5	0,494500
11,191833	0,5	0,492400
11,200167	0,5	0,487950
11,208500	0,5	0,495800
11,216833	0,5	0,494950
11,225167	0,5	0,494650
11,233500	0,5	0,494800
11,241833	0,5	0,497900
11,250167	0,5	0,497550
11,258500	0,5	0,501300
11,266833	0,5	0,504100
11,275167	0,5	0,505100
11,283500	0,5	0,509950
11,291833	0,5	0,513200
11,300167	0,5	0,513900
11,308500	0,5	0,516400
11,316833	0,5	0,524250
11,325167	0,5	0,523850
11,333500	0,5	0,531250
11,341833	0,5	0,532150
11,350167	0,5	0,533650
11,358500	0,5	0,539300
11,366833	0,5	0,545250
11,375167	0,5	0,547300
11,383500	0,5	0,551200
11,391833	0,5	0,551950
11,400167	0,5	0,550000
11,408500	0,5	0,550200
11,416833	0,5	0,548900
11,425167	0,5	0,545400
11,433500	0,5	0,541500
11,441833	0,5	0,537000
11,450167	0,5	0,530850
11,458500	0,5	0,526500
11,466833	0,5	0,521550
11,475167	0,5	0,511300
11,483500	0,5	0,503350
11,491833	0,5	0,487750
11,500167	0,5	0,480550
11,508500	0,5	0,477550
11,516833	0,5	0,472000
11,525167	0,5	0,463600
11,533500	0,5	0,457200
11,541833	0,5	0,453100
11,550167	0,5	0,446200
11,558500	0,5	0,442300
11,566833	0,5	0,436000
11,575167	0,5	0,432200
11,583500	0,5	0,428850
11,591833	0,5	0,424350
11,600167	0,5	0,414600
11,608500	0,5	0,416500
11,616833	0,5	0,415300
11,625167	0,5	0,408900
11,633500	0,5	0,402900
11,641833	0,5	0,398850
11,650167	0,5	0,404450
11,658500	0,5	0,402200
11,666833	0,5	0,399950
11,675167	0,5	0,398700
11,683500	0,5	0,398200
11,691833	0,5	0,394550
11,700167	0,5	0,395100
11,708500	0,5	0,394150
11,716833	0,5	0,392700
11,725167	0,5	0,392050
11,733500	0,5	0,391350
11,741833	0,5	0,387750
11,750167	0,5	0,386350
11,758500	0,5	0,388600
11,766833	0,5	0,387200
11,775167	0,5	0,383550
11,783500	0,5	0,382050
11,791833	0,5	0,381100
11,800167	0,5	0,384250
11,808500	0,5	0,380700
11,816833	0,5	0,386450
11,825167	0,5	0,382850
11,833500	0,5	0,378900
11,841833	0,5	0,382250
11,850167	0,5	0,381200
11,858500	0,5	0,382050
11,866833	0,5	0,379500
11,875167	0,5	0,381800
11,883500	0,5	0,382800
11,891833	0,5	0,379300
11,900167	0,5	0,381100
11,908500	0,5	0,381050
11,916833	0,5	0,378550
11,925167	0,5	0,377350
11,933500	0,5	0,373600
11,941833	0,5	0,376950
11,950167	0,5	0,379400
11,958500	0,5	0,381300
11,966833	0,5	0,379750
11,975167	0,5	0,380150
11,983500	0,5	0,379850
11,991833	0,5	0,384000
12,000167	0,5	0,381900
12,008500	0,5	0,380600
12,016833	0,5	0,380550
12,025167	0,5	0,382350
12,033500	0,5	0,383350
12,041833	0,5	0,378200
12,050167	0,5	0,384500
12,058500	0,5	0,383400
12,066833	0,5	0,382250
12,075167	0,5	0,380250
12,083500	0,5	0,382600
12,091833	0,5	0,383900
12,100167	0,5	0,386650
12,108500	0,5	0,386650
12,116833	0,5	0,394200
12,125167	0,5	0,398300
12,133500	0,5	0,400550
12,141833	0,5	0,407700
12,150167	0,5	0,408550
12,158500	0,5	0,416600
12,166833	0,5	0,420800
12,175167	0,5	0,424000
12,183500	0,5	0,421200
12,191833	0,5	0,420050
12,200167	0,5	0,426850
12,208500	0,5	0,424350
12,216833	0,5	0,420850
12,225167	0,5	0,416950
12,233500	0,5	0,412100
12,241833	0,5	0,417750
12,250167	0,5	0,416800
12,258500	0,5	0,416300
12,266833	0,5	0,416100
12,275167	0,5	0,420350
12,283500	0,5	0,417300
12,291833	0,5	0,417900
12,300167	0,5	0,416400
12,308500	0,5	0,414500
12,316833	0,5	0,414700
12,325167	0,5	0,417500
12,333500	0,5	0,409600
12,341833	0,5	0,413050
12,350167	0,5	0,418800
12,358500	0,5	0,416400
12,366833	0,5	0,414700
12,375167	0,5	0,413650
12,383500	0,5	0,417750
12,391833	0,5	0,421000
12,400167	0,5	0,423300
12,408500	0,5	0,423200
12,416833	0,5	0,430700
12,425167	0,5	0,431200
12,433500	0,5	0,437450
12,441833	0,5	0,438000
12,450167	0,5	0,445900
12,458500	0,5	0,445000
12,466833	0,5	0,447350
12,475167	0,5	0,454100
12,483500	0,5	0,454850
12,491833	0,5	0,462600
12,500167	0,5	0,464900
12,508500	0,5	0,465050
12,516833	0,5	0,466450
12,525167	0,5	0,461550
12,533500	0,5	0,467300
12,541833	0,5	0,468050
12,550167	0,5	0,470450
12,558500	0,5	0,469050
12,566833	0,5	0,467350
12,575167	0,5	0,470350
12,583500	0,5	0,465100
12,591833	0,5	0,464300
12,600167	0,5	0,460450
12,608500	0,5	0,458600
12,616833	0,5	0,455600
12,625167	0,5	0,456650
12,633500	0,5	0,446250
12,641833	0,5	0,445650
12,650167	0,5	0,443050
12,658500	0,5	0,438700
12,666833	0,5	0,433700
12,675167	0,5	0,427200
12,683500	0,5	0,431050
12,691833	0,5	0,427750
12,700167	0,5	0,427800
12,708500	0,5	0,427800
12,716833	0,5	0,424600
12,725167	0,5	0,424200
12,733500	0,5	0,425100
12,741833	0,5	0,424050
12,750167	0,5	0,421700
12,758500	0,5	0,420800
12,766833	0,5	0,419700
12,775167	0,5	0,416050
12,783500	0,5	0,417950
12,791833	0,5	0,420300
12,800167	0,5	0,417850
12,808500	0,5	0,415450
12,816833	0,5	0,411650
12,825167	0,5	0,412100
12,833500	0,5	0,414400
12,841833	0,5	0,414050
12,850167	0,5	0,413700
12,858500	0,5	0,413900
12,866833	0,5	0,412750
12,875167	0,5	0,414200
12,883500	0,5	0,415050
12,891833	0,5	0,410500
12,900167	0,5	0,411450
12,908500	0,5	0,413100
12,916833	0,5	0,409100
12,925167	0,5	0,405100
12,933500	0,5	0,407200
12,941833	0,5	0,409250
12,950167	0,5	0,403800
12,958500	0,5	0,402550
12,966833	0,5	0,396050
12,975167	0,5	0,398600
12,983500	0,5	0,403250
12,991833	0,5	0,402050
13,000167	0,5	0,400300
13,008500	0,5	0,401950
13,016833	0,5	0,401500
13,025167	0,5	0,401000
13,033500	0,5	0,404600
13,041833	0,5	0,406400
13,050167	0,5	0,403950
13,058500	0,5	0,404950
13,066833	0,5	0,403850
13,075167	0,5	0,401350
13,083500	0,5	0,408250
13,091833	0,5	0,408200
13,100167	0,5	0,405700
13,108500	0,5	0,399850
13,116833	0,5	0,399150
13,125167	0,5	0,405300
13,133500	0,5	0,405850
13,141833	0,5	0,403700
13,150167	0,5	0,402500
13,158500	0,5	0,404250
13,166833	0,5	0,405850
13,175167	0,5	0,408850
13,183500	0,5	0,407150
13,191833	0,5	0,405650
13,200167	0,5	0,404500
13,208500	0,5	0,408650
13,216833	0,5	0,403550
13,225167	0,5	0,405650
13,233500	0,5	0,411550
13,241833	0,5	0,408650
13,250167	0,5	0,401550
13,258500	0,5	0,400000
13,266833	0,5	0,402850
13,275167	0,5	0,410100
13,283500	0,5	0,407900
13,291833	0,5	0,412600
13,300167	0,5	0,411100
13,308500	0,5	0,412000
13,316833	0,5	0,412100
13,325167	0,5	0,412450
13,333500	0,5	0,412150
13,341833	0,5	0,411850
13,350167	0,5	0,413200
13,358500	0,5	0,416300
13,366833	0,5	0,408950
13,375167	0,5	0,413850
13,383500	0,5	0,415500
13,391833	0,5	0,414100
13,400167	0,5	0,407600
13,408500	0,5	0,404400
13,416833	0,5	0,409150
13,425167	0,5	0,407650
13,433500	0,5	0,409400
13,441833	0,5	0,407200
13,450167	0,5	0,413600
13,458500	0,5	0,407250
13,466833	0,5	0,411550
13,475167	0,5	0,409150
13,483500	0,5	0,412600
13,491833	0,5	0,411400
13,500167	0,5	0,412050
13,508500	0,5	0,411000
13,516833	0,5	0,407950
13,525167	0,5	0,413200
13,533500	0,5	0,411050
13,541833	0,5	0,410850
13,550167	0,5	0,404050
13,558500	0,5	0,396300
13,566833	0,5	0,400850
13,575167	0,5	0,405600
13,583500	0,5	0,406500
13,591833	0,5	0,409550
13,600167	0,5	0,407550
13,608500	0,5	0,409650
13,616833	0,5	0,406750
13,625167	0,5	0,411300
13,633500	0,5	0,407250
13,641833	0,5	0,408450
13,650167	0,5	0,411200
13,658500	0,5	0,406250
13,666833	0,5	0,408900
13,675167	0,5	0,417400
13,683500	0,5	0,415700
13,691833	0,5	0,412350
13,700167	0,5	0,408300
13,708500	0,5	0,406500
13,716833	0,5	0,410950
13,725167	0,5	0,411950
13,733500	0,5	0,414300
13,741833	0,5	0,415750
13,750167	0,5	0,418350
13,758500	0,5	0,412300
13,766833	0,5	0,423050
13,775167	0,5	0,420950
13,783500	0,5	0,426150
13,791833	0,5	0,428150
13,800167	0,5	0,431400
13,808500	0,5	0,423000
13,816833	0,5	0,430150
13,825167	0,5	0,431400
13,833500	0,5	0,430050
13,841833	0,5	0,425850
13,850167	0,5	0,419000
13,858500	0,5	0,418200
13,866833	0,5	0,418150
13,875167	0,5	0,419800
13,883500	0,5	0,419250
13,891833	0,5	0,420250
13,900167	0,5	0,420650
13,908500	0,5	0,421750
13,916833	0,5	0,419500
13,925167	0,5	0,422450
13,933500	0,5	0,419950
13,941833	0,5	0,425950
13,950167	0,5	0,421100
13,958500	0,5	0,419500
13,966833	0,5	0,419900
13,975167	0,5	0,423750
13,983500	0,5	0,415900
13,991833	0,5	0,417300
14,000167	0,5	0,409400
14,008500	0,5	0,420050
14,016833	0,5	0,420700
14,025167	0,5	0,427400
14,033500	0,5	0,426800
14,041833	0,5	0,421700
14,050167	0,5	0,425300
14,058500	0,5	0,428350
14,066833	0,5	0,425850
14,075167	0,5	0,425500
14,083500	0,5	0,426000
14,091833	0,5	0,427950
14,100167	0,5	0,428750
14,108500	0,5	0,424850
14,116833	0,5	0,433350
14,125167	0,5	0,431850
14,133500	0,5	0,427200
14,141833	0,5	0,420750
14,150167	0,5	0,424550
14,158500	0,5	0,426950
14,166833	0,5	0,425500
14,175167	0,5	0,421450
14,183500	0,5	0,425300
14,191833	0,5	0,422650
14,200167	0,5	0,423100
14,208500	0,5	0,421450
14,216833	0,5	0,416750
14,225167	0,5	0,418300
14,233500	0,5	0,413200
14,241833	0,5	0,418400
14,250167	0,5	0,413550
14,258500	0,5	0,416900
14,266833	0,5	0,419450
14,275167	0,5	0,422150
14,283500	0,5	0,415300
14,291833	0,5	0,414000
14,300167	0,5	0,419450
14,308500	0,5	0,428100
14,316833	0,5	0,424100
14,325167	0,5	0,423500
14,333500	0,5	0,418200
14,341833	0,5	0,419550
14,350167	0,5	0,414000
14,358500	0,5	0,415250
14,366833	0,5	0,410800
14,375167	0,5	0,406450
14,383500	0,5	0,412450
14,391833	0,5	0,409200
14,400167	0,5	0,405150
14,408500	0,5	0,410350
14,416833	0,5	0,408200
14,425167	0,5	0,406950
14,433500	0,5	0,404250
14,441833	0,5	0,396250
14,450167	0,5	0,400700
14,458500	0,5	0,401500
14,466833	0,5	0,405900
14,475167	0,5	0,402850
14,483500	0,5	0,405500
14,491833	0,5	0,403400
14,500167	0,5	0,410400
14,508500	0,5	0,408850
14,516833	0,5	0,407250
14,525167	0,5	0,408350
14,533500	0,5	0,407350
14,541833	0,5	0,395450
14,550167	0,5	0,400050
14,558500	0,5	0,406500
14,566833	0,5	0,402800
14,575167	0,5	0,398150
14,583500	0,5	0,387150
14,591833	0,5	0,389000
14,600167	0,5	0,387200
14,608500	0,5	0,393200
14,616833	0,5	0,392950
14,625167	0,5	0,392600
14,633500	0,5	0,395900
14,641833	0,5	0,396850
14,650167	0,5	0,395200
14,658500	0,5	0,394350
14,666833	0,5	0,394550
14,675167	0,5	0,393800
14,683500	0,5	0,394900
14,691833	0,5	0,388200
14,700167	0,5	0,397750
14,708500	0,5	0,401700
14,716833	0,5	0,397900
14,725167	0,5	0,396250
14,733500	0,5	0,385350
14,741833	0,5	0,392800
14,750167	0,5	0,400350
14,758500	0,5	0,397300
14,766833	0,5	0,401600
14,775167	0,5	0,398100
14,783500	0,5	0,405300
14,791833	0,5	0,405300
14,800167	0,5	0,414950
14,808500	0,5	0,413650
14,816833	0,5	0,412150
14,825167	0,5	0,417450
14,833500	0,5	0,415950
14,841833	0,5	0,405150
14,850167	0,5	0,414600
14,858500	0,5	0,413000
14,866833	0,5	0,410100
14,875167	0,5	0,406150
14,883500	0,5	0,399450
14,891833	0,5	0,412650
14,900167	0,5	0,414250
14,908500	0,5	0,415600
14,916833	0,5	0,418000
14,925167	0,5	0,422450
14,933500	0,5	0,423850
14,941833	0,5	0,427850
14,950167	0,5	0,421800
14,958500	0,5	0,426350
14,966833	0,5	0,420200
14,975167	0,5	0,425850
14,983500	0,5	0,411550
14,991833	0,5	0,412000
15,000167	0,5	0,413550
15,008500	0,5	0,409800
15,016833	0,5	0,407150
15,025167	0,5	0,401200
15,033500	0,5	0,399950
15,041833	0,5	0,404650
15,050167	0,5	0,405650
15,058500	0,5	0,408650
15,066833	0,5	0,404450
15,075167	0,5	0,404650
15,083500	0,5	0,398500
15,091833	0,5	0,401800
15,100167	0,5	0,404150
15,108500	0,5	0,399350
15,116833	0,5	0,405600
15,125167	0,5	0,403400
15,133500	0,5	0,395950
15,141833	0,5	0,398050
15,150167	0,5	0,398200
15,158500	0,5	0,392800
15,166833	0,5	0,389200
15,175167	0,5	0,377950
15,183500	0,5	0,374500
15,191833	0,5	0,377550
15,200167	0,5	0,380800
15,208500	0,5	0,376050
15,216833	0,5	0,378550
15,225167	0,5	0,379750
15,233500	0,5	0,380700
15,241833	0,5	0,382100
15,250167	0,5	0,378150
15,258500	0,5	0,378650
15,266833	0,5	0,375450
15,275167	0,5	0,379550
15,283500	0,5	0,371450
15,291833	0,5	0,386550
15,300167	0,5	0,379050
15,308500	0,5	0,380350
15,316833	0,5	0,374150
15,325167	0,5	0,371000
15,333500	0,5	0,372900
15,341833	0,5	0,383750
15,350167	0,5	0,383150
15,358500	0,5	0,391650
15,366833	0,5	0,394250
15,375167	0,5	0,397000
15,383500	0,5	0,401000
15,391833	0,5	0,399200
15,400167	0,5	0,403850
15,408500	0,5	0,405300
15,416833	0,5	0,406750
15,425167	0,5	0,400000
15,433500	0,5	0,400850
15,441833	0,5	0,405850
15,450167	0,5	0,401750
15,458500	0,5	0,398450
15,466833	0,5	0,392400
15,475167	0,5	0,391500
15,483500	0,5	0,400850
15,491833	0,5	0,393300
15,500167	0,5	0,399350
15,508500	0,5	0,397650
15,516833	0,5	0,405000
15,525167	0,5	0,405050
15,533500	0,5	0,407400
15,541833	0,5	0,404650
15,550167	0,5	0,407750
15,558500	0,5	0,415250
15,566833	0,5	0,416000
15,575167	0,5	0,403700
15,583500	0,5	0,415400
15,591833	0,5	0,411450
15,600167	0,5	0,413300
15,608500	0,5	0,410350
15,616833	0,5	0,401550
15,625167	0,5	0,408500
15,633500	0,5	0,410650
15,641833	0,5	0,415650
15,650167	0,5	0,408250
15,658500	0,5	0,418650
15,666833	0,5	0,419150
15,675167	0,5	0,422600
15,683500	0,5	0,426550
15,691833	0,5	0,423750
15,700167	0,5	0,425650
15,708500	0,5	0,433150
15,716833	0,5	0,435900
15,725167	0,5	0,429500
15,733500	0,5	0,442100
15,741833	0,5	0,443700
15,750167	0,5	0,440050
15,758500	0,5	0,436750
15,766833	0,5	0,433100
15,775167	0,5	0,439850
15,783500	0,5	0,443500
15,791833	0,5	0,436800
15,800167	0,5	0,443750
15,808500	0,5	0,441000
15,816833	0,5	0,447650
15,825167	0,5	0,446400
15,833500	0,5	0,449950
15,841833	0,5	0,450450
15,850167	0,5	0,450400
15,858500	0,5	0,458000
15,866833	0,5	0,455400
15,875167	0,5	0,454600
15,883500	0,5	0,465700
15,891833	0,5	0,462550
15,900167	0,5	0,459600
15,908500	0,5	0,457550
15,916833	0,5	0,459850
15,925167	0,5	0,471500
15,933500	0,5	0,469750
15,941833	0,5	0,469250
15,950167	0,5	0,471500
15,958500	0,5	0,474800
15,966833	0,5	0,480300
15,975167	0,5	0,480850
15,983500	0,5	0,480550
15,991833	0,5	0,485100
16,000167	0,5	0,488150
16,008500	0,5	0,497100
16,016833	0,5	0,488200
16,025167	0,5	0,497250
16,033500	0,5	0,493500
16,041833	0,5	0,497700
16,050167	0,5	0,492400
16,058500	0,5	0,489600
16,066833	0,5	0,491250
16,075167	0,5	0,504500
16,083500	0,5	0,509950
16,091833	0,5	0,512950
16,100167	0,5	0,515500
16,108500	0,5	0,514600
16,116833	0,5	0,512800
16,125167	0,5	0,513600
16,133500	0,5	0,507300
16,141833	0,5	0,506450
16,150167	0,5	0,508650
16,158500	0,5	0,501550
16,166833	0,5	0,499200
16,175167	0,5	0,497250
16,183500	0,5	0,503200
16,191833	0,5	0,496350
16,200167	0,5	0,486250
16,208500	0,5	0,486950
16,216833	0,5	0,493350
16,225167	0,5	0,490100
16,233500	0,5	0,496600
16,241833	0,5	0,497950
16,250167	0,5	0,498900
16,258500	0,5	0,498050
16,266833	0,5	0,497150
16,275167	0,5	0,502650
16,283500	0,5	0,501300
16,291833	0,5	0,504500
16,300167	0,5	0,504350
16,308500	0,5	0,494450
16,316833	0,5	0,499900
16,325167	0,5	0,507150
16,333500	0,5	0,506450
16,341833	0,5	0,505350
16,350167	0,5	0,492300
16,358500	0,5	0,495650
16,366833	0,5	0,501700
16,375167	0,5	0,505700
16,383500	0,5	0,502100
16,391833	0,5	0,506700
16,400167	0,5	0,504800
16,408500	0,5	0,506700
16,416833	0,5	0,509800
16,425167	0,5	0,510050
16,433500	0,5	0,510900
16,441833	0,5	0,510650
16,450167	0,5	0,519700
16,458500	0,5	0,506850
16,466833	0,5	0,527050
16,475167	0,5	0,524000
16,483500	0,5	0,528050
16,491833	0,5	0,524200
16,500167	0,5	0,519700
16,508500	0,5	0,525550
16,516833	0,5	0,535700
16,525167	0,5	0,536600
16,533500	0,5	0,540300
16,541833	0,5	0,539900
16,550167	0,5	0,544000
16,558500	0,5	0,545850
16,566833	0,5	0,547950
16,575167	0,5	0,544800
16,583500	0,5	0,548250
16,591833	0,5	0,554000
16,600167	0,5	0,553150
16,608500	0,5	0,545500
16,616833	0,5	0,554150
16,625167	0,5	0,556300
16,633500	0,5	0,555050
16,641833	0,5	0,555150
16,650167	0,5	0,548800
16,658500	0,5	0,556750
16,666833	0,5	0,560050
16,675167	0,5	0,565350
16,683500	0,5	0,569300
16,691833	0,5	0,580000
16,700167	0,5	0,580800
16,708500	0,5	0,583250
16,716833	0,5	0,584550
16,725167	0,5	0,588200
16,733500	0,5	0,596650
16,741833	0,5	0,601150
16,750167	0,5	0,592700
16,758500	0,5	0,601150
16,766833	0,5	0,606800
16,775167	0,5	0,606350
16,783500	0,5	0,608350
16,791833	0,5	0,598300
16,800167	0,5	0,601650
16,808500	0,5	0,601750
16,816833	0,5	0,612350
16,825167	0,5	0,615200
16,833500	0,5	0,625150
16,841833	0,5	0,624000
16,850167	0,5	0,632150
16,858500	0,5	0,636400
16,866833	0,5	0,640100
16,875167	0,5	0,643450
16,883500	0,5	0,653250
16,891833	0,5	0,652050
16,900167	0,5	0,650000
16,908500	0,5	0,658650
16,916833	0,5	0,662650
16,925167	0,5	0,660100
16,933500	0,5	0,655900
16,941833	0,5	0,655950
16,950167	0,5	0,657800
16,958500	0,5	0,668050
16,966833	0,5	0,667450
16,975167	0,5	0,670850
16,983500	0,5	0,673750
16,991833	0,5	0,681700
17,000167	0,5	0,685200
17,008500	0,5	0,693600
17,016833	0,5	0,689500
17,025167	0,5	0,693750
17,033500	0,5	0,700500
17,041833	0,5	0,704300
17,050167	0,5	0,703550
17,058500	0,5	0,715050
17,066833	0,5	0,715650
17,075167	0,5	0,710100
17,083500	0,5	0,706750
17,091833	0,5	0,703200
17,100167	0,5	0,708300
17,108500	0,5	0,710250
17,116833	0,5	0,708650
17,125167	0,5	0,713200
17,133500	0,5	0,717200
17,141833	0,5	0,713350
17,150167	0,5	0,720750
17,158500	0,5	0,719300
17,166833	0,5	0,723650
17,175167	0,5	0,726200
17,183500	0,5	0,731200
17,191833	0,5	0,727650
17,200167	0,5	0,731900
17,208500	0,5	0,736450
17,216833	0,5	0,734300
17,225167	0,5	0,728300
17,233500	0,5	0,725450
17,241833	0,5	0,727100
17,250167	0,5	0,728300
17,258500	0,5	0,730300
17,266833	0,5	0,727600
17,275167	0,5	0,711100
17,283500	0,5	0,721400
17,291833	0,5	0,726800
17,300167	0,5	0,722250
17,308500	0,5	0,725700
17,316833	0,5	0,715100
17,325167	0,5	0,722750
17,333500	0,5	0,719650
17,341833	0,5	0,717100
17,350167	0,5	0,720900
17,358500	0,5	0,725550
17,366833	0,5	0,723500
17,375167	0,5	0,720250
17,383500	0,5	0,708200
17,391833	0,5	0,709500
17,400167	0,5	0,714700
17,408500	0,5	0,718200
17,416833	0,5	0,718450
17,425167	0,5	0,721750
17,433500	0,5	0,723600
17,441833	0,5	0,719450
17,450167	0,5	0,723250
17,458500	0,5	0,720000
17,466833	0,5	0,726100
17,475167	0,5	0,724950
17,483500	0,5	0,719750
17,491833	0,5	0,722900
17,500167	0,5	0,732350
17,508500	0,5	0,730550
17,516833	0,5	0,730950
17,525167	0,5	0,712750
17,533500	0,5	0,715050
17,541833	0,5	0,721650
17,550167	0,5	0,727400
17,558500	0,5	0,728000
17,566833	0,5	0,733650
17,575167	0,5	0,735250
17,583500	0,5	0,737150
17,591833	0,5	0,745550
17,600167	0,5	0,747500
17,608500	0,5	0,749400
17,616833	0,5	0,755000
17,625167	0,5	0,755800
17,633500	0,5	0,742250
17,641833	0,5	0,754500
17,650167	0,5	0,756800
17,658500	0,5	0,754000
17,666833	0,5	0,751450
17,675167	0,5	0,744650
17,683500	0,5	0,746200
17,691833	0,5	0,755050
17,700167	0,5	0,747500
17,708500	0,5	0,749400
17,716833	0,5	0,748750
17,725167	0,5	0,745950
17,733500	0,5	0,749700
17,741833	0,5	0,750050
17,750167	0,5	0,746750
17,758500	0,5	0,745550
17,766833	0,5	0,747850
17,775167	0,5	0,744750
17,783500	0,5	0,730000
17,791833	0,5	0,739200
17,800167	0,5	0,735500
17,808500	0,5	0,725100
17,816833	0,5	0,722550
17,825167	0,5	0,701600
17,833500	0,5	0,712150
17,841833	0,5	0,706600
17,850167	0,5	0,706250
17,858500	0,5	0,701550
17,866833	0,5	0,703900
17,875167	0,5	0,699100
17,883500	0,5	0,703700
17,891833	0,5	0,703450
17,900167	0,5	0,700950
17,908500	0,5	0,704700
17,916833	0,5	0,707750
17,925167	0,5	0,697300
17,933500	0,5	0,695050
17,941833	0,5	0,700700
17,950167	0,5	0,696600
17,958500	0,5	0,692900
17,966833	0,5	0,683850
17,975167	0,5	0,681100
17,983500	0,5	0,685000
17,991833	0,5	0,687450
18,000167	0,5	0,683600
18,008500	0,5	0,689650
18,016833	0,5	0,687550
18,025167	0,5	0,690800
18,033500	0,5	0,683900
18,041833	0,5	0,689600
18,050167	0,5	0,687750
18,058500	0,5	0,690600
18,066833	0,5	0,694550
18,075167	0,5	0,687350
18,083500	0,5	0,696100
18,091833	0,5	0,699500
18,100167	0,5	0,701700
18,108500	0,5	0,693950
18,116833	0,5	0,686150
18,125167	0,5	0,685600
18,133500	0,5	0,696100
18,141833	0,5	0,696250
18,150167	0,5	0,699450
18,158500	0,5	0,699250
18,166833	0,5	0,705900
18,175167	0,5	0,707000
18,183500	0,5	0,710300
18,191833	0,5	0,711500
18,200167	0,5	0,714550
18,208500	0,5	0,724850
18,216833	0,5	0,725700
18,225167	0,5	0,716100
18,233500	0,5	0,725750
18,241833	0,5	0,725600
18,250167	0,5	0,728700
18,258500	0,5	0,723300
18,266833	0,5	0,718600
18,275167	0,5	0,732150
18,283500	0,5	0,735700
18,291833	0,5	0,746500
18,300167	0,5	0,747500
18,308500	0,5	0,755050
18,316833	0,5	0,757500
18,325167	0,5	0,767950
18,333500	0,5	0,765600
18,341833	0,5	0,768500
18,350167	0,5	0,772700
18,358500	0,5	0,781700
18,366833	0,5	0,767100
18,375167	0,5	0,774200
18,383500	0,5	0,779100
18,391833	0,5	0,775600
18,400167	0,5	0,772800
18,408500	0,5	0,760950
18,416833	0,5	0,758650
18,425167	0,5	0,755300
18,433500	0,5	0,760700
18,441833	0,5	0,758550
18,450167	0,5	0,766500
18,458500	0,5	0,764850
18,466833	0,5	0,765050
18,475167	0,5	0,763450
18,483500	0,5	0,767600
18,491833	0,5	0,766400
18,500167	0,5	0,772100
18,508500	0,5	0,766400
18,516833	0,5	0,763100
18,525167	0,5	0,768500
18,533500	0,5	0,768600
18,541833	0,5	0,763900
18,550167	0,5	0,753700
18,558500	0,5	0,751650
18,566833	0,5	0,755900
18,575167	0,5	0,757250
18,583500	0,5	0,759200
18,591833	0,5	0,762150
18,600167	0,5	0,762300
18,608500	0,5	0,765600
18,616833	0,5	0,766250
18,625167	0,5	0,773900
18,633500	0,5	0,772000
18,641833	0,5	0,769750
18,650167	0,5	0,776100
18,658500	0,5	0,772100
18,666833	0,5	0,766700
18,675167	0,5	0,781150
18,683500	0,5	0,783950
18,691833	0,5	0,782700
18,700167	0,5	0,775650
18,708500	0,5	0,774050
18,716833	0,5	0,783700
18,725167	0,5	0,789250
18,733500	0,5	0,782450
18,741833	0,5	0,774850
18,750167	0,5	0,783750
18,758500	0,5	0,777850
18,766833	0,5	0,781450
18,775167	0,5	0,778000
18,783500	0,5	0,781050
18,791833	0,5	0,777100
18,800167	0,5	0,787150
18,808500	0,5	0,778000
18,816833	0,5	0,784050
18,825167	0,5	0,784450
18,833500	0,5	0,784800
18,841833	0,5	0,774600
18,850167	0,5	0,769350
18,858500	0,5	0,774250
18,866833	0,5	0,779700
18,875167	0,5	0,779350
18,883500	0,5	0,780000
18,891833	0,5	0,783450
18,900167	0,5	0,786750
18,908500	0,5	0,791850
18,916833	0,5	0,793200
18,925167	0,5	0,794150
18,933500	0,5	0,793900
18,941833	0,5	0,804850
18,950167	0,5	0,802200
18,958500	0,5	0,795900
18,966833	0,5	0,808250
18,975167	0,5	0,808100
18,983500	0,5	0,811200
18,991833	0,5	0,802100
19,000167	0,5	0,796850
19,008500	0,5	0,802100
19,016833	0,5	0,805200
19,025167	0,5	0,812250
19,033500	0,5	0,808000
19,041833	0,5	0,811650
19,050167	0,5	0,811850
19,058500	0,5	0,818700
19,066833	0,5	0,821450
19,075167	0,5	0,820800
19,083500	0,5	0,825750
19,091833	0,5	0,833750
19,100167	0,5	0,829250
19,108500	0,5	0,828900
19,116833	0,5	0,837700
19,125167	0,5	0,834800
19,133500	0,5	0,840650
19,141833	0,5	0,828350
19,150167	0,5	0,825250
19,158500	0,5	0,831900
19,166833	0,5	0,842900
19,175167	0,5	0,844400
19,183500	0,5	0,851000
19,191833	0,5	0,849250
19,200167	0,5	0,852500
19,208500	0,5	0,855450
19,216833	0,5	0,858500
19,225167	0,5	0,861400
19,233500	0,5	0,866600
19,241833	0,5	0,874450
19,250167	0,5	0,857050
19,258500	0,5	0,872050
19,266833	0,5	0,878300
19,275167	0,5	0,881550
19,283500	0,5	0,867150
19,291833	0,5	0,858650
19,300167	0,5	0,868850
19,308500	0,5	0,875750
19,316833	0,5	0,872100
19,325167	0,5	0,878200
19,333500	0,5	0,876650
19,341833	0,5	0,884750
19,350167	0,5	0,879700
19,358500	0,5	0,882400
19,366833	0,5	0,888200
19,375167	0,5	0,892000
19,383500	0,5	0,903000
19,391833	0,5	0,906000
19,400167	0,5	0,896900
19,408500	0,5	0,907200
19,416833	0,5	0,907800
19,425167	0,5	0,910200
19,433500	0,5	0,906350
19,441833	0,5	0,896100
19,450167	0,5	0,902500
19,458500	0,5	0,904300
19,466833	0,5	0,915200
19,475167	0,5	0,915850
19,483500	0,5	0,922300
19,491833	0,5	0,922500
19,500167	0,5	0,928800
19,508500	0,5	0,930650
19,516833	0,5	0,928850
19,525167	0,5	0,941400
19,533500	0,5	0,949100
19,541833	0,5	0,950200
19,550167	0,5	0,953300
19,558500	0,5	0,960900
19,566833	0,5	0,958350
19,575167	0,5	0,957900
19,583500	0,5	0,945050
19,591833	0,5	0,947200
19,600167	0,5	0,946050
19,608500	0,5	0,959300
19,616833	0,5	0,957550
19,625167	0,5	0,969000
19,633500	0,5	0,967450
19,641833	0,5	0,972250
19,650167	0,5	0,974800
19,658500	0,5	0,970050
19,666833	0,5	0,972050
19,675167	0,5	0,988000
19,683500	0,5	0,990700
19,691833	0,5	0,984700
19,700167	0,5	0,994750
19,708500	0,5	0,998000
19,716833	0,5	1,001250
19,725167	0,5	0,995800
19,733500	0,5	0,995100
19,741833	0,5	0,999550
19,750167	0,5	1,009950
19,758500	0,5	1,002800
19,766833	0,5	1,010450
19,775167	0,5	1,017750
19,783500	0,5	1,026100
19,791833	0,5	1,030950
19,800167	0,5	1,039350
19,808500	0,5	1,039500
19,816833	0,5	1,048350
19,825167	0,5	1,058400
19,833500	0,5	1,059350
19,841833	0,5	1,061850
19,850167	0,5	1,070650
19,858500	0,5	1,070200
19,866833	0,5	1,068750
19,875167	0,5	1,058750
19,883500	0,5	1,060100
19,891833	0,5	1,071100
19,900167	0,5	1,071500
19,908500	0,5	1,074400
19,916833	0,5	1,075750
19,925167	0,5	1,083450
19,933500	0,5	1,081950
19,941833	0,5	1,089250
19,950167	0,5	1,091600
19,958500	0,5	1,095100
19,966833	0,5	1,106900
19,975167	0,5	1,120600
19,983500	0,5	1,104800
19,991833	0,5	1,117750
20,000167	0,5	1,120950
20,008500	0,5	1,126300
20,016833	0,5	1,120200
20,025167	0,5	1,112850
20,033500	0,5	1,119200
20,041833	0,5	1,125700
20,050167	0,5	1,133650
20,058500	0,5	1,127500
20,066833	0,5	1,135200
20,075167	0,5	1,135000
20,083500	0,5	1,145600
20,091833	0,5	1,145300
20,100167	0,5	1,150250
20,108500	0,5	1,151500
20,116833	0,5	1,161600
20,125167	0,5	1,160700
20,133500	0,5	1,158500
20,141833	0,5	1,164500
20,150167	0,5	1,164000
20,158500	0,5	1,166650
20,166833	0,5	1,149850
20,175167	0,5	1,148300
20,183500	0,5	1,153500
20,191833	0,5	1,163700
20,200167	0,5	1,165900
20,208500	0,5	1,178150
20,216833	0,5	1,179050
20,225167	0,5	1,190700
20,233500	0,5	1,191250
20,241833	0,5	1,199200
20,250167	0,5	1,201200
20,258500	0,5	1,213000
20,266833	0,5	1,220300
20,275167	0,5	1,216950
20,283500	0,5	1,222900
20,291833	0,5	1,233850
20,300167	0,5	1,235700
20,308500	0,5	1,238700
20,316833	0,5	1,224400
20,325167	0,5	1,226150
20,333500	0,5	1,243450
20,341833	0,5	1,248250
20,350167	0,5	1,251250
20,358500	0,5	1,256000
20,366833	0,5	1,261200
20,375167	0,5	1,268050
20,383500	0,5	1,281000
20,391833	0,5	1,284500
20,400167	0,5	1,290900
20,408500	0,5	1,307150
20,416833	0,5	1,320950
20,425167	0,5	1,313100
20,433500	0,5	1,323750
20,441833	0,5	1,327800
20,450167	0,5	1,328000
20,458500	0,5	1,324900
20,466833	0,5	1,313500
20,475167	0,5	1,325750
20,483500	0,5	1,329150
20,491833	0,5	1,335000
20,500167	0,5	1,338200
20,508500	0,5	1,344450
20,516833	0,5	1,344900
20,525167	0,5	1,352600
20,533500	0,5	1,357500
20,541833	0,5	1,363700
20,550167	0,5	1,372750
20,558500	0,5	1,390400
20,566833	0,5	1,392650
20,575167	0,5	1,394200
20,583500	0,5	1,399750
20,591833	0,5	1,404100
20,600167	0,5	1,404250
20,608500	0,5	1,396250
20,616833	0,5	1,403850
20,625167	0,5	1,413200
20,633500	0,5	1,419300
20,641833	0,5	1,425900
20,650167	0,5	1,434500
20,658500	0,5	1,440550
20,666833	0,5	1,449450
20,675167	0,5	1,453700
20,683500	0,5	1,467400
20,691833	0,5	1,475250
20,700167	0,5	1,495650
20,708500	0,5	1,513100
20,716833	0,5	1,516700
20,725167	0,5	1,518150
20,733500	0,5	1,527200
20,741833	0,5	1,533050
20,750167	0,5	1,535450
20,758500	0,5	1,522450
20,766833	0,5	1,537850
20,775167	0,5	1,545050
20,783500	0,5	1,552900
20,791833	0,5	1,561200
20,800167	0,5	1,573500
20,808500	0,5	1,582750
20,816833	0,5	1,593700
20,825167	0,5	1,602650
20,833500	0,5	1,607950
20,841833	0,5	1,625500
20,850167	0,5	1,654700
20,858500	0,5	1,678750
20,866833	0,5	1,695350
20,875167	0,5	1,724550
20,883500	0,5	1,742650
20,891833	0,5	1,769750
20,900167	0,5	1,777750
20,908500	0,5	1,787300
20,916833	0,5	1,796650
20,925167	0,5	1,797950
20,933500	0,5	1,799200
20,941833	0,5	1,799200
20,950167	0,5	1,797700
20,958500	0,5	1,798900
20,966833	0,5	1,811800
20,975167	0,5	1,811000
20,983500	0,5	1,822800
20,991833	0,5	1,843450
21,000167	0,5	1,860200
21,008500	0,5	1,873950
21,016833	0,5	1,875350
21,025167	0,5	1,885250
21,033500	0,5	1,891700
21,041833	0,5	1,892600
21,050167	0,5	1,895400
21,058500	0,5	1,907350
21,066833	0,5	1,924350
21,075167	0,5	1,938550
21,083500	0,5	1,953500
21,091833	0,5	1,974250
21,100167	0,5	1,993800
21,108500	0,5	2,015600
21,116833	0,5	2,033550
21,125167	0,5	2,059150
21,133500	0,5	2,078550
21,141833	0,5	2,120400
21,150167	0,5	2,161650
21,158500	0,5	2,179750
21,166833	0,5	2,209050
21,175167	0,5	2,237200
21,183500	0,5	2,248050
21,191833	0,5	2,260000
21,200167	0,5	2,272050
21,208500	0,5	2,273750
21,216833	0,5	2,272650
21,225167	0,5	2,266700
21,233500	0,5	2,265900
21,241833	0,5	2,262450
21,250167	0,5	2,264950
21,258500	0,5	2,266250
21,266833	0,5	2,275100
21,275167	0,5	2,275250
21,283500	0,5	2,303400
21,291833	0,5	2,327050
21,300167	0,5	2,348800
21,308500	0,5	2,360500
21,316833	0,5	2,381650
21,325167	0,5	2,392200
21,333500	0,5	2,399200
21,341833	0,5	2,406500
21,350167	0,5	2,423350
21,358500	0,5	2,438300
21,366833	0,5	2,445500
21,375167	0,5	2,458300
21,383500	0,5	2,467800
21,391833	0,5	2,482850
21,400167	0,5	2,499300
21,408500	0,5	2,518100
21,416833	0,5	2,536100
21,425167	0,5	2,552600
21,433500	0,5	2,582650
21,441833	0,5	2,607700
21,450167	0,5	2,614950
21,458500	0,5	2,629000
21,466833	0,5	2,631600
21,475167	0,5	2,640800
21,483500	0,5	2,653500
21,491833	0,5	2,658850
21,500167	0,5	2,692050
21,508500	0,5	2,711950
21,516833	0,5	2,732250
21,525167	0,5	2,748300
21,533500	0,5	2,766900
21,541833	0,5	2,786900
21,550167	0,5	2,810750
21,558500	0,5	2,822950
21,566833	0,5	2,844700
21,575167	0,5	2,871600
21,583500	0,5	2,904350
21,591833	0,5	2,922400
21,600167	0,5	2,931550
21,608500	0,5	2,943800
21,616833	0,5	2,958600
21,625167	0,5	2,964600
21,633500	0,5	2,974650
21,641833	0,5	3,000300
21,650167	0,5	3,030200
21,658500	0,5	3,063000
21,666833	0,5	3,090750
21,675167	0,5	3,117550
21,683500	0,5	3,141250
21,691833	0,5	3,162900
21,700167	0,5	3,179250
21,708500	0,5	3,200800
21,716833	0,5	3,215800
21,725167	0,5	3,251200
21,733500	0,5	3,278050
21,741833	0,5	3,287500
21,750167	0,5	3,304700
21,758500	0,5	3,322700
21,766833	0,5	3,341600
21,775167	0,5	3,354300
21,783500	0,5	3,377100
21,791833	0,5	3,395650
21,800167	0,5	3,427650
21,808500	0,5	3,447950
21,816833	0,5	3,472650
21,825167	0,5	3,488550
21,833500	0,5	3,508900
21,841833	0,5	3,525150
21,850167	0,5	3,542900
21,858500	0,5	3,560600
21,866833	0,5	3,586600
21,875167	0,5	3,617350
21,883500	0,5	3,639550
21,891833	0,5	3,660650
21,900167	0,5	3,695450
21,908500	0,5	3,715400
21,916833	0,5	3,744950
21,925167	0,5	3,773250
21,933500	0,5	3,809450
21,941833	0,5	3,850500
21,950167	0,5	3,893800
21,958500	0,5	3,941650
21,966833	0,5	3,990950
21,975167	0,5	4,041950
21,983500	0,5	4,086850
21,991833	0,5	4,123500
22,000167	0,5	4,153550
22,008500	0,5	4,189000
22,016833	0,5	4,221000
22,025167	0,5	4,233850
22,033500	0,5	4,226300
22,041833	0,5	4,237800
22,050167	0,5	4,250650
22,058500	0,5	4,266700
22,066833	0,5	4,275250
22,075167	0,5	4,297650
22,083500	0,5	4,331850
22,091833	0,5	4,356950
22,100167	0,5	4,385700
22,108500	0,5	4,415250
22,116833	0,5	4,445250
22,125167	0,5	4,471400
22,133500	0,5	4,508500
22,141833	0,5	4,534700
22,150167	0,5	4,565250
22,158500	0,5	4,599850
22,166833	0,5	4,649600
22,175167	0,5	4,673050
22,183500	0,5	4,731750
22,191833	0,5	4,774400
22,200167	0,5	4,816350
22,208500	0,5	4,853450
22,216833	0,5	4,878000
22,225167	0,5	4,924200
22,233500	0,5	4,957850
22,241833	0,5	4,998400
22,250167	0,5	5,029450
22,258500	0,5	5,075900
22,266833	0,5	5,108950
22,275167	0,5	5,156850
22,283500	0,5	5,198800
22,291833	0,5	5,247400
22,300167	0,5	5,289300
22,308500	0,5	5,334800
22,316833	0,5	5,383100
22,325167	0,5	5,440800
22,333500	0,5	5,511350
22,341833	0,5	5,571450
22,350167	0,5	5,621650
22,358500	0,5	5,684600
22,366833	0,5	5,749450
22,375167	0,5	5,840400
22,383500	0,5	5,946100
22,391833	0,5	6,055350
22,400167	0,5	6,168150
22,408500	0,5	6,275650
22,416833	0,5	6,368400
22,425167	0,5	6,429700
22,433500	0,5	6,486350
22,441833	0,5	6,518650
22,450167	0,5	6,545750
22,458500	0,5	6,558000
22,466833	0,5	6,591550
22,475167	0,5	6,634000
22,483500	0,5	6,674950
22,491833	0,5	6,715000
22,500167	0,5	6,751150
22,508500	0,5	6,788150
22,516833	0,5	6,838550
22,525167	0,5	6,895100
22,533500	0,5	6,945500
22,541833	0,5	6,997200
22,550167	0,5	7,037800
22,558500	0,5	7,084900
22,566833	0,5	7,123400
22,575167	0,5	7,164500
22,583500	0,5	7,196250
22,591833	0,5	7,231900
22,600167	0,5	7,226750
22,608500	0,5	7,266700
22,616833	0,5	7,290800
22,625167	0,5	7,314750
22,633500	0,5	7,308750
22,641833	0,5	7,296700
22,650167	0,5	7,266600
22,658500	0,5	7,238200
22,666833	0,5	7,213750
22,675167	0,5	7,180400
22,683500	0,5	7,147350
22,691833	0,5	7,101450
22,700167	0,5	7,053000
22,708500	0,5	6,998950
22,716833	0,5	6,944300
22,725167	0,5	6,874850
22,733500	0,5	6,808500
22,741833	0,5	6,722500
22,750167	0,5	6,610250
22,758500	0,5	6,522500
22,766833	0,5	6,449950
22,775167	0,5	6,344950
22,783500	0,5	6,227100
22,791833	0,5	6,100750
22,800167	0,5	5,956900
22,808500	0,5	5,826650
22,816833	0,5	5,688400
22,825167	0,5	5,539750
22,833500	0,5	5,392900
22,841833	0,5	5,241950
22,850167	0,5	5,092900
22,858500	0,5	4,935950
22,866833	0,5	4,780550
22,875167	0,5	4,621500
22,883500	0,5	4,468050
22,891833	0,5	4,292700
22,900167	0,5	4,127800
22,908500	0,5	3,978600
22,916833	0,5	3,820350
22,925167	0,5	3,652150
22,933500	0,5	3,495850
22,941833	0,5	3,338050
22,950167	0,5	3,190950
22,958500	0,5	3,032850
22,966833	0,5	2,881250
22,975167	0,5	2,742750
22,983500	0,5	2,601550
22,991833	0,5	2,472950
23,000167	0,5	2,334250
23,008500	0,5	2,208050
23,016833	0,5	2,070800
23,025167	0,5	1,959600
23,033500	0,5	1,841000
23,041833	0,5	1,723000
23,050167	0,5	1,619700
23,058500	0,5	1,484650
23,066833	0,5	1,347750
23,075167	0,5	1,251250
23,083500	0,5	1,151700
23,091833	0,5	1,057550
23,100167	0,5	0,960900
23,108500	0,5	0,857650
23,116833	0,5	0,773150
23,125167	0,5	0,689000
23,133500	0,5	0,609050
23,141833	0,5	0,530700
23,150167	0,5	0,455750
23,158500	0,5	0,374650
23,166833	0,5	0,307900
23,175167	0,5	0,229750
23,183500	0,5	0,191350
23,191833	0,5	0,109350
23,200167	0,5	0,065050
23,208500	0,5	-0,026100
23,216833	0,5	-0,103350
23,225167	0,5	-0,164250
23,233500	0,5	-0,210650
23,241833	0,5	-0,260250
23,250167	0,5	-0,306000
23,258500	0,5	-0,358600
23,266833	0,5	-0,406000
23,275167	0,5	-0,448850
23,283500	0,5	-0,492050
23,291833	0,5	-0,527100
23,300167	0,5	-0,569850
23,308500	0,5	-0,605800
23,316833	0,5	-0,642450
23,325167	0,5	-0,671900
23,333500	0,5	-0,723750
23,341833	0,5	-0,746500
23,350167	0,5	-0,745800
23,358500	0,5	-0,806550
23,366833	0,5	-0,853800
23,375167	0,5	-0,883500
23,383500	0,5	-0,906450
23,391833	0,5	-0,929250
23,400167	0,5	-0,956250
23,408500	0,5	-0,985100
23,416833	0,5	-1,012700
23,425167	0,5	-1,032700
23,433500	0,5	-1,053050
23,441833	0,5	-1,067300
23,450167	0,5	-1,086550
23,458500	0,5	-1,106550
23,466833	0,5	-1,123600
23,475167	0,5	-1,134550
23,483500	0,5	-1,214700
23,491833	0,5	-1,195550
23,500167	0,5	-1,169100
23,508500	0,5	-1,192700
23,516833	0,5	-1,217200
23,525167	0,5	-1,237150
23,533500	0,5	-1,248800
23,541833	0,5	-1,267950
23,550167	0,5	-1,283400
23,558500	0,5	-1,296300
23,566833	0,5	-1,306750
23,575167	0,5	-1,320600
23,583500	0,5	-1,328350
23,591833	0,5	-1,341350
23,600167	0,5	-1,345500
23,608500	0,5	-1,359150
23,616833	0,5	-1,363800
23,625167	0,5	-1,457850
23,633500	0,5	-1,434500
23,641833	0,5	-1,426050
23,650167	0,5	-1,380650
23,658500	0,5	-1,386950
23,666833	0,5	-1,395200
23,675167	0,5	-1,403350
23,683500	0,5	-1,413750
23,691833	0,5	-1,417800
23,700167	0,5	-1,420650
23,708500	0,5	-1,423400
23,716833	0,5	-1,427200
23,725167	0,5	-1,428100
23,733500	0,5	-1,431200
23,741833	0,5	-1,430300
23,750167	0,5	-1,433200
23,758500	0,5	-1,434950
23,766833	0,5	-1,444450
23,775167	0,5	-1,551650
23,783500	0,5	-1,500400
23,791833	0,5	-1,483300
23,800167	0,5	-1,439400
23,808500	0,5	-1,436400
23,816833	0,5	-1,432100
23,825167	0,5	-1,433850
23,833500	0,5	-1,443550
23,841833	0,5	-1,430050
23,850167	0,5	-1,428900
23,858500	0,5	-1,422350
23,866833	0,5	-1,418200
23,875167	0,5	-1,408350
23,883500	0,5	-1,406150
23,891833	0,5	-1,396750
23,900167	0,5	-1,394950
23,908500	0,5	-1,390750
23,916833	0,5	-1,455550
23,925167	0,5	-1,486850
23,933500	0,5	-1,443150
23,941833	0,5	-1,395450
23,950167	0,5	-1,371100
23,958500	0,5	-1,361150
23,966833	0,5	-1,357750
23,975167	0,5	-1,361100
23,983500	0,5	-1,359250
23,991833	0,5	-1,354700
24,000167	0,5	-1,343550
24,008500	0,5	-1,338900
24,016833	0,5	-1,323750
24,025167	0,5	-1,315650
24,033500	0,5	-1,301850
24,041833	0,5	-1,294350
24,050167	0,5	-1,280150
24,058500	0,5	-1,278100
24,066833	0,5	-1,371700
24,075167	0,5	-1,339850
24,083500	0,5	-1,294650
24,091833	0,5	-1,256550
24,100167	0,5	-1,232400
24,108500	0,5	-1,225200
24,116833	0,5	-1,221700
24,125167	0,5	-1,220750
24,133500	0,5	-1,218750
24,141833	0,5	-1,197250
24,150167	0,5	-1,191750
24,158500	0,5	-1,179200
24,166833	0,5	-1,172850
24,175167	0,5	-1,159500
24,183500	0,5	-1,152000
24,191833	0,5	-1,138700
24,200167	0,5	-1,135000
24,208500	0,5	-1,135000
24,216833	0,5	-1,211500
24,225167	0,5	-1,167600
24,233500	0,5	-1,136200
24,241833	0,5	-1,099800
24,250167	0,5	-1,083950
24,258500	0,5	-1,070200
24,266833	0,5	-1,070900
24,275167	0,5	-1,064350
24,283500	0,5	-1,052550
24,291833	0,5	-1,043000
24,300167	0,5	-1,035800
24,308500	0,5	-1,025650
24,316833	0,5	-1,014700
24,325167	0,5	-1,004050
24,333500	0,5	-0,992150
24,341833	0,5	-0,987200
24,350167	0,5	-0,975450
24,358500	0,5	-1,022350
24,366833	0,5	-1,022700
24,375167	0,5	-1,007450
24,383500	0,5	-0,963400
24,391833	0,5	-0,943150
24,400167	0,5	-0,935850
24,408500	0,5	-0,931100
24,416833	0,5	-0,931600
24,425167	0,5	-0,922900
24,433500	0,5	-0,914100
24,441833	0,5	-0,905250
24,450167	0,5	-0,896000
24,458500	0,5	-0,884800
24,466833	0,5	-0,875050
24,475167	0,5	-0,867800
24,483500	0,5	-0,857600
24,491833	0,5	-0,844150
24,500167	0,5	-0,845700
24,508500	0,5	-0,889700
24,516833	0,5	-0,870600
24,525167	0,5	-0,853000
24,533500	0,5	-0,828250
24,541833	0,5	-0,814150
24,550167	0,5	-0,805150
24,558500	0,5	-0,800000
24,566833	0,5	-0,807550
24,575167	0,5	-0,794500
24,583500	0,5	-0,786700
24,591833	0,5	-0,780500
24,600167	0,5	-0,782300
24,608500	0,5	-0,772000
24,616833	0,5	-0,763950
24,625167	0,5	-0,755800
24,633500	0,5	-0,746300
24,641833	0,5	-0,742400
24,650167	0,5	-0,744800
24,658500	0,5	-0,773150
24,666833	0,5	-0,748500
24,675167	0,5	-0,735100
24,683500	0,5	-0,713050
24,691833	0,5	-0,707250
24,700167	0,5	-0,703400
24,708500	0,5	-0,701200
24,716833	0,5	-0,700750
24,725167	0,5	-0,696800
24,733500	0,5	-0,687350
24,741833	0,5	-0,683650
24,750167	0,5	-0,677050
24,758500	0,5	-0,675200
24,766833	0,5	-0,667000
24,775167	0,5	-0,662300
24,783500	0,5	-0,658050
24,791833	0,5	-0,655050
24,800167	0,5	-0,679650
24,808500	0,5	-0,669800
24,816833	0,5	-0,659500
24,825167	0,5	-0,646600
24,833500	0,5	-0,635100
24,841833	0,5	-0,629900
24,850167	0,5	-0,626500
24,858500	0,5	-0,627450
24,866833	0,5	-0,626450
24,875167	0,5	-0,617750
24,883500	0,5	-0,615000
24,891833	0,5	-0,608600
24,900167	0,5	-0,607850
24,908500	0,5	-0,603300
24,916833	0,5	-0,602300
24,925167	0,5	-0,596300
24,933500	0,5	-0,592650
24,941833	0,5	-0,591150
24,950167	0,5	-0,606300
24,958500	0,5	-0,596450
24,966833	0,5	-0,587050
24,975167	0,5	-0,577600
24,983500	0,5	-0,572150
24,991833	0,5	-0,568800
25,000167	0,5	-0,572200
25,008500	0,5	-0,570850
25,016833	0,5	-0,567250
25,025167	0,5	-0,562050
25,033500	0,5	-0,555550
25,041833	0,5	-0,553850
25,050167	0,5	-0,550850
25,058500	0,5	-0,548550
25,066833	0,5	-0,543650
25,075167	0,5	-0,540850
25,083500	0,5	-0,537400
25,091833	0,5	-0,534950
25,100167	0,5	-0,545250
25,108500	0,5	-0,538300
25,116833	0,5	-0,529750
25,125167	0,5	-0,526400
25,133500	0,5	-0,522750
25,141833	0,5	-0,522700
25,150167	0,5	-0,522900
25,158500	0,5	-0,522850
25,166833	0,5	-0,521850
25,175167	0,5	-0,515100
25,183500	0,5	-0,513200
25,191833	0,5	-0,512000
25,200167	0,5	-0,507900
25,208500	0,5	-0,506500
25,216833	0,5	-0,504050
25,225167	0,5	-0,503100
25,233500	0,5	-0,500000
25,241833	0,5	-0,502650
25,250167	0,5	-0,497700
25,258500	0,5	-0,495750
25,266833	0,5	-0,491450
25,275167	0,5	-0,489950
25,283500	0,5	-0,490300
25,291833	0,5	-0,486850
25,300167	0,5	-0,488400
25,308500	0,5	-0,489300
25,316833	0,5	-0,482900
25,325167	0,5	-0,486750
25,333500	0,5	-0,483900
25,341833	0,5	-0,480350
25,350167	0,5	-0,478600
25,358500	0,5	-0,476450
25,366833	0,5	-0,475450
25,375167	0,5	-0,472650
25,383500	0,5	-0,471900
25,391833	0,5	-0,472200
25,400167	0,5	-0,464200
25,408500	0,5	-0,464150
25,416833	0,5	-0,465900
25,425167	0,5	-0,462450
25,433500	0,5	-0,460000
25,441833	0,5	-0,460700
25,450167	0,5	-0,458400
25,458500	0,5	-0,461150
25,466833	0,5	-0,460200
25,475167	0,5	-0,458250
25,483500	0,5	-0,457350
25,491833	0,5	-0,457600
25,500167	0,5	-0,455250
25,508500	0,5	-0,456100
25,516833	0,5	-0,453550
25,525167	0,5	-0,454600
25,533500	0,5	-0,450200
25,541833	0,5	-0,445950
25,550167	0,5	-0,444250
25,558500	0,5	-0,444050
25,566833	0,5	-0,445150
25,575167	0,5	-0,442450
25,583500	0,5	-0,443050
25,591833	0,5	-0,439450
25,600167	0,5	-0,439200
25,608500	0,5	-0,437350
25,616833	0,5	-0,435950
25,625167	0,5	-0,434700
25,633500	0,5	-0,433650
25,641833	0,5	-0,435600
25,650167	0,5	-0,431650
25,658500	0,5	-0,432300
25,666833	0,5	-0,433200
25,675167	0,5	-0,431250
25,683500	0,5	-0,428900
25,691833	0,5	-0,421600
25,700167	0,5	-0,422650
25,708500	0,5	-0,421700
25,716833	0,5	-0,427000
25,725167	0,5	-0,419350
25,733500	0,5	-0,422600
25,741833	0,5	-0,417550
25,750167	0,5	-0,416500
25,758500	0,5	-0,412350
25,766833	0,5	-0,413150
25,775167	0,5	-0,411350
25,783500	0,5	-0,412700
25,791833	0,5	-0,410850
25,800167	0,5	-0,409050
25,808500	0,5	-0,406850
25,816833	0,5	-0,405400
25,825167	0,5	-0,405850
25,833500	0,5	-0,403350
25,841833	0,5	-0,400000
25,850167	0,5	-0,395200
25,858500	0,5	-0,401200
25,866833	0,5	-0,401950
25,875167	0,5	-0,399100
25,883500	0,5	-0,395200
25,891833	0,5	-0,392600
25,900167	0,5	-0,387900
25,908500	0,5	-0,390950
25,916833	0,5	-0,387500
25,925167	0,5	-0,385350
25,933500	0,5	-0,383550
25,941833	0,5	-0,383900
25,950167	0,5	-0,379400
25,958500	0,5	-0,381700
25,966833	0,5	-0,377950
25,975167	0,5	-0,371950
25,983500	0,5	-0,370550
25,991833	0,5	-0,370100
26,000167	0,5	-0,365150
