File Path	chrom://chromeleon01/ikbm_chromeleon/2022/ICS-5000/ED1/Esteban/20220612_Cell_7_4_eg.seq/374.smp/ED_1.channel/ED_1.chm
Channel	ED_1

Injection Information:
Data Vault	ikbm_chromeleon
Injection	Std_C1ox-0.01_2
Injection Number	71
Position	RA2
Comment	
Processing Method	Stop sequence after Cell Death
Instrument Method	ICS5000_PA200_FullNative_Ox_26min_ED1
Type	Unknown
Status	Finished
Injection Date	14.06.2022
Injection Time	01:24:32
Injection Volume (µl)	5,0
Dilution Factor	1,0000
Weight	1,0000

Chromatogram Data Information:
Time Min. (min)	0,000167
Time Max. (min)	26,000167
Data Points	3121
Detector	EDet1
Generating Data System	Chromeleon 7.2.9.11323
Exporting Data System	Chromeleon 7.2.9.0
Operator	Instrument Controller
Signal Quantity	
Signal Unit	nC
Signal Min.	-2,350850
Signal Max.	52,054351
Channel	ED_1
Driver Name	DC-5000
Channel Type	Evaluation
Min. Step (s)	0,5
Max. Step (s)	0,5
Average Step (s)	0,5

Signal Parameter Information:
Signal Info	

Chromatogram Data:
Time (min)	Step (s)	Value (nC)
0,000167	n.a.	-0,039450
0,008500	0,5	-0,069050
0,016833	0,5	-0,056850
0,025167	0,5	-0,054500
0,033500	0,5	-0,055600
0,041833	0,5	-0,022250
0,050167	0,5	-0,045600
0,058500	0,5	-0,047150
0,066833	0,5	-0,040350
0,075167	0,5	-0,029500
0,083500	0,5	0,001400
0,091833	0,5	-0,009400
0,100167	0,5	-0,009600
0,108500	0,5	-0,018800
0,116833	0,5	-0,006550
0,125167	0,5	-0,017650
0,133500	0,5	-0,012300
0,141833	0,5	-0,025400
0,150167	0,5	-0,023950
0,158500	0,5	-0,031450
0,166833	0,5	-0,025350
0,175167	0,5	-0,049800
0,183500	0,5	-0,053350
0,191833	0,5	-0,034850
0,200167	0,5	-0,053000
0,208500	0,5	-0,056050
0,216833	0,5	-0,055850
0,225167	0,5	-0,040650
0,233500	0,5	-0,016700
0,241833	0,5	-0,021050
0,250167	0,5	-0,031700
0,258500	0,5	-0,026600
0,266833	0,5	-0,028650
0,275167	0,5	-0,030100
0,283500	0,5	-0,041500
0,291833	0,5	-0,038550
0,300167	0,5	-0,049400
0,308500	0,5	-0,037700
0,316833	0,5	-0,052200
0,325167	0,5	-0,065350
0,333500	0,5	-0,071750
0,341833	0,5	-0,061200
0,350167	0,5	-0,080650
0,358500	0,5	-0,077500
0,366833	0,5	-0,077250
0,375167	0,5	-0,062550
0,383500	0,5	-0,044900
0,391833	0,5	-0,050850
0,400167	0,5	-0,053600
0,408500	0,5	-0,060150
0,416833	0,5	-0,059950
0,425167	0,5	-0,068350
0,433500	0,5	-0,067150
0,441833	0,5	-0,077100
0,450167	0,5	-0,070250
0,458500	0,5	-0,075000
0,466833	0,5	-0,077350
0,475167	0,5	-0,091050
0,483500	0,5	-0,072350
0,491833	0,5	-0,094000
0,500167	0,5	-0,103450
0,508500	0,5	-0,104550
0,516833	0,5	-0,096200
0,525167	0,5	-0,079250
0,533500	0,5	-0,068750
0,541833	0,5	-0,075550
0,550167	0,5	-0,075950
0,558500	0,5	-0,075550
0,566833	0,5	-0,075700
0,575167	0,5	-0,082600
0,583500	0,5	-0,089400
0,591833	0,5	-0,092100
0,600167	0,5	-0,093550
0,608500	0,5	-0,092550
0,616833	0,5	-0,113200
0,625167	0,5	-0,113000
0,633500	0,5	-0,090800
0,641833	0,5	-0,105050
0,650167	0,5	-0,117650
0,658500	0,5	-0,104500
0,666833	0,5	-0,099650
0,675167	0,5	-0,073900
0,683500	0,5	-0,079600
0,691833	0,5	-0,077150
0,700167	0,5	-0,088250
0,708500	0,5	-0,084000
0,716833	0,5	-0,088450
0,725167	0,5	-0,089500
0,733500	0,5	-0,094500
0,741833	0,5	-0,095750
0,750167	0,5	-0,092250
0,758500	0,5	-0,093950
0,766833	0,5	-0,104000
0,775167	0,5	-0,097750
0,783500	0,5	-0,095150
0,791833	0,5	-0,109000
0,800167	0,5	-0,112850
0,808500	0,5	-0,108000
0,816833	0,5	-0,089400
0,825167	0,5	-0,079300
0,833500	0,5	-0,077450
0,841833	0,5	-0,086000
0,850167	0,5	-0,076250
0,858500	0,5	-0,079200
0,866833	0,5	-0,084150
0,875167	0,5	-0,089100
0,883500	0,5	-0,084050
0,891833	0,5	-0,089500
0,900167	0,5	-0,087350
0,908500	0,5	-0,081850
0,916833	0,5	-0,094450
0,925167	0,5	-0,080900
0,933500	0,5	-0,084500
0,941833	0,5	-0,098550
0,950167	0,5	-0,098750
0,958500	0,5	-0,086800
0,966833	0,5	-0,068800
0,975167	0,5	-0,061400
0,983500	0,5	-0,078450
0,991833	0,5	-0,069900
1,000167	0,5	-0,075350
1,008500	0,5	-0,070700
1,016833	0,5	-0,075850
1,025167	0,5	-0,074650
1,033500	0,5	-0,081350
1,041833	0,5	-0,075850
1,050167	0,5	-0,070150
1,058500	0,5	-0,071350
1,066833	0,5	-0,092450
1,075167	0,5	-0,062000
1,083500	0,5	-0,083250
1,091833	0,5	-0,084950
1,100167	0,5	-0,088700
1,108500	0,5	-0,079650
1,116833	0,5	-0,051550
1,125167	0,5	-0,054200
1,133500	0,5	-0,053750
1,141833	0,5	-0,057800
1,150167	0,5	-0,051150
1,158500	0,5	-0,059950
1,166833	0,5	-0,053250
1,175167	0,5	-0,061800
1,183500	0,5	-0,059500
1,191833	0,5	-0,063700
1,200167	0,5	-0,061200
1,208500	0,5	-0,076300
1,216833	0,5	-0,073500
1,225167	0,5	-0,063250
1,233500	0,5	-0,077200
1,241833	0,5	-0,074750
1,250167	0,5	-0,067950
1,258500	0,5	-0,059200
1,266833	0,5	-0,034900
1,275167	0,5	-0,039550
1,283500	0,5	-0,041000
1,291833	0,5	-0,043500
1,300167	0,5	-0,039750
1,308500	0,5	-0,046500
1,316833	0,5	-0,045850
1,325167	0,5	-0,047650
1,333500	0,5	-0,047150
1,341833	0,5	-0,041500
1,350167	0,5	-0,049300
1,358500	0,5	-0,047900
1,366833	0,5	-0,048500
1,375167	0,5	-0,041500
1,383500	0,5	-0,063800
1,391833	0,5	-0,059600
1,400167	0,5	-0,061800
1,408500	0,5	-0,044350
1,416833	0,5	-0,027750
1,425167	0,5	-0,027300
1,433500	0,5	-0,035450
1,441833	0,5	-0,024350
1,450167	0,5	-0,034700
1,458500	0,5	-0,040550
1,466833	0,5	-0,042500
1,475167	0,5	-0,045250
1,483500	0,5	-0,041100
1,491833	0,5	-0,044400
1,500167	0,5	-0,044200
1,508500	0,5	-0,057350
1,516833	0,5	-0,043700
1,525167	0,5	-0,053550
1,533500	0,5	-0,064950
1,541833	0,5	-0,067450
1,550167	0,5	-0,071900
1,558500	0,5	-0,106150
1,566833	0,5	-0,263250
1,575167	0,5	-0,716550
1,583500	0,5	-1,385650
1,591833	0,5	-1,862600
1,600167	0,5	-1,676050
1,608500	0,5	-0,853400
1,616833	0,5	0,372000
1,625167	0,5	1,826800
1,633500	0,5	3,237750
1,641833	0,5	4,150550
1,650167	0,5	4,301450
1,658500	0,5	3,930200
1,666833	0,5	3,427950
1,675167	0,5	2,976700
1,683500	0,5	2,685700
1,691833	0,5	2,529500
1,700167	0,5	2,454850
1,708500	0,5	2,460850
1,716833	0,5	2,483350
1,725167	0,5	2,507450
1,733500	0,5	2,473700
1,741833	0,5	2,421100
1,750167	0,5	2,337050
1,758500	0,5	2,268700
1,766833	0,5	2,239300
1,775167	0,5	2,358700
1,783500	0,5	2,637550
1,791833	0,5	2,985400
1,800167	0,5	3,268400
1,808500	0,5	3,439500
1,816833	0,5	3,468850
1,825167	0,5	3,381900
1,833500	0,5	3,228250
1,841833	0,5	3,038000
1,850167	0,5	2,827500
1,858500	0,5	2,623300
1,866833	0,5	2,417300
1,875167	0,5	2,224300
1,883500	0,5	2,062500
1,891833	0,5	1,917350
1,900167	0,5	1,803700
1,908500	0,5	1,708950
1,916833	0,5	1,650900
1,925167	0,5	1,607400
1,933500	0,5	1,556500
1,941833	0,5	1,496500
1,950167	0,5	1,446700
1,958500	0,5	1,424050
1,966833	0,5	1,418700
1,975167	0,5	1,484050
1,983500	0,5	1,788700
1,991833	0,5	2,459550
2,000167	0,5	3,626900
2,008500	0,5	5,685650
2,016833	0,5	9,746800
2,025167	0,5	16,361050
2,033500	0,5	22,813400
2,041833	0,5	24,986800
2,050167	0,5	22,205700
2,058500	0,5	17,285150
2,066833	0,5	12,775500
2,075167	0,5	9,546100
2,083500	0,5	7,456450
2,091833	0,5	6,140850
2,100167	0,5	5,228450
2,108500	0,5	4,568350
2,116833	0,5	4,016450
2,125167	0,5	3,601550
2,133500	0,5	3,294950
2,141833	0,5	3,102000
2,150167	0,5	2,982050
2,158500	0,5	2,905650
2,166833	0,5	2,851900
2,175167	0,5	2,829450
2,183500	0,5	2,818450
2,191833	0,5	2,813150
2,200167	0,5	2,807500
2,208500	0,5	2,804350
2,216833	0,5	2,818950
2,225167	0,5	2,841650
2,233500	0,5	2,879250
2,241833	0,5	2,912050
2,250167	0,5	2,970250
2,258500	0,5	3,036350
2,266833	0,5	3,086150
2,275167	0,5	3,151950
2,283500	0,5	3,227550
2,291833	0,5	3,317600
2,300167	0,5	3,415100
2,308500	0,5	3,494400
2,316833	0,5	3,584450
2,325167	0,5	3,656200
2,333500	0,5	3,738750
2,341833	0,5	3,812650
2,350167	0,5	3,893950
2,358500	0,5	3,966150
2,366833	0,5	4,044300
2,375167	0,5	4,123600
2,383500	0,5	4,197700
2,391833	0,5	4,274800
2,400167	0,5	4,341350
2,408500	0,5	4,417100
2,416833	0,5	4,470450
2,425167	0,5	4,544350
2,433500	0,5	4,610750
2,441833	0,5	4,680850
2,450167	0,5	4,745650
2,458500	0,5	4,799250
2,466833	0,5	4,829450
2,475167	0,5	4,872300
2,483500	0,5	4,893300
2,491833	0,5	4,926550
2,500167	0,5	4,943850
2,508500	0,5	4,970300
2,516833	0,5	4,984750
2,525167	0,5	4,999150
2,533500	0,5	5,016350
2,541833	0,5	5,025300
2,550167	0,5	5,040700
2,558500	0,5	5,034100
2,566833	0,5	5,019500
2,575167	0,5	5,013400
2,583500	0,5	5,007950
2,591833	0,5	5,011750
2,600167	0,5	5,013800
2,608500	0,5	5,001100
2,616833	0,5	5,002450
2,625167	0,5	5,005000
2,633500	0,5	5,039300
2,641833	0,5	5,108850
2,650167	0,5	5,255750
2,658500	0,5	5,460200
2,666833	0,5	5,696450
2,675167	0,5	5,872200
2,683500	0,5	5,936600
2,691833	0,5	5,909850
2,700167	0,5	5,926200
2,708500	0,5	6,058750
2,716833	0,5	6,536450
2,725167	0,5	7,463400
2,733500	0,5	8,778350
2,741833	0,5	10,132150
2,750167	0,5	10,965450
2,758500	0,5	10,945100
2,766833	0,5	10,086150
2,775167	0,5	8,784900
2,783500	0,5	7,437700
2,791833	0,5	6,329650
2,800167	0,5	5,501150
2,808500	0,5	4,929550
2,816833	0,5	4,526550
2,825167	0,5	4,233550
2,833500	0,5	3,998000
2,841833	0,5	3,826550
2,850167	0,5	3,681450
2,858500	0,5	3,540050
2,866833	0,5	3,421350
2,875167	0,5	3,320450
2,883500	0,5	3,225650
2,891833	0,5	3,147050
2,900167	0,5	3,053200
2,908500	0,5	2,968000
2,916833	0,5	2,888000
2,925167	0,5	2,807900
2,933500	0,5	2,731450
2,941833	0,5	2,645200
2,950167	0,5	2,559050
2,958500	0,5	2,470300
2,966833	0,5	2,383650
2,975167	0,5	2,304600
2,983500	0,5	2,219200
2,991833	0,5	2,155400
3,000167	0,5	2,080600
3,008500	0,5	1,998450
3,016833	0,5	1,930000
3,025167	0,5	1,871100
3,033500	0,5	1,831200
3,041833	0,5	1,778250
3,050167	0,5	1,719300
3,058500	0,5	1,660850
3,066833	0,5	1,602400
3,075167	0,5	1,533850
3,083500	0,5	1,465100
3,091833	0,5	1,394300
3,100167	0,5	1,323150
3,108500	0,5	1,260450
3,116833	0,5	1,196350
3,125167	0,5	1,140350
3,133500	0,5	1,073650
3,141833	0,5	1,035150
3,150167	0,5	0,974300
3,158500	0,5	0,920750
3,166833	0,5	0,865450
3,175167	0,5	0,826350
3,183500	0,5	0,799650
3,191833	0,5	0,761550
3,200167	0,5	0,709900
3,208500	0,5	0,670700
3,216833	0,5	0,630250
3,225167	0,5	0,592500
3,233500	0,5	0,554450
3,241833	0,5	0,519100
3,250167	0,5	0,484600
3,258500	0,5	0,453300
3,266833	0,5	0,419850
3,275167	0,5	0,377500
3,283500	0,5	0,346100
3,291833	0,5	0,326250
3,300167	0,5	0,276400
3,308500	0,5	0,243750
3,316833	0,5	0,216450
3,325167	0,5	0,216450
3,333500	0,5	0,192150
3,341833	0,5	0,166350
3,350167	0,5	0,145900
3,358500	0,5	0,116550
3,366833	0,5	0,103700
3,375167	0,5	0,094850
3,383500	0,5	0,086750
3,391833	0,5	0,072950
3,400167	0,5	0,067600
3,408500	0,5	0,059300
3,416833	0,5	0,041600
3,425167	0,5	0,018550
3,433500	0,5	0,004300
3,441833	0,5	-0,021050
3,450167	0,5	-0,060650
3,458500	0,5	-0,088850
3,466833	0,5	-0,108250
3,475167	0,5	-0,108400
3,483500	0,5	-0,120050
3,491833	0,5	-0,129450
3,500167	0,5	-0,149450
3,508500	0,5	-0,150650
3,516833	0,5	-0,157400
3,525167	0,5	-0,149050
3,533500	0,5	-0,139650
3,541833	0,5	-0,111350
3,550167	0,5	-0,069850
3,558500	0,5	-0,020700
3,566833	0,5	0,021700
3,575167	0,5	0,047400
3,583500	0,5	0,058550
3,591833	0,5	0,030600
3,600167	0,5	-0,020750
3,608500	0,5	-0,067750
3,616833	0,5	-0,118400
3,625167	0,5	-0,150900
3,633500	0,5	-0,188300
3,641833	0,5	-0,224650
3,650167	0,5	-0,258350
3,658500	0,5	-0,278900
3,666833	0,5	-0,299350
3,675167	0,5	-0,320150
3,683500	0,5	-0,333500
3,691833	0,5	-0,344300
3,700167	0,5	-0,345750
3,708500	0,5	-0,350950
3,716833	0,5	-0,350750
3,725167	0,5	-0,355100
3,733500	0,5	-0,335900
3,741833	0,5	-0,349100
3,750167	0,5	-0,347550
3,758500	0,5	-0,338100
3,766833	0,5	-0,328750
3,775167	0,5	-0,312150
3,783500	0,5	-0,315400
3,791833	0,5	-0,322350
3,800167	0,5	-0,332400
3,808500	0,5	-0,346100
3,816833	0,5	-0,363650
3,825167	0,5	-0,378250
3,833500	0,5	-0,399250
3,841833	0,5	-0,413250
3,850167	0,5	-0,417350
3,858500	0,5	-0,415450
3,866833	0,5	-0,437550
3,875167	0,5	-0,434200
3,883500	0,5	-0,431900
3,891833	0,5	-0,446600
3,900167	0,5	-0,453150
3,908500	0,5	-0,448350
3,916833	0,5	-0,446950
3,925167	0,5	-0,432300
3,933500	0,5	-0,444600
3,941833	0,5	-0,434050
3,950167	0,5	-0,430900
3,958500	0,5	-0,422650
3,966833	0,5	-0,417950
3,975167	0,5	-0,397950
3,983500	0,5	-0,376400
3,991833	0,5	-0,350550
4,000167	0,5	-0,307750
4,008500	0,5	-0,265550
4,016833	0,5	-0,221850
4,025167	0,5	-0,163300
4,033500	0,5	-0,107300
4,041833	0,5	-0,066250
4,050167	0,5	-0,010900
4,058500	0,5	0,059300
4,066833	0,5	0,166700
4,075167	0,5	0,290550
4,083500	0,5	0,460650
4,091833	0,5	0,670850
4,100167	0,5	0,942950
4,108500	0,5	1,233550
4,116833	0,5	1,545050
4,125167	0,5	1,819050
4,133500	0,5	2,034350
4,141833	0,5	2,146300
4,150167	0,5	2,141200
4,158500	0,5	2,029350
4,166833	0,5	1,806350
4,175167	0,5	1,540250
4,183500	0,5	1,233200
4,191833	0,5	0,938350
4,200167	0,5	0,688150
4,208500	0,5	0,496400
4,216833	0,5	0,361700
4,225167	0,5	0,280350
4,233500	0,5	0,216100
4,241833	0,5	0,200000
4,250167	0,5	0,209800
4,258500	0,5	0,262800
4,266833	0,5	0,354450
4,275167	0,5	0,507050
4,283500	0,5	0,721350
4,291833	0,5	1,016850
4,300167	0,5	1,382550
4,308500	0,5	1,797900
4,316833	0,5	2,232150
4,325167	0,5	2,645000
4,333500	0,5	2,945750
4,341833	0,5	3,127150
4,350167	0,5	3,151000
4,358500	0,5	3,027600
4,366833	0,5	2,764650
4,375167	0,5	2,391150
4,383500	0,5	1,970700
4,391833	0,5	1,544650
4,400167	0,5	1,159550
4,408500	0,5	0,825700
4,416833	0,5	0,558450
4,425167	0,5	0,340700
4,433500	0,5	0,189450
4,441833	0,5	0,068650
4,450167	0,5	-0,019050
4,458500	0,5	-0,087800
4,466833	0,5	-0,122300
4,475167	0,5	-0,160000
4,483500	0,5	-0,195850
4,491833	0,5	-0,216850
4,500167	0,5	-0,229800
4,508500	0,5	-0,233550
4,516833	0,5	-0,234650
4,525167	0,5	-0,241350
4,533500	0,5	-0,253500
4,541833	0,5	-0,261650
4,550167	0,5	-0,266800
4,558500	0,5	-0,272800
4,566833	0,5	-0,278350
4,575167	0,5	-0,282850
4,583500	0,5	-0,289000
4,591833	0,5	-0,282050
4,600167	0,5	-0,292600
4,608500	0,5	-0,294250
4,616833	0,5	-0,285100
4,625167	0,5	-0,287200
4,633500	0,5	-0,293500
4,641833	0,5	-0,291200
4,650167	0,5	-0,289300
4,658500	0,5	-0,264750
4,666833	0,5	-0,258350
4,675167	0,5	-0,249600
4,683500	0,5	-0,236800
4,691833	0,5	-0,225150
4,700167	0,5	-0,216300
4,708500	0,5	-0,196350
4,716833	0,5	-0,177200
4,725167	0,5	-0,153550
4,733500	0,5	-0,121350
4,741833	0,5	-0,091000
4,750167	0,5	-0,049750
4,758500	0,5	-0,010950
4,766833	0,5	0,056650
4,775167	0,5	0,109300
4,783500	0,5	0,180900
4,791833	0,5	0,283400
4,800167	0,5	0,425750
4,808500	0,5	0,629050
4,816833	0,5	0,883150
4,825167	0,5	1,224900
4,833500	0,5	1,677950
4,841833	0,5	2,215800
4,850167	0,5	2,826000
4,858500	0,5	3,448500
4,866833	0,5	4,026650
4,875167	0,5	4,479950
4,883500	0,5	4,752100
4,891833	0,5	4,813250
4,900167	0,5	4,643850
4,908500	0,5	4,304900
4,916833	0,5	3,847950
4,925167	0,5	3,296050
4,933500	0,5	2,748050
4,941833	0,5	2,232150
4,950167	0,5	1,780700
4,958500	0,5	1,411250
4,966833	0,5	1,087050
4,975167	0,5	0,838950
4,983500	0,5	0,637250
4,991833	0,5	0,488450
5,000167	0,5	0,366300
5,008500	0,5	0,278650
5,016833	0,5	0,204550
5,025167	0,5	0,149750
5,033500	0,5	0,111650
5,041833	0,5	0,083950
5,050167	0,5	0,053950
5,058500	0,5	0,052700
5,066833	0,5	0,047150
5,075167	0,5	0,040850
5,083500	0,5	0,046000
5,091833	0,5	0,057100
5,100167	0,5	0,077250
5,108500	0,5	0,081600
5,116833	0,5	0,073400
5,125167	0,5	0,062150
5,133500	0,5	0,047400
5,141833	0,5	0,029550
5,150167	0,5	0,003750
5,158500	0,5	-0,025100
5,166833	0,5	-0,047200
5,175167	0,5	-0,073800
5,183500	0,5	-0,093600
5,191833	0,5	-0,110650
5,200167	0,5	-0,124250
5,208500	0,5	-0,132850
5,216833	0,5	-0,141900
5,225167	0,5	-0,148950
5,233500	0,5	-0,159250
5,241833	0,5	-0,159100
5,250167	0,5	-0,150500
5,258500	0,5	-0,145000
5,266833	0,5	-0,152100
5,275167	0,5	-0,151150
5,283500	0,5	-0,156550
5,291833	0,5	-0,156300
5,300167	0,5	-0,158500
5,308500	0,5	-0,160600
5,316833	0,5	-0,167350
5,325167	0,5	-0,165500
5,333500	0,5	-0,170150
5,341833	0,5	-0,177900
5,350167	0,5	-0,185900
5,358500	0,5	-0,179000
5,366833	0,5	-0,197350
5,375167	0,5	-0,202550
5,383500	0,5	-0,208800
5,391833	0,5	-0,201800
5,400167	0,5	-0,198150
5,408500	0,5	-0,198850
5,416833	0,5	-0,204250
5,425167	0,5	-0,212550
5,433500	0,5	-0,217650
5,441833	0,5	-0,219700
5,450167	0,5	-0,224550
5,458500	0,5	-0,232600
5,466833	0,5	-0,237650
5,475167	0,5	-0,242350
5,483500	0,5	-0,248300
5,491833	0,5	-0,256350
5,500167	0,5	-0,252500
5,508500	0,5	-0,258300
5,516833	0,5	-0,270600
5,525167	0,5	-0,273150
5,533500	0,5	-0,276850
5,541833	0,5	-0,271900
5,550167	0,5	-0,271750
5,558500	0,5	-0,273250
5,566833	0,5	-0,275700
5,575167	0,5	-0,281800
5,583500	0,5	-0,285000
5,591833	0,5	-0,288950
5,600167	0,5	-0,296450
5,608500	0,5	-0,304600
5,616833	0,5	-0,307300
5,625167	0,5	-0,308900
5,633500	0,5	-0,316600
5,641833	0,5	-0,316650
5,650167	0,5	-0,312850
5,658500	0,5	-0,324250
5,666833	0,5	-0,335700
5,675167	0,5	-0,335750
5,683500	0,5	-0,337100
5,691833	0,5	-0,327500
5,700167	0,5	-0,333350
5,708500	0,5	-0,333550
5,716833	0,5	-0,342600
5,725167	0,5	-0,346050
5,733500	0,5	-0,355400
5,741833	0,5	-0,360400
5,750167	0,5	-0,371050
5,758500	0,5	-0,375750
5,766833	0,5	-0,377350
5,775167	0,5	-0,384250
5,783500	0,5	-0,387700
5,791833	0,5	-0,397100
5,800167	0,5	-0,393500
5,808500	0,5	-0,406650
5,816833	0,5	-0,413350
5,825167	0,5	-0,417400
5,833500	0,5	-0,421350
5,841833	0,5	-0,414050
5,850167	0,5	-0,414600
5,858500	0,5	-0,425250
5,866833	0,5	-0,420450
5,875167	0,5	-0,426600
5,883500	0,5	-0,425700
5,891833	0,5	-0,430650
5,900167	0,5	-0,433000
5,908500	0,5	-0,440800
5,916833	0,5	-0,441450
5,925167	0,5	-0,440600
5,933500	0,5	-0,448750
5,941833	0,5	-0,455450
5,950167	0,5	-0,446500
5,958500	0,5	-0,463650
5,966833	0,5	-0,468700
5,975167	0,5	-0,469050
5,983500	0,5	-0,464850
5,991833	0,5	-0,456800
6,000167	0,5	-0,466200
6,008500	0,5	-0,462750
6,016833	0,5	-0,467650
6,025167	0,5	-0,467950
6,033500	0,5	-0,478750
6,041833	0,5	-0,471250
6,050167	0,5	-0,475600
6,058500	0,5	-0,480250
6,066833	0,5	-0,483500
6,075167	0,5	-0,485150
6,083500	0,5	-0,489800
6,091833	0,5	-0,488650
6,100167	0,5	-0,488150
6,108500	0,5	-0,495700
6,116833	0,5	-0,496350
6,125167	0,5	-0,493400
6,133500	0,5	-0,484950
6,141833	0,5	-0,478200
6,150167	0,5	-0,484400
6,158500	0,5	-0,486550
6,166833	0,5	-0,486650
6,175167	0,5	-0,488450
6,183500	0,5	-0,488350
6,191833	0,5	-0,488400
6,200167	0,5	-0,483550
6,208500	0,5	-0,481900
6,216833	0,5	-0,476550
6,225167	0,5	-0,467300
6,233500	0,5	-0,457550
6,241833	0,5	-0,438650
6,250167	0,5	-0,425350
6,258500	0,5	-0,416650
6,266833	0,5	-0,401400
6,275167	0,5	-0,386700
6,283500	0,5	-0,369050
6,291833	0,5	-0,359750
6,300167	0,5	-0,356300
6,308500	0,5	-0,359800
6,316833	0,5	-0,367150
6,325167	0,5	-0,374550
6,333500	0,5	-0,386450
6,341833	0,5	-0,401500
6,350167	0,5	-0,414300
6,358500	0,5	-0,423500
6,366833	0,5	-0,431500
6,375167	0,5	-0,440200
6,383500	0,5	-0,443200
6,391833	0,5	-0,441700
6,400167	0,5	-0,456700
6,408500	0,5	-0,455950
6,416833	0,5	-0,458400
6,425167	0,5	-0,448550
6,433500	0,5	-0,440750
6,441833	0,5	-0,432450
6,450167	0,5	-0,430550
6,458500	0,5	-0,420600
6,466833	0,5	-0,411650
6,475167	0,5	-0,398450
6,483500	0,5	-0,382700
6,491833	0,5	-0,360300
6,500167	0,5	-0,334500
6,508500	0,5	-0,312750
6,516833	0,5	-0,288950
6,525167	0,5	-0,271700
6,533500	0,5	-0,250650
6,541833	0,5	-0,246350
6,550167	0,5	-0,250500
6,558500	0,5	-0,255000
6,566833	0,5	-0,261350
6,575167	0,5	-0,260250
6,583500	0,5	-0,261300
6,591833	0,5	-0,271700
6,600167	0,5	-0,275150
6,608500	0,5	-0,284000
6,616833	0,5	-0,289850
6,625167	0,5	-0,297750
6,633500	0,5	-0,302500
6,641833	0,5	-0,307800
6,650167	0,5	-0,314200
6,658500	0,5	-0,320150
6,666833	0,5	-0,324350
6,675167	0,5	-0,330750
6,683500	0,5	-0,322050
6,691833	0,5	-0,328350
6,700167	0,5	-0,331800
6,708500	0,5	-0,331350
6,716833	0,5	-0,329650
6,725167	0,5	-0,314650
6,733500	0,5	-0,315000
6,741833	0,5	-0,311100
6,750167	0,5	-0,315150
6,758500	0,5	-0,308400
6,766833	0,5	-0,315300
6,775167	0,5	-0,307800
6,783500	0,5	-0,309150
6,791833	0,5	-0,305100
6,800167	0,5	-0,308800
6,808500	0,5	-0,305050
6,816833	0,5	-0,302400
6,825167	0,5	-0,304450
6,833500	0,5	-0,296100
6,841833	0,5	-0,300550
6,850167	0,5	-0,305250
6,858500	0,5	-0,299000
6,866833	0,5	-0,293400
6,875167	0,5	-0,286300
6,883500	0,5	-0,285500
6,891833	0,5	-0,288500
6,900167	0,5	-0,282700
6,908500	0,5	-0,281650
6,916833	0,5	-0,280350
6,925167	0,5	-0,278850
6,933500	0,5	-0,278550
6,941833	0,5	-0,278500
6,950167	0,5	-0,274300
6,958500	0,5	-0,270000
6,966833	0,5	-0,272350
6,975167	0,5	-0,268200
6,983500	0,5	-0,255100
6,991833	0,5	-0,255100
7,000167	0,5	-0,249800
7,008500	0,5	-0,243750
7,016833	0,5	-0,227950
7,025167	0,5	-0,213400
7,033500	0,5	-0,206450
7,041833	0,5	-0,197950
7,050167	0,5	-0,181650
7,058500	0,5	-0,150400
7,066833	0,5	-0,111950
7,075167	0,5	-0,046000
7,083500	0,5	0,042550
7,091833	0,5	0,164750
7,100167	0,5	0,315400
7,108500	0,5	0,494400
7,116833	0,5	0,687800
7,125167	0,5	0,918500
7,133500	0,5	1,158350
7,141833	0,5	1,421200
7,150167	0,5	1,721200
7,158500	0,5	2,093250
7,166833	0,5	2,590800
7,175167	0,5	3,318100
7,183500	0,5	4,421950
7,191833	0,5	6,147250
7,200167	0,5	8,742850
7,208500	0,5	12,422150
7,216833	0,5	17,170400
7,225167	0,5	22,649150
7,233500	0,5	28,155350
7,241833	0,5	32,759050
7,250167	0,5	35,606651
7,258500	0,5	36,146851
7,266833	0,5	34,343501
7,275167	0,5	30,626550
7,283500	0,5	25,707950
7,291833	0,5	20,425800
7,300167	0,5	15,489000
7,308500	0,5	11,316800
7,316833	0,5	8,064150
7,325167	0,5	5,682500
7,333500	0,5	4,015450
7,341833	0,5	2,881700
7,350167	0,5	2,130700
7,358500	0,5	1,621550
7,366833	0,5	1,279650
7,375167	0,5	1,037100
7,383500	0,5	0,862350
7,391833	0,5	0,728800
7,400167	0,5	0,626250
7,408500	0,5	0,544250
7,416833	0,5	0,479050
7,425167	0,5	0,426800
7,433500	0,5	0,381050
7,441833	0,5	0,339800
7,450167	0,5	0,305900
7,458500	0,5	0,285300
7,466833	0,5	0,268150
7,475167	0,5	0,253150
7,483500	0,5	0,229950
7,491833	0,5	0,212200
7,500167	0,5	0,190300
7,508500	0,5	0,173150
7,516833	0,5	0,152350
7,525167	0,5	0,135700
7,533500	0,5	0,118450
7,541833	0,5	0,102100
7,550167	0,5	0,086300
7,558500	0,5	0,069250
7,566833	0,5	0,056950
7,575167	0,5	0,043550
7,583500	0,5	0,025550
7,591833	0,5	0,014750
7,600167	0,5	0,001050
7,608500	0,5	-0,003600
7,616833	0,5	-0,008850
7,625167	0,5	-0,016800
7,633500	0,5	-0,024650
7,641833	0,5	-0,029450
7,650167	0,5	-0,034450
7,658500	0,5	-0,038650
7,666833	0,5	-0,042950
7,675167	0,5	-0,045050
7,683500	0,5	-0,052350
7,691833	0,5	-0,053250
7,700167	0,5	-0,058000
7,708500	0,5	-0,061350
7,716833	0,5	-0,052300
7,725167	0,5	-0,051150
7,733500	0,5	-0,048100
7,741833	0,5	-0,038150
7,750167	0,5	-0,028100
7,758500	0,5	-0,014700
7,766833	0,5	-0,008850
7,775167	0,5	-0,002550
7,783500	0,5	-0,001950
7,791833	0,5	-0,010400
7,800167	0,5	-0,015600
7,808500	0,5	-0,025350
7,816833	0,5	-0,035800
7,825167	0,5	-0,043050
7,833500	0,5	-0,049200
7,841833	0,5	-0,053350
7,850167	0,5	-0,057400
7,858500	0,5	-0,057100
7,866833	0,5	-0,051300
7,875167	0,5	-0,057950
7,883500	0,5	-0,061850
7,891833	0,5	-0,063950
7,900167	0,5	-0,061250
7,908500	0,5	-0,051150
7,916833	0,5	-0,052950
7,925167	0,5	-0,050350
7,933500	0,5	-0,048700
7,941833	0,5	-0,045500
7,950167	0,5	-0,043800
7,958500	0,5	-0,041450
7,966833	0,5	-0,037700
7,975167	0,5	-0,036500
7,983500	0,5	-0,032500
7,991833	0,5	-0,027050
8,000167	0,5	-0,021050
8,008500	0,5	-0,020750
8,016833	0,5	-0,014350
8,025167	0,5	-0,022600
8,033500	0,5	-0,021900
8,041833	0,5	-0,020250
8,050167	0,5	-0,018900
8,058500	0,5	-0,012800
8,066833	0,5	-0,009200
8,075167	0,5	-0,002450
8,083500	0,5	0,000100
8,091833	0,5	0,002700
8,100167	0,5	0,006500
8,108500	0,5	0,005650
8,116833	0,5	0,004800
8,125167	0,5	0,005750
8,133500	0,5	0,004600
8,141833	0,5	0,010000
8,150167	0,5	0,004700
8,158500	0,5	0,009650
8,166833	0,5	0,012250
8,175167	0,5	0,011000
8,183500	0,5	0,014000
8,191833	0,5	0,017350
8,200167	0,5	0,025750
8,208500	0,5	0,031250
8,216833	0,5	0,034250
8,225167	0,5	0,036500
8,233500	0,5	0,041300
8,241833	0,5	0,045450
8,250167	0,5	0,045250
8,258500	0,5	0,047100
8,266833	0,5	0,050800
8,275167	0,5	0,055300
8,283500	0,5	0,053850
8,291833	0,5	0,055800
8,300167	0,5	0,059500
8,308500	0,5	0,064350
8,316833	0,5	0,063700
8,325167	0,5	0,067850
8,333500	0,5	0,070200
8,341833	0,5	0,073100
8,350167	0,5	0,080700
8,358500	0,5	0,086400
8,366833	0,5	0,092500
8,375167	0,5	0,097400
8,383500	0,5	0,101050
8,391833	0,5	0,105500
8,400167	0,5	0,111100
8,408500	0,5	0,114400
8,416833	0,5	0,118200
8,425167	0,5	0,120600
8,433500	0,5	0,125500
8,441833	0,5	0,129300
8,450167	0,5	0,136400
8,458500	0,5	0,144550
8,466833	0,5	0,156600
8,475167	0,5	0,170800
8,483500	0,5	0,190550
8,491833	0,5	0,212250
8,500167	0,5	0,228950
8,508500	0,5	0,244850
8,516833	0,5	0,252000
8,525167	0,5	0,248200
8,533500	0,5	0,245250
8,541833	0,5	0,253300
8,550167	0,5	0,271200
8,558500	0,5	0,316000
8,566833	0,5	0,399350
8,575167	0,5	0,533700
8,583500	0,5	0,731750
8,591833	0,5	0,991750
8,600167	0,5	1,321300
8,608500	0,5	1,709300
8,616833	0,5	2,145600
8,625167	0,5	2,653400
8,633500	0,5	3,270100
8,641833	0,5	4,121550
8,650167	0,5	5,450300
8,658500	0,5	7,674250
8,666833	0,5	11,365550
8,675167	0,5	17,055450
8,683500	0,5	24,840750
8,691833	0,5	33,991551
8,700167	0,5	42,861051
8,708500	0,5	49,408801
8,716833	0,5	52,054351
8,725167	0,5	50,279301
8,733500	0,5	44,758351
8,741833	0,5	36,970051
8,750167	0,5	28,571100
8,758500	0,5	20,859300
8,766833	0,5	14,573600
8,775167	0,5	9,916950
8,783500	0,5	6,717200
8,791833	0,5	4,638250
8,800167	0,5	3,334900
8,808500	0,5	2,527650
8,816833	0,5	2,018250
8,825167	0,5	1,689100
8,833500	0,5	1,468750
8,841833	0,5	1,314100
8,850167	0,5	1,203800
8,858500	0,5	1,116100
8,866833	0,5	1,048950
8,875167	0,5	1,000550
8,883500	0,5	0,960300
8,891833	0,5	0,925950
8,900167	0,5	0,901500
8,908500	0,5	0,880850
8,916833	0,5	0,866400
8,925167	0,5	0,848750
8,933500	0,5	0,834650
8,941833	0,5	0,821250
8,950167	0,5	0,798950
8,958500	0,5	0,776200
8,966833	0,5	0,748550
8,975167	0,5	0,722650
8,983500	0,5	0,699450
8,991833	0,5	0,681150
9,000167	0,5	0,661300
9,008500	0,5	0,644900
9,016833	0,5	0,633100
9,025167	0,5	0,622250
9,033500	0,5	0,610550
9,041833	0,5	0,599650
9,050167	0,5	0,594000
9,058500	0,5	0,585900
9,066833	0,5	0,575800
9,075167	0,5	0,569400
9,083500	0,5	0,564000
9,091833	0,5	0,559000
9,100167	0,5	0,555950
9,108500	0,5	0,552800
9,116833	0,5	0,548000
9,125167	0,5	0,547800
9,133500	0,5	0,542950
9,141833	0,5	0,542250
9,150167	0,5	0,540400
9,158500	0,5	0,535900
9,166833	0,5	0,537350
9,175167	0,5	0,535750
9,183500	0,5	0,534150
9,191833	0,5	0,531550
9,200167	0,5	0,533800
9,208500	0,5	0,531400
9,216833	0,5	0,530200
9,225167	0,5	0,526500
9,233500	0,5	0,533250
9,241833	0,5	0,533950
9,250167	0,5	0,535050
9,258500	0,5	0,538100
9,266833	0,5	0,538550
9,275167	0,5	0,538250
9,283500	0,5	0,541450
9,291833	0,5	0,542050
9,300167	0,5	0,542900
9,308500	0,5	0,540300
9,316833	0,5	0,543250
9,325167	0,5	0,543800
9,333500	0,5	0,543850
9,341833	0,5	0,539400
9,350167	0,5	0,543250
9,358500	0,5	0,541950
9,366833	0,5	0,544400
9,375167	0,5	0,544700
9,383500	0,5	0,546100
9,391833	0,5	0,547000
9,400167	0,5	0,551900
9,408500	0,5	0,553300
9,416833	0,5	0,555050
9,425167	0,5	0,557850
9,433500	0,5	0,557550
9,441833	0,5	0,559500
9,450167	0,5	0,560250
9,458500	0,5	0,559600
9,466833	0,5	0,562400
9,475167	0,5	0,559950
9,483500	0,5	0,559250
9,491833	0,5	0,562050
9,500167	0,5	0,564900
9,508500	0,5	0,560300
9,516833	0,5	0,561800
9,525167	0,5	0,565350
9,533500	0,5	0,568700
9,541833	0,5	0,568200
9,550167	0,5	0,573450
9,558500	0,5	0,574600
9,566833	0,5	0,577900
9,575167	0,5	0,577600
9,583500	0,5	0,580250
9,591833	0,5	0,581050
9,600167	0,5	0,581100
9,608500	0,5	0,579600
9,616833	0,5	0,583050
9,625167	0,5	0,582800
9,633500	0,5	0,584950
9,641833	0,5	0,586800
9,650167	0,5	0,587650
9,658500	0,5	0,585200
9,666833	0,5	0,586150
9,675167	0,5	0,584650
9,683500	0,5	0,590050
9,691833	0,5	0,592250
9,700167	0,5	0,590800
9,708500	0,5	0,597800
9,716833	0,5	0,600600
9,725167	0,5	0,603750
9,733500	0,5	0,602300
9,741833	0,5	0,604600
9,750167	0,5	0,604950
9,758500	0,5	0,602650
9,766833	0,5	0,604650
9,775167	0,5	0,602100
9,783500	0,5	0,599950
9,791833	0,5	0,602750
9,800167	0,5	0,601000
9,808500	0,5	0,603800
9,816833	0,5	0,605350
9,825167	0,5	0,610400
9,833500	0,5	0,621150
9,841833	0,5	0,630950
9,850167	0,5	0,641650
9,858500	0,5	0,650600
9,866833	0,5	0,656850
9,875167	0,5	0,658500
9,883500	0,5	0,654250
9,891833	0,5	0,643200
9,900167	0,5	0,631900
9,908500	0,5	0,622150
9,916833	0,5	0,616150
9,925167	0,5	0,606400
9,933500	0,5	0,603200
9,941833	0,5	0,601400
9,950167	0,5	0,594500
9,958500	0,5	0,591200
9,966833	0,5	0,594150
9,975167	0,5	0,593150
9,983500	0,5	0,592700
9,991833	0,5	0,592900
10,000167	0,5	0,594050
10,008500	0,5	0,591100
10,016833	0,5	0,591350
10,025167	0,5	0,591250
10,033500	0,5	0,590400
10,041833	0,5	0,590950
10,050167	0,5	0,591200
10,058500	0,5	0,591350
10,066833	0,5	0,588200
10,075167	0,5	0,585400
10,083500	0,5	0,585750
10,091833	0,5	0,589900
10,100167	0,5	0,587450
10,108500	0,5	0,592900
10,116833	0,5	0,595650
10,125167	0,5	0,604750
10,133500	0,5	0,617900
10,141833	0,5	0,627100
10,150167	0,5	0,631050
10,158500	0,5	0,632450
10,166833	0,5	0,627800
10,175167	0,5	0,622350
10,183500	0,5	0,611550
10,191833	0,5	0,598400
10,200167	0,5	0,587650
10,208500	0,5	0,577650
10,216833	0,5	0,569000
10,225167	0,5	0,562500
10,233500	0,5	0,557900
10,241833	0,5	0,558500
10,250167	0,5	0,557150
10,258500	0,5	0,554150
10,266833	0,5	0,550600
10,275167	0,5	0,555250
10,283500	0,5	0,556000
10,291833	0,5	0,557450
10,300167	0,5	0,560800
10,308500	0,5	0,564850
10,316833	0,5	0,570450
10,325167	0,5	0,575450
10,333500	0,5	0,584400
10,341833	0,5	0,590200
10,350167	0,5	0,591200
10,358500	0,5	0,592150
10,366833	0,5	0,587250
10,375167	0,5	0,579350
10,383500	0,5	0,574450
10,391833	0,5	0,561850
10,400167	0,5	0,550300
10,408500	0,5	0,541650
10,416833	0,5	0,535350
10,425167	0,5	0,534800
10,433500	0,5	0,533300
10,441833	0,5	0,530800
10,450167	0,5	0,531500
10,458500	0,5	0,532500
10,466833	0,5	0,527150
10,475167	0,5	0,530900
10,483500	0,5	0,526000
10,491833	0,5	0,523300
10,500167	0,5	0,517300
10,508500	0,5	0,510350
10,516833	0,5	0,504000
10,525167	0,5	0,497400
10,533500	0,5	0,494000
10,541833	0,5	0,490050
10,550167	0,5	0,485200
10,558500	0,5	0,477450
10,566833	0,5	0,474450
10,575167	0,5	0,474300
10,583500	0,5	0,472700
10,591833	0,5	0,473400
10,600167	0,5	0,474200
10,608500	0,5	0,475650
10,616833	0,5	0,478200
10,625167	0,5	0,481900
10,633500	0,5	0,479550
10,641833	0,5	0,479700
10,650167	0,5	0,476300
10,658500	0,5	0,470700
10,666833	0,5	0,460200
10,675167	0,5	0,460850
10,683500	0,5	0,455550
10,691833	0,5	0,450450
10,700167	0,5	0,449800
10,708500	0,5	0,445350
10,716833	0,5	0,451850
10,725167	0,5	0,458600
10,733500	0,5	0,464650
10,741833	0,5	0,468000
10,750167	0,5	0,473800
10,758500	0,5	0,475550
10,766833	0,5	0,474050
10,775167	0,5	0,471850
10,783500	0,5	0,464600
10,791833	0,5	0,460300
10,800167	0,5	0,455000
10,808500	0,5	0,450350
10,816833	0,5	0,443800
10,825167	0,5	0,443850
10,833500	0,5	0,443800
10,841833	0,5	0,439550
10,850167	0,5	0,434150
10,858500	0,5	0,425650
10,866833	0,5	0,421950
10,875167	0,5	0,419400
10,883500	0,5	0,412200
10,891833	0,5	0,405550
10,900167	0,5	0,400750
10,908500	0,5	0,397350
10,916833	0,5	0,394450
10,925167	0,5	0,391450
10,933500	0,5	0,389150
10,941833	0,5	0,385950
10,950167	0,5	0,386700
10,958500	0,5	0,382650
10,966833	0,5	0,380500
10,975167	0,5	0,384150
10,983500	0,5	0,381700
10,991833	0,5	0,379200
11,000167	0,5	0,374200
11,008500	0,5	0,370400
11,016833	0,5	0,373900
11,025167	0,5	0,369050
11,033500	0,5	0,368900
11,041833	0,5	0,367400
11,050167	0,5	0,362400
11,058500	0,5	0,359500
11,066833	0,5	0,358250
11,075167	0,5	0,355650
11,083500	0,5	0,354150
11,091833	0,5	0,355950
11,100167	0,5	0,352300
11,108500	0,5	0,345950
11,116833	0,5	0,344150
11,125167	0,5	0,342900
11,133500	0,5	0,339750
11,141833	0,5	0,334600
11,150167	0,5	0,329700
11,158500	0,5	0,327350
11,166833	0,5	0,326350
11,175167	0,5	0,324850
11,183500	0,5	0,325150
11,191833	0,5	0,324150
11,200167	0,5	0,317750
11,208500	0,5	0,318400
11,216833	0,5	0,318850
11,225167	0,5	0,313750
11,233500	0,5	0,313200
11,241833	0,5	0,313900
11,250167	0,5	0,309250
11,258500	0,5	0,305500
11,266833	0,5	0,307200
11,275167	0,5	0,308450
11,283500	0,5	0,306300
11,291833	0,5	0,301150
11,300167	0,5	0,298950
11,308500	0,5	0,297050
11,316833	0,5	0,300950
11,325167	0,5	0,302400
11,333500	0,5	0,301650
11,341833	0,5	0,294950
11,350167	0,5	0,294500
11,358500	0,5	0,286600
11,366833	0,5	0,289300
11,375167	0,5	0,285450
11,383500	0,5	0,283550
11,391833	0,5	0,279250
11,400167	0,5	0,277750
11,408500	0,5	0,272100
11,416833	0,5	0,274200
11,425167	0,5	0,270500
11,433500	0,5	0,270900
11,441833	0,5	0,266750
11,450167	0,5	0,265300
11,458500	0,5	0,268150
11,466833	0,5	0,267900
11,475167	0,5	0,272050
11,483500	0,5	0,274800
11,491833	0,5	0,274850
11,500167	0,5	0,276350
11,508500	0,5	0,283150
11,516833	0,5	0,286250
11,525167	0,5	0,293150
11,533500	0,5	0,301800
11,541833	0,5	0,314800
11,550167	0,5	0,325600
11,558500	0,5	0,339200
11,566833	0,5	0,353850
11,575167	0,5	0,369450
11,583500	0,5	0,375850
11,591833	0,5	0,373900
11,600167	0,5	0,370350
11,608500	0,5	0,363050
11,616833	0,5	0,348500
11,625167	0,5	0,330500
11,633500	0,5	0,311000
11,641833	0,5	0,292350
11,650167	0,5	0,273950
11,658500	0,5	0,263250
11,666833	0,5	0,251000
11,675167	0,5	0,242600
11,683500	0,5	0,237850
11,691833	0,5	0,230450
11,700167	0,5	0,223350
11,708500	0,5	0,227000
11,716833	0,5	0,228600
11,725167	0,5	0,229300
11,733500	0,5	0,235650
11,741833	0,5	0,233250
11,750167	0,5	0,238250
11,758500	0,5	0,241100
11,766833	0,5	0,244200
11,775167	0,5	0,238250
11,783500	0,5	0,230250
11,791833	0,5	0,222250
11,800167	0,5	0,215350
11,808500	0,5	0,210750
11,816833	0,5	0,205850
11,825167	0,5	0,203600
11,833500	0,5	0,201300
11,841833	0,5	0,205250
11,850167	0,5	0,200950
11,858500	0,5	0,209850
11,866833	0,5	0,209000
11,875167	0,5	0,207300
11,883500	0,5	0,203550
11,891833	0,5	0,193750
11,900167	0,5	0,197600
11,908500	0,5	0,197200
11,916833	0,5	0,192950
11,925167	0,5	0,195650
11,933500	0,5	0,192650
11,941833	0,5	0,195150
11,950167	0,5	0,196150
11,958500	0,5	0,198650
11,966833	0,5	0,196450
11,975167	0,5	0,198600
11,983500	0,5	0,203750
11,991833	0,5	0,206750
12,000167	0,5	0,206750
12,008500	0,5	0,214550
12,016833	0,5	0,218750
12,025167	0,5	0,219150
12,033500	0,5	0,218400
12,041833	0,5	0,215150
12,050167	0,5	0,224100
12,058500	0,5	0,224700
12,066833	0,5	0,229050
12,075167	0,5	0,228400
12,083500	0,5	0,230050
12,091833	0,5	0,223800
12,100167	0,5	0,224450
12,108500	0,5	0,219000
12,116833	0,5	0,216350
12,125167	0,5	0,210200
12,133500	0,5	0,204200
12,141833	0,5	0,192100
12,150167	0,5	0,185600
12,158500	0,5	0,180750
12,166833	0,5	0,172850
12,175167	0,5	0,160850
12,183500	0,5	0,151650
12,191833	0,5	0,144550
12,200167	0,5	0,137600
12,208500	0,5	0,138650
12,216833	0,5	0,132200
12,225167	0,5	0,130100
12,233500	0,5	0,127100
12,241833	0,5	0,124900
12,250167	0,5	0,124000
12,258500	0,5	0,122750
12,266833	0,5	0,121500
12,275167	0,5	0,120900
12,283500	0,5	0,116750
12,291833	0,5	0,114900
12,300167	0,5	0,119400
12,308500	0,5	0,124550
12,316833	0,5	0,123500
12,325167	0,5	0,124800
12,333500	0,5	0,129650
12,341833	0,5	0,138300
12,350167	0,5	0,153650
12,358500	0,5	0,168500
12,366833	0,5	0,176100
12,375167	0,5	0,178300
12,383500	0,5	0,181100
12,391833	0,5	0,173350
12,400167	0,5	0,163550
12,408500	0,5	0,146650
12,416833	0,5	0,130500
12,425167	0,5	0,117300
12,433500	0,5	0,103150
12,441833	0,5	0,087850
12,450167	0,5	0,083750
12,458500	0,5	0,074100
12,466833	0,5	0,069150
12,475167	0,5	0,055900
12,483500	0,5	0,051900
12,491833	0,5	0,047400
12,500167	0,5	0,051250
12,508500	0,5	0,045050
12,516833	0,5	0,046700
12,525167	0,5	0,040750
12,533500	0,5	0,042900
12,541833	0,5	0,041000
12,550167	0,5	0,038300
12,558500	0,5	0,034450
12,566833	0,5	0,032400
12,575167	0,5	0,032550
12,583500	0,5	0,024250
12,591833	0,5	0,027450
12,600167	0,5	0,027050
12,608500	0,5	0,026050
12,616833	0,5	0,021600
12,625167	0,5	0,012650
12,633500	0,5	0,012500
12,641833	0,5	0,012500
12,650167	0,5	0,012400
12,658500	0,5	0,013150
12,666833	0,5	0,011950
12,675167	0,5	0,012250
12,683500	0,5	0,008750
12,691833	0,5	0,006250
12,700167	0,5	0,005350
12,708500	0,5	0,002350
12,716833	0,5	0,004150
12,725167	0,5	0,001150
12,733500	0,5	-0,009900
12,741833	0,5	-0,008400
12,750167	0,5	-0,007200
12,758500	0,5	-0,015650
12,766833	0,5	-0,020800
12,775167	0,5	-0,033400
12,783500	0,5	-0,026750
12,791833	0,5	-0,026050
12,800167	0,5	-0,029750
12,808500	0,5	-0,033100
12,816833	0,5	-0,033850
12,825167	0,5	-0,039250
12,833500	0,5	-0,039200
12,841833	0,5	-0,041000
12,850167	0,5	-0,045950
12,858500	0,5	-0,050150
12,866833	0,5	-0,052900
12,875167	0,5	-0,053200
12,883500	0,5	-0,061300
12,891833	0,5	-0,055200
12,900167	0,5	-0,059550
12,908500	0,5	-0,063600
12,916833	0,5	-0,073400
12,925167	0,5	-0,074750
12,933500	0,5	-0,077400
12,941833	0,5	-0,075100
12,950167	0,5	-0,077350
12,958500	0,5	-0,079050
12,966833	0,5	-0,081150
12,975167	0,5	-0,080350
12,983500	0,5	-0,082900
12,991833	0,5	-0,086000
13,000167	0,5	-0,087850
13,008500	0,5	-0,096350
13,016833	0,5	-0,093900
13,025167	0,5	-0,094350
13,033500	0,5	-0,096550
13,041833	0,5	-0,094050
13,050167	0,5	-0,099450
13,058500	0,5	-0,103850
13,066833	0,5	-0,111600
13,075167	0,5	-0,116250
13,083500	0,5	-0,113200
13,091833	0,5	-0,112700
13,100167	0,5	-0,115700
13,108500	0,5	-0,116600
13,116833	0,5	-0,118750
13,125167	0,5	-0,116800
13,133500	0,5	-0,119900
13,141833	0,5	-0,121500
13,150167	0,5	-0,121500
13,158500	0,5	-0,125000
13,166833	0,5	-0,122600
13,175167	0,5	-0,135750
13,183500	0,5	-0,128650
13,191833	0,5	-0,129250
13,200167	0,5	-0,129400
13,208500	0,5	-0,133650
13,216833	0,5	-0,145750
13,225167	0,5	-0,150150
13,233500	0,5	-0,150000
13,241833	0,5	-0,148300
13,250167	0,5	-0,151850
13,258500	0,5	-0,152200
13,266833	0,5	-0,154700
13,275167	0,5	-0,154200
13,283500	0,5	-0,153800
13,291833	0,5	-0,153150
13,300167	0,5	-0,157550
13,308500	0,5	-0,155600
13,316833	0,5	-0,161000
13,325167	0,5	-0,164250
13,333500	0,5	-0,163250
13,341833	0,5	-0,161950
13,350167	0,5	-0,165200
13,358500	0,5	-0,171200
13,366833	0,5	-0,175650
13,375167	0,5	-0,179950
13,383500	0,5	-0,175800
13,391833	0,5	-0,173450
13,400167	0,5	-0,175000
13,408500	0,5	-0,177100
13,416833	0,5	-0,176200
13,425167	0,5	-0,175200
13,433500	0,5	-0,177500
13,441833	0,5	-0,179900
13,450167	0,5	-0,176550
13,458500	0,5	-0,178350
13,466833	0,5	-0,180600
13,475167	0,5	-0,184000
13,483500	0,5	-0,178800
13,491833	0,5	-0,184650
13,500167	0,5	-0,187100
13,508500	0,5	-0,192500
13,516833	0,5	-0,197550
13,525167	0,5	-0,194100
13,533500	0,5	-0,191550
13,541833	0,5	-0,193950
13,550167	0,5	-0,194650
13,558500	0,5	-0,196350
13,566833	0,5	-0,196100
13,575167	0,5	-0,195350
13,583500	0,5	-0,197750
13,591833	0,5	-0,198600
13,600167	0,5	-0,200750
13,608500	0,5	-0,199800
13,616833	0,5	-0,212100
13,625167	0,5	-0,205350
13,633500	0,5	-0,204750
13,641833	0,5	-0,208050
13,650167	0,5	-0,214700
13,658500	0,5	-0,225300
13,666833	0,5	-0,227650
13,675167	0,5	-0,227900
13,683500	0,5	-0,232450
13,691833	0,5	-0,230100
13,700167	0,5	-0,234100
13,708500	0,5	-0,230000
13,716833	0,5	-0,230800
13,725167	0,5	-0,234600
13,733500	0,5	-0,235650
13,741833	0,5	-0,237200
13,750167	0,5	-0,233600
13,758500	0,5	-0,238050
13,766833	0,5	-0,244900
13,775167	0,5	-0,237950
13,783500	0,5	-0,238000
13,791833	0,5	-0,242950
13,800167	0,5	-0,249850
13,808500	0,5	-0,260500
13,816833	0,5	-0,254650
13,825167	0,5	-0,264800
13,833500	0,5	-0,263850
13,841833	0,5	-0,270000
13,850167	0,5	-0,277400
13,858500	0,5	-0,284700
13,866833	0,5	-0,282650
13,875167	0,5	-0,287900
13,883500	0,5	-0,285900
13,891833	0,5	-0,284500
13,900167	0,5	-0,279200
13,908500	0,5	-0,284250
13,916833	0,5	-0,286900
13,925167	0,5	-0,282300
13,933500	0,5	-0,280250
13,941833	0,5	-0,292550
13,950167	0,5	-0,299750
13,958500	0,5	-0,301650
13,966833	0,5	-0,305650
13,975167	0,5	-0,306850
13,983500	0,5	-0,311000
13,991833	0,5	-0,309900
14,000167	0,5	-0,313900
14,008500	0,5	-0,312850
14,016833	0,5	-0,317700
14,025167	0,5	-0,317950
14,033500	0,5	-0,325400
14,041833	0,5	-0,324550
14,050167	0,5	-0,320850
14,058500	0,5	-0,328700
14,066833	0,5	-0,332350
14,075167	0,5	-0,330250
14,083500	0,5	-0,333500
14,091833	0,5	-0,338650
14,100167	0,5	-0,348350
14,108500	0,5	-0,352200
14,116833	0,5	-0,353300
14,125167	0,5	-0,353150
14,133500	0,5	-0,357150
14,141833	0,5	-0,356250
14,150167	0,5	-0,361050
14,158500	0,5	-0,363800
14,166833	0,5	-0,364750
14,175167	0,5	-0,370550
14,183500	0,5	-0,374150
14,191833	0,5	-0,374200
14,200167	0,5	-0,376650
14,208500	0,5	-0,390900
14,216833	0,5	-0,386300
14,225167	0,5	-0,392700
14,233500	0,5	-0,395950
14,241833	0,5	-0,409050
14,250167	0,5	-0,422050
14,258500	0,5	-0,421800
14,266833	0,5	-0,423700
14,275167	0,5	-0,424900
14,283500	0,5	-0,429750
14,291833	0,5	-0,430450
14,300167	0,5	-0,439500
14,308500	0,5	-0,439100
14,316833	0,5	-0,442150
14,325167	0,5	-0,444000
14,333500	0,5	-0,447150
14,341833	0,5	-0,443450
14,350167	0,5	-0,453450
14,358500	0,5	-0,458050
14,366833	0,5	-0,454400
14,375167	0,5	-0,457900
14,383500	0,5	-0,467600
14,391833	0,5	-0,478500
14,400167	0,5	-0,485550
14,408500	0,5	-0,489150
14,416833	0,5	-0,485850
14,425167	0,5	-0,486150
14,433500	0,5	-0,487450
14,441833	0,5	-0,485950
14,450167	0,5	-0,485700
14,458500	0,5	-0,488750
14,466833	0,5	-0,490500
14,475167	0,5	-0,496100
14,483500	0,5	-0,488450
14,491833	0,5	-0,488700
14,500167	0,5	-0,497050
14,508500	0,5	-0,497650
14,516833	0,5	-0,495150
14,525167	0,5	-0,501700
14,533500	0,5	-0,500800
14,541833	0,5	-0,519600
14,550167	0,5	-0,519100
14,558500	0,5	-0,518550
14,566833	0,5	-0,518800
14,575167	0,5	-0,521500
14,583500	0,5	-0,522700
14,591833	0,5	-0,525950
14,600167	0,5	-0,522500
14,608500	0,5	-0,521500
14,616833	0,5	-0,524850
14,625167	0,5	-0,525650
14,633500	0,5	-0,524250
14,641833	0,5	-0,526000
14,650167	0,5	-0,539650
14,658500	0,5	-0,534750
14,666833	0,5	-0,528400
14,675167	0,5	-0,532050
14,683500	0,5	-0,539550
14,691833	0,5	-0,546800
14,700167	0,5	-0,546800
14,708500	0,5	-0,541800
14,716833	0,5	-0,548950
14,725167	0,5	-0,545850
14,733500	0,5	-0,545800
14,741833	0,5	-0,544050
14,750167	0,5	-0,548100
14,758500	0,5	-0,545800
14,766833	0,5	-0,550200
14,775167	0,5	-0,555500
14,783500	0,5	-0,551600
14,791833	0,5	-0,552650
14,800167	0,5	-0,561400
14,808500	0,5	-0,555950
14,816833	0,5	-0,557100
14,825167	0,5	-0,561350
14,833500	0,5	-0,574450
14,841833	0,5	-0,581700
14,850167	0,5	-0,574800
14,858500	0,5	-0,578750
14,866833	0,5	-0,577250
14,875167	0,5	-0,581900
14,883500	0,5	-0,581700
14,891833	0,5	-0,587000
14,900167	0,5	-0,584300
14,908500	0,5	-0,587550
14,916833	0,5	-0,589700
14,925167	0,5	-0,592100
14,933500	0,5	-0,587300
14,941833	0,5	-0,599700
14,950167	0,5	-0,595650
14,958500	0,5	-0,598000
14,966833	0,5	-0,599500
14,975167	0,5	-0,605400
14,983500	0,5	-0,614300
14,991833	0,5	-0,616450
15,000167	0,5	-0,617700
15,008500	0,5	-0,618300
15,016833	0,5	-0,622550
15,025167	0,5	-0,622400
15,033500	0,5	-0,623850
15,041833	0,5	-0,619150
15,050167	0,5	-0,619700
15,058500	0,5	-0,618600
15,066833	0,5	-0,626100
15,075167	0,5	-0,624400
15,083500	0,5	-0,624400
15,091833	0,5	-0,629450
15,100167	0,5	-0,626650
15,108500	0,5	-0,621250
15,116833	0,5	-0,618150
15,125167	0,5	-0,621600
15,133500	0,5	-0,627350
15,141833	0,5	-0,624950
15,150167	0,5	-0,614800
15,158500	0,5	-0,606750
15,166833	0,5	-0,600500
15,175167	0,5	-0,598950
15,183500	0,5	-0,594300
15,191833	0,5	-0,605850
15,200167	0,5	-0,609900
15,208500	0,5	-0,620950
15,216833	0,5	-0,632650
15,225167	0,5	-0,641350
15,233500	0,5	-0,650050
15,241833	0,5	-0,667900
15,250167	0,5	-0,660700
15,258500	0,5	-0,670700
15,266833	0,5	-0,674500
15,275167	0,5	-0,692500
15,283500	0,5	-0,707600
15,291833	0,5	-0,705300
15,300167	0,5	-0,704150
15,308500	0,5	-0,705050
15,316833	0,5	-0,714350
15,325167	0,5	-0,708350
15,333500	0,5	-0,713350
15,341833	0,5	-0,711900
15,350167	0,5	-0,714600
15,358500	0,5	-0,714900
15,366833	0,5	-0,720050
15,375167	0,5	-0,715950
15,383500	0,5	-0,726900
15,391833	0,5	-0,727050
15,400167	0,5	-0,721300
15,408500	0,5	-0,722350
15,416833	0,5	-0,733750
15,425167	0,5	-0,741950
15,433500	0,5	-0,751150
15,441833	0,5	-0,746600
15,450167	0,5	-0,746700
15,458500	0,5	-0,750350
15,466833	0,5	-0,748100
15,475167	0,5	-0,747100
15,483500	0,5	-0,747250
15,491833	0,5	-0,744000
15,500167	0,5	-0,744700
15,508500	0,5	-0,749750
15,516833	0,5	-0,746050
15,525167	0,5	-0,748750
15,533500	0,5	-0,756850
15,541833	0,5	-0,751900
15,550167	0,5	-0,749600
15,558500	0,5	-0,758150
15,566833	0,5	-0,762200
15,575167	0,5	-0,773200
15,583500	0,5	-0,769400
15,591833	0,5	-0,773100
15,600167	0,5	-0,768000
15,608500	0,5	-0,775050
15,616833	0,5	-0,770350
15,625167	0,5	-0,772750
15,633500	0,5	-0,775100
15,641833	0,5	-0,775650
15,650167	0,5	-0,775850
15,658500	0,5	-0,775250
15,666833	0,5	-0,778050
15,675167	0,5	-0,782950
15,683500	0,5	-0,783150
15,691833	0,5	-0,774300
15,700167	0,5	-0,776150
15,708500	0,5	-0,777200
15,716833	0,5	-0,788150
15,725167	0,5	-0,796400
15,733500	0,5	-0,793050
15,741833	0,5	-0,787550
15,750167	0,5	-0,790850
15,758500	0,5	-0,787300
15,766833	0,5	-0,784450
15,775167	0,5	-0,778550
15,783500	0,5	-0,775500
15,791833	0,5	-0,775200
15,800167	0,5	-0,774250
15,808500	0,5	-0,780250
15,816833	0,5	-0,778450
15,825167	0,5	-0,792550
15,833500	0,5	-0,790600
15,841833	0,5	-0,789900
15,850167	0,5	-0,796400
15,858500	0,5	-0,803700
15,866833	0,5	-0,818000
15,875167	0,5	-0,826100
15,883500	0,5	-0,820000
15,891833	0,5	-0,824300
15,900167	0,5	-0,826050
15,908500	0,5	-0,834600
15,916833	0,5	-0,833800
15,925167	0,5	-0,837450
15,933500	0,5	-0,834750
15,941833	0,5	-0,834750
15,950167	0,5	-0,837250
15,958500	0,5	-0,832000
15,966833	0,5	-0,830850
15,975167	0,5	-0,850450
15,983500	0,5	-0,838500
15,991833	0,5	-0,845250
16,000167	0,5	-0,849800
16,008500	0,5	-0,854750
16,016833	0,5	-0,872100
16,025167	0,5	-0,863800
16,033500	0,5	-0,866850
16,041833	0,5	-0,869700
16,050167	0,5	-0,874300
16,058500	0,5	-0,873350
16,066833	0,5	-0,877450
16,075167	0,5	-0,877000
16,083500	0,5	-0,879400
16,091833	0,5	-0,876600
16,100167	0,5	-0,878100
16,108500	0,5	-0,870100
16,116833	0,5	-0,871400
16,125167	0,5	-0,880000
16,133500	0,5	-0,871300
16,141833	0,5	-0,868450
16,150167	0,5	-0,873400
16,158500	0,5	-0,878400
16,166833	0,5	-0,905800
16,175167	0,5	-0,900950
16,183500	0,5	-0,901300
16,191833	0,5	-0,904000
16,200167	0,5	-0,909450
16,208500	0,5	-0,910150
16,216833	0,5	-0,906350
16,225167	0,5	-0,911800
16,233500	0,5	-0,907600
16,241833	0,5	-0,917500
16,250167	0,5	-0,915950
16,258500	0,5	-0,919350
16,266833	0,5	-0,918500
16,275167	0,5	-0,919650
16,283500	0,5	-0,911450
16,291833	0,5	-0,916400
16,300167	0,5	-0,919450
16,308500	0,5	-0,931500
16,316833	0,5	-0,938600
16,325167	0,5	-0,935000
16,333500	0,5	-0,936400
16,341833	0,5	-0,938100
16,350167	0,5	-0,937200
16,358500	0,5	-0,937100
16,366833	0,5	-0,938950
16,375167	0,5	-0,933600
16,383500	0,5	-0,935950
16,391833	0,5	-0,938050
16,400167	0,5	-0,936550
16,408500	0,5	-0,933150
16,416833	0,5	-0,946050
16,425167	0,5	-0,940300
16,433500	0,5	-0,939950
16,441833	0,5	-0,943750
16,450167	0,5	-0,953950
16,458500	0,5	-0,962250
16,466833	0,5	-0,964300
16,475167	0,5	-0,962700
16,483500	0,5	-0,966050
16,491833	0,5	-0,957600
16,500167	0,5	-0,961200
16,508500	0,5	-0,959600
16,516833	0,5	-0,959550
16,525167	0,5	-0,963350
16,533500	0,5	-0,958800
16,541833	0,5	-0,959500
16,550167	0,5	-0,947000
16,558500	0,5	-0,952700
16,566833	0,5	-0,956100
16,575167	0,5	-0,948350
16,583500	0,5	-0,945400
16,591833	0,5	-0,951950
16,600167	0,5	-0,958050
16,608500	0,5	-0,968900
16,616833	0,5	-0,964100
16,625167	0,5	-0,964250
16,633500	0,5	-0,962400
16,641833	0,5	-0,968850
16,650167	0,5	-0,969700
16,658500	0,5	-0,975700
16,666833	0,5	-0,977850
16,675167	0,5	-0,976250
16,683500	0,5	-0,983600
16,691833	0,5	-0,976900
16,700167	0,5	-0,977000
16,708500	0,5	-0,993950
16,716833	0,5	-0,990400
16,725167	0,5	-0,984350
16,733500	0,5	-0,986750
16,741833	0,5	-0,988200
16,750167	0,5	-1,002800
16,758500	0,5	-1,001150
16,766833	0,5	-1,001900
16,775167	0,5	-0,995050
16,783500	0,5	-1,005050
16,791833	0,5	-0,999000
16,800167	0,5	-0,998850
16,808500	0,5	-0,997550
16,816833	0,5	-0,997050
16,825167	0,5	-0,991800
16,833500	0,5	-0,991200
16,841833	0,5	-0,991200
16,850167	0,5	-0,984550
16,858500	0,5	-0,998700
16,866833	0,5	-0,981350
16,875167	0,5	-0,986050
16,883500	0,5	-0,984950
16,891833	0,5	-0,990000
16,900167	0,5	-1,003250
16,908500	0,5	-0,999450
16,916833	0,5	-0,988650
16,925167	0,5	-0,994950
16,933500	0,5	-0,988800
16,941833	0,5	-0,992100
16,950167	0,5	-0,988700
16,958500	0,5	-0,988550
16,966833	0,5	-0,987950
16,975167	0,5	-0,988450
16,983500	0,5	-0,984950
16,991833	0,5	-0,974400
17,000167	0,5	-0,974050
17,008500	0,5	-0,985550
17,016833	0,5	-0,971000
17,025167	0,5	-0,972150
17,033500	0,5	-0,977000
17,041833	0,5	-0,979950
17,050167	0,5	-0,998850
17,058500	0,5	-0,984300
17,066833	0,5	-0,985450
17,075167	0,5	-0,977550
17,083500	0,5	-0,981400
17,091833	0,5	-0,973150
17,100167	0,5	-0,973100
17,108500	0,5	-0,965900
17,116833	0,5	-0,967150
17,125167	0,5	-0,966850
17,133500	0,5	-0,954850
17,141833	0,5	-0,954600
17,150167	0,5	-0,963400
17,158500	0,5	-0,960150
17,166833	0,5	-0,955550
17,175167	0,5	-0,951800
17,183500	0,5	-0,956100
17,191833	0,5	-0,959950
17,200167	0,5	-0,962000
17,208500	0,5	-0,963050
17,216833	0,5	-0,955200
17,225167	0,5	-0,956550
17,233500	0,5	-0,949400
17,241833	0,5	-0,944350
17,250167	0,5	-0,939800
17,258500	0,5	-0,936850
17,266833	0,5	-0,930700
17,275167	0,5	-0,928350
17,283500	0,5	-0,916400
17,291833	0,5	-0,915250
17,300167	0,5	-0,912700
17,308500	0,5	-0,908100
17,316833	0,5	-0,902250
17,325167	0,5	-0,903750
17,333500	0,5	-0,905400
17,341833	0,5	-0,913500
17,350167	0,5	-0,913800
17,358500	0,5	-0,902900
17,366833	0,5	-0,896950
17,375167	0,5	-0,892350
17,383500	0,5	-0,890600
17,391833	0,5	-0,883400
17,400167	0,5	-0,881750
17,408500	0,5	-0,876650
17,416833	0,5	-0,875400
17,425167	0,5	-0,863800
17,433500	0,5	-0,861150
17,441833	0,5	-0,858300
17,450167	0,5	-0,861200
17,458500	0,5	-0,848550
17,466833	0,5	-0,844800
17,475167	0,5	-0,847100
17,483500	0,5	-0,857950
17,491833	0,5	-0,864600
17,500167	0,5	-0,864600
17,508500	0,5	-0,862150
17,516833	0,5	-0,861200
17,525167	0,5	-0,854200
17,533500	0,5	-0,852250
17,541833	0,5	-0,851950
17,550167	0,5	-0,849100
17,558500	0,5	-0,850550
17,566833	0,5	-0,850900
17,575167	0,5	-0,849950
17,583500	0,5	-0,847750
17,591833	0,5	-0,870600
17,600167	0,5	-0,861350
17,608500	0,5	-0,858150
17,616833	0,5	-0,861050
17,625167	0,5	-0,865350
17,633500	0,5	-0,876500
17,641833	0,5	-0,885650
17,650167	0,5	-0,881650
17,658500	0,5	-0,882900
17,666833	0,5	-0,879100
17,675167	0,5	-0,885200
17,683500	0,5	-0,882900
17,691833	0,5	-0,884250
17,700167	0,5	-0,886450
17,708500	0,5	-0,887750
17,716833	0,5	-0,889250
17,725167	0,5	-0,886250
17,733500	0,5	-0,889400
17,741833	0,5	-0,904300
17,750167	0,5	-0,892050
17,758500	0,5	-0,893250
17,766833	0,5	-0,900100
17,775167	0,5	-0,900900
17,783500	0,5	-0,924550
17,791833	0,5	-0,919150
17,800167	0,5	-0,922700
17,808500	0,5	-0,918750
17,816833	0,5	-0,925250
17,825167	0,5	-0,925750
17,833500	0,5	-0,928700
17,841833	0,5	-0,923500
17,850167	0,5	-0,930200
17,858500	0,5	-0,932000
17,866833	0,5	-0,932400
17,875167	0,5	-0,936950
17,883500	0,5	-0,940750
17,891833	0,5	-0,950300
17,900167	0,5	-0,937600
17,908500	0,5	-0,936450
17,916833	0,5	-0,940350
17,925167	0,5	-0,956650
17,933500	0,5	-0,967700
17,941833	0,5	-0,965550
17,950167	0,5	-0,960150
17,958500	0,5	-0,963850
17,966833	0,5	-0,967200
17,975167	0,5	-0,972800
17,983500	0,5	-0,973400
17,991833	0,5	-0,974700
18,000167	0,5	-0,977100
18,008500	0,5	-0,980650
18,016833	0,5	-0,986550
18,025167	0,5	-0,983300
18,033500	0,5	-0,994300
18,041833	0,5	-0,992200
18,050167	0,5	-0,993950
18,058500	0,5	-0,994600
18,066833	0,5	-1,003850
18,075167	0,5	-1,018150
18,083500	0,5	-1,026850
18,091833	0,5	-1,017900
18,100167	0,5	-1,028500
18,108500	0,5	-1,032000
18,116833	0,5	-1,040300
18,125167	0,5	-1,040100
18,133500	0,5	-1,043150
18,141833	0,5	-1,040850
18,150167	0,5	-1,044750
18,158500	0,5	-1,049650
18,166833	0,5	-1,047300
18,175167	0,5	-1,048100
18,183500	0,5	-1,066350
18,191833	0,5	-1,059700
18,200167	0,5	-1,066500
18,208500	0,5	-1,070400
18,216833	0,5	-1,083200
18,225167	0,5	-1,099950
18,233500	0,5	-1,102650
18,241833	0,5	-1,107850
18,250167	0,5	-1,110000
18,258500	0,5	-1,113200
18,266833	0,5	-1,111400
18,275167	0,5	-1,113800
18,283500	0,5	-1,118100
18,291833	0,5	-1,126750
18,300167	0,5	-1,127500
18,308500	0,5	-1,129350
18,316833	0,5	-1,124650
18,325167	0,5	-1,133700
18,333500	0,5	-1,135800
18,341833	0,5	-1,130300
18,350167	0,5	-1,135550
18,358500	0,5	-1,140050
18,366833	0,5	-1,148100
18,375167	0,5	-1,171900
18,383500	0,5	-1,177900
18,391833	0,5	-1,168750
18,400167	0,5	-1,166850
18,408500	0,5	-1,169700
18,416833	0,5	-1,177700
18,425167	0,5	-1,176200
18,433500	0,5	-1,181000
18,441833	0,5	-1,175500
18,450167	0,5	-1,180250
18,458500	0,5	-1,181050
18,466833	0,5	-1,186050
18,475167	0,5	-1,194450
18,483500	0,5	-1,192950
18,491833	0,5	-1,187700
18,500167	0,5	-1,197150
18,508500	0,5	-1,200050
18,516833	0,5	-1,217950
18,525167	0,5	-1,224000
18,533500	0,5	-1,224250
18,541833	0,5	-1,225950
18,550167	0,5	-1,229700
18,558500	0,5	-1,234700
18,566833	0,5	-1,227650
18,575167	0,5	-1,230150
18,583500	0,5	-1,232000
18,591833	0,5	-1,235200
18,600167	0,5	-1,234950
18,608500	0,5	-1,234500
18,616833	0,5	-1,233850
18,625167	0,5	-1,250550
18,633500	0,5	-1,243300
18,641833	0,5	-1,246000
18,650167	0,5	-1,251750
18,658500	0,5	-1,259100
18,666833	0,5	-1,277550
18,675167	0,5	-1,273300
18,683500	0,5	-1,279300
18,691833	0,5	-1,278900
18,700167	0,5	-1,279000
18,708500	0,5	-1,284250
18,716833	0,5	-1,285500
18,725167	0,5	-1,285350
18,733500	0,5	-1,290850
18,741833	0,5	-1,287950
18,750167	0,5	-1,287950
18,758500	0,5	-1,278350
18,766833	0,5	-1,287550
18,775167	0,5	-1,299050
18,783500	0,5	-1,294500
18,791833	0,5	-1,294950
18,800167	0,5	-1,303800
18,808500	0,5	-1,321450
18,816833	0,5	-1,328900
18,825167	0,5	-1,324050
18,833500	0,5	-1,327950
18,841833	0,5	-1,323750
18,850167	0,5	-1,327550
18,858500	0,5	-1,328600
18,866833	0,5	-1,328600
18,875167	0,5	-1,328850
18,883500	0,5	-1,329050
18,891833	0,5	-1,336900
18,900167	0,5	-1,327600
18,908500	0,5	-1,328850
18,916833	0,5	-1,343000
18,925167	0,5	-1,337650
18,933500	0,5	-1,335450
18,941833	0,5	-1,338750
18,950167	0,5	-1,347200
18,958500	0,5	-1,368700
18,966833	0,5	-1,364300
18,975167	0,5	-1,362500
18,983500	0,5	-1,363550
18,991833	0,5	-1,368500
19,000167	0,5	-1,362000
19,008500	0,5	-1,365200
19,016833	0,5	-1,366600
19,025167	0,5	-1,364500
19,033500	0,5	-1,370100
19,041833	0,5	-1,372150
19,050167	0,5	-1,371000
19,058500	0,5	-1,366050
19,066833	0,5	-1,379500
19,075167	0,5	-1,374450
19,083500	0,5	-1,377200
19,091833	0,5	-1,379000
19,100167	0,5	-1,392450
19,108500	0,5	-1,404100
19,116833	0,5	-1,404250
19,125167	0,5	-1,399200
19,133500	0,5	-1,406450
19,141833	0,5	-1,408350
19,150167	0,5	-1,409100
19,158500	0,5	-1,409850
19,166833	0,5	-1,411600
19,175167	0,5	-1,408550
19,183500	0,5	-1,407850
19,191833	0,5	-1,411700
19,200167	0,5	-1,398350
19,208500	0,5	-1,406500
19,216833	0,5	-1,415900
19,225167	0,5	-1,408100
19,233500	0,5	-1,414450
19,241833	0,5	-1,418500
19,250167	0,5	-1,438600
19,258500	0,5	-1,456050
19,266833	0,5	-1,451100
19,275167	0,5	-1,454350
19,283500	0,5	-1,451150
19,291833	0,5	-1,456350
19,300167	0,5	-1,461200
19,308500	0,5	-1,466600
19,316833	0,5	-1,469600
19,325167	0,5	-1,472000
19,333500	0,5	-1,479550
19,341833	0,5	-1,470350
19,350167	0,5	-1,474900
19,358500	0,5	-1,486450
19,366833	0,5	-1,480500
19,375167	0,5	-1,484500
19,383500	0,5	-1,494750
19,391833	0,5	-1,505950
19,400167	0,5	-1,523100
19,408500	0,5	-1,526450
19,416833	0,5	-1,534000
19,425167	0,5	-1,528100
19,433500	0,5	-1,540400
19,441833	0,5	-1,535350
19,450167	0,5	-1,543100
19,458500	0,5	-1,539250
19,466833	0,5	-1,542900
19,475167	0,5	-1,549300
19,483500	0,5	-1,548800
19,491833	0,5	-1,542150
19,500167	0,5	-1,548300
19,508500	0,5	-1,560050
19,516833	0,5	-1,553850
19,525167	0,5	-1,552400
19,533500	0,5	-1,556800
19,541833	0,5	-1,572800
19,550167	0,5	-1,577000
19,558500	0,5	-1,584500
19,566833	0,5	-1,578150
19,575167	0,5	-1,584750
19,583500	0,5	-1,585300
19,591833	0,5	-1,584250
19,600167	0,5	-1,586900
19,608500	0,5	-1,588750
19,616833	0,5	-1,586300
19,625167	0,5	-1,589400
19,633500	0,5	-1,586300
19,641833	0,5	-1,583000
19,650167	0,5	-1,593050
19,658500	0,5	-1,592650
19,666833	0,5	-1,586400
19,675167	0,5	-1,586900
19,683500	0,5	-1,598850
19,691833	0,5	-1,613100
19,700167	0,5	-1,614200
19,708500	0,5	-1,609400
19,716833	0,5	-1,611950
19,725167	0,5	-1,605100
19,733500	0,5	-1,609800
19,741833	0,5	-1,608750
19,750167	0,5	-1,610650
19,758500	0,5	-1,606950
19,766833	0,5	-1,612900
19,775167	0,5	-1,616400
19,783500	0,5	-1,607900
19,791833	0,5	-1,604450
19,800167	0,5	-1,625250
19,808500	0,5	-1,617550
19,816833	0,5	-1,619150
19,825167	0,5	-1,624550
19,833500	0,5	-1,636050
19,841833	0,5	-1,658150
19,850167	0,5	-1,648300
19,858500	0,5	-1,661450
19,866833	0,5	-1,658700
19,875167	0,5	-1,664150
19,883500	0,5	-1,663850
19,891833	0,5	-1,664700
19,900167	0,5	-1,660250
19,908500	0,5	-1,664100
19,916833	0,5	-1,663350
19,925167	0,5	-1,660650
19,933500	0,5	-1,652650
19,941833	0,5	-1,660250
19,950167	0,5	-1,670350
19,958500	0,5	-1,657300
19,966833	0,5	-1,654900
19,975167	0,5	-1,655050
19,983500	0,5	-1,671400
19,991833	0,5	-1,679400
20,000167	0,5	-1,675000
20,008500	0,5	-1,668750
20,016833	0,5	-1,672850
20,025167	0,5	-1,670050
20,033500	0,5	-1,676000
20,041833	0,5	-1,671700
20,050167	0,5	-1,669600
20,058500	0,5	-1,664800
20,066833	0,5	-1,669350
20,075167	0,5	-1,659500
20,083500	0,5	-1,654950
20,091833	0,5	-1,659500
20,100167	0,5	-1,661900
20,108500	0,5	-1,652450
20,116833	0,5	-1,660050
20,125167	0,5	-1,669600
20,133500	0,5	-1,680000
20,141833	0,5	-1,684450
20,150167	0,5	-1,674650
20,158500	0,5	-1,675850
20,166833	0,5	-1,669600
20,175167	0,5	-1,676050
20,183500	0,5	-1,674900
20,191833	0,5	-1,677300
20,200167	0,5	-1,668350
20,208500	0,5	-1,671050
20,216833	0,5	-1,665750
20,225167	0,5	-1,655200
20,233500	0,5	-1,650000
20,241833	0,5	-1,660950
20,250167	0,5	-1,650600
20,258500	0,5	-1,651300
20,266833	0,5	-1,653200
20,275167	0,5	-1,663150
20,283500	0,5	-1,676300
20,291833	0,5	-1,677050
20,300167	0,5	-1,674850
20,308500	0,5	-1,667850
20,316833	0,5	-1,661450
20,325167	0,5	-1,662550
20,333500	0,5	-1,660650
20,341833	0,5	-1,653650
20,350167	0,5	-1,656450
20,358500	0,5	-1,654850
20,366833	0,5	-1,650450
20,375167	0,5	-1,633150
20,383500	0,5	-1,645700
20,391833	0,5	-1,645900
20,400167	0,5	-1,639850
20,408500	0,5	-1,645500
20,416833	0,5	-1,652650
20,425167	0,5	-1,668650
20,433500	0,5	-1,678350
20,441833	0,5	-1,677850
20,450167	0,5	-1,675850
20,458500	0,5	-1,677350
20,466833	0,5	-1,681350
20,475167	0,5	-1,679150
20,483500	0,5	-1,676350
20,491833	0,5	-1,674750
20,500167	0,5	-1,672250
20,508500	0,5	-1,675200
20,516833	0,5	-1,655850
20,525167	0,5	-1,649250
20,533500	0,5	-1,660100
20,541833	0,5	-1,660050
20,550167	0,5	-1,658850
20,558500	0,5	-1,673400
20,566833	0,5	-1,679150
20,575167	0,5	-1,692000
20,583500	0,5	-1,692600
20,591833	0,5	-1,692900
20,600167	0,5	-1,687150
20,608500	0,5	-1,688200
20,616833	0,5	-1,686150
20,625167	0,5	-1,685000
20,633500	0,5	-1,684150
20,641833	0,5	-1,680650
20,650167	0,5	-1,686050
20,658500	0,5	-1,676500
20,666833	0,5	-1,657100
20,675167	0,5	-1,652450
20,683500	0,5	-1,660950
20,691833	0,5	-1,660700
20,700167	0,5	-1,659500
20,708500	0,5	-1,663650
20,716833	0,5	-1,680250
20,725167	0,5	-1,684450
20,733500	0,5	-1,680500
20,741833	0,5	-1,673300
20,750167	0,5	-1,675100
20,758500	0,5	-1,668300
20,766833	0,5	-1,667450
20,775167	0,5	-1,659850
20,783500	0,5	-1,649700
20,791833	0,5	-1,646750
20,800167	0,5	-1,642800
20,808500	0,5	-1,626500
20,816833	0,5	-1,613650
20,825167	0,5	-1,612350
20,833500	0,5	-1,611000
20,841833	0,5	-1,615000
20,850167	0,5	-1,615750
20,858500	0,5	-1,627800
20,866833	0,5	-1,638900
20,875167	0,5	-1,633750
20,883500	0,5	-1,626250
20,891833	0,5	-1,629000
20,900167	0,5	-1,628350
20,908500	0,5	-1,628600
20,916833	0,5	-1,623350
20,925167	0,5	-1,617750
20,933500	0,5	-1,611350
20,941833	0,5	-1,609700
20,950167	0,5	-1,609150
20,958500	0,5	-1,583950
20,966833	0,5	-1,568700
20,975167	0,5	-1,574950
20,983500	0,5	-1,572100
20,991833	0,5	-1,579600
21,000167	0,5	-1,587250
21,008500	0,5	-1,588850
21,016833	0,5	-1,603250
21,025167	0,5	-1,594350
21,033500	0,5	-1,589300
21,041833	0,5	-1,584700
21,050167	0,5	-1,586950
21,058500	0,5	-1,578650
21,066833	0,5	-1,577750
21,075167	0,5	-1,574450
21,083500	0,5	-1,568900
21,091833	0,5	-1,567900
21,100167	0,5	-1,549850
21,108500	0,5	-1,524000
21,116833	0,5	-1,513800
21,125167	0,5	-1,513950
21,133500	0,5	-1,509550
21,141833	0,5	-1,513050
21,150167	0,5	-1,517500
21,158500	0,5	-1,529150
21,166833	0,5	-1,530000
21,175167	0,5	-1,530100
21,183500	0,5	-1,516250
21,191833	0,5	-1,515200
21,200167	0,5	-1,508600
21,208500	0,5	-1,505250
21,216833	0,5	-1,499850
21,225167	0,5	-1,491350
21,233500	0,5	-1,489000
21,241833	0,5	-1,477400
21,250167	0,5	-1,454400
21,258500	0,5	-1,437450
21,266833	0,5	-1,433700
21,275167	0,5	-1,433450
21,283500	0,5	-1,434600
21,291833	0,5	-1,431600
21,300167	0,5	-1,444100
21,308500	0,5	-1,453650
21,316833	0,5	-1,453350
21,325167	0,5	-1,439100
21,333500	0,5	-1,437650
21,341833	0,5	-1,432650
21,350167	0,5	-1,428350
21,358500	0,5	-1,416250
21,366833	0,5	-1,407800
21,375167	0,5	-1,402100
21,383500	0,5	-1,398350
21,391833	0,5	-1,384650
21,400167	0,5	-1,353250
21,408500	0,5	-1,335800
21,416833	0,5	-1,333000
21,425167	0,5	-1,330200
21,433500	0,5	-1,326350
21,441833	0,5	-1,326350
21,450167	0,5	-1,329600
21,458500	0,5	-1,328050
21,466833	0,5	-1,306900
21,475167	0,5	-1,290200
21,483500	0,5	-1,262650
21,491833	0,5	-1,237700
21,500167	0,5	-1,209250
21,508500	0,5	-1,183100
21,516833	0,5	-1,168900
21,525167	0,5	-1,154650
21,533500	0,5	-1,153700
21,541833	0,5	-1,135600
21,550167	0,5	-1,124450
21,558500	0,5	-1,128250
21,566833	0,5	-1,135750
21,575167	0,5	-1,136800
21,583500	0,5	-1,147250
21,591833	0,5	-1,140700
21,600167	0,5	-1,152350
21,608500	0,5	-1,136500
21,616833	0,5	-1,128100
21,625167	0,5	-1,112100
21,633500	0,5	-1,101200
21,641833	0,5	-1,083650
21,650167	0,5	-1,073000
21,658500	0,5	-1,055450
21,666833	0,5	-1,041450
21,675167	0,5	-1,026950
21,683500	0,5	-1,011900
21,691833	0,5	-0,972900
21,700167	0,5	-0,948600
21,708500	0,5	-0,943950
21,716833	0,5	-0,932500
21,725167	0,5	-0,926400
21,733500	0,5	-0,916900
21,741833	0,5	-0,921500
21,750167	0,5	-0,903900
21,758500	0,5	-0,890950
21,766833	0,5	-0,866300
21,775167	0,5	-0,858700
21,783500	0,5	-0,833800
21,791833	0,5	-0,819600
21,800167	0,5	-0,799200
21,808500	0,5	-0,781000
21,816833	0,5	-0,770350
21,825167	0,5	-0,758350
21,833500	0,5	-0,729550
21,841833	0,5	-0,700750
21,850167	0,5	-0,687900
21,858500	0,5	-0,669150
21,866833	0,5	-0,654850
21,875167	0,5	-0,639050
21,883500	0,5	-0,629750
21,891833	0,5	-0,621250
21,900167	0,5	-0,596650
21,908500	0,5	-0,570300
21,916833	0,5	-0,549050
21,925167	0,5	-0,524100
21,933500	0,5	-0,503100
21,941833	0,5	-0,485200
21,950167	0,5	-0,462200
21,958500	0,5	-0,440950
21,966833	0,5	-0,409700
21,975167	0,5	-0,388750
21,983500	0,5	-0,339700
21,991833	0,5	-0,316000
22,000167	0,5	-0,295650
22,008500	0,5	-0,261150
22,016833	0,5	-0,229000
22,025167	0,5	-0,212250
22,033500	0,5	-0,194750
22,041833	0,5	-0,169900
22,050167	0,5	-0,122300
22,058500	0,5	-0,091800
22,066833	0,5	-0,053150
22,075167	0,5	-0,020250
22,083500	0,5	0,013050
22,091833	0,5	0,036900
22,100167	0,5	0,060700
22,108500	0,5	0,086850
22,116833	0,5	0,098250
22,125167	0,5	0,132350
22,133500	0,5	0,165200
22,141833	0,5	0,183300
22,150167	0,5	0,216450
22,158500	0,5	0,252600
22,166833	0,5	0,277550
22,175167	0,5	0,306500
22,183500	0,5	0,328050
22,191833	0,5	0,372200
22,200167	0,5	0,407100
22,208500	0,5	0,454500
22,216833	0,5	0,497100
22,225167	0,5	0,543850
22,233500	0,5	0,587750
22,241833	0,5	0,632750
22,250167	0,5	0,674350
22,258500	0,5	0,714650
22,266833	0,5	0,754700
22,275167	0,5	0,784600
22,283500	0,5	0,830800
22,291833	0,5	0,865000
22,300167	0,5	0,928350
22,308500	0,5	0,975850
22,316833	0,5	1,026050
22,325167	0,5	1,061850
22,333500	0,5	1,108900
22,341833	0,5	1,162950
22,350167	0,5	1,226200
22,358500	0,5	1,276450
22,366833	0,5	1,335650
22,375167	0,5	1,381650
22,383500	0,5	1,440500
22,391833	0,5	1,497650
22,400167	0,5	1,550300
22,408500	0,5	1,605900
22,416833	0,5	1,655950
22,425167	0,5	1,716450
22,433500	0,5	1,771150
22,441833	0,5	1,847900
22,450167	0,5	1,919150
22,458500	0,5	1,982300
22,466833	0,5	2,045050
22,475167	0,5	2,103150
22,483500	0,5	2,167700
22,491833	0,5	2,247750
22,500167	0,5	2,316850
22,508500	0,5	2,394650
22,516833	0,5	2,460500
22,525167	0,5	2,536350
22,533500	0,5	2,609000
22,541833	0,5	2,674900
22,550167	0,5	2,743600
22,558500	0,5	2,815200
22,566833	0,5	2,873500
22,575167	0,5	2,934350
22,583500	0,5	3,012950
22,591833	0,5	3,085000
22,600167	0,5	3,153700
22,608500	0,5	3,210050
22,616833	0,5	3,262600
22,625167	0,5	3,302750
22,633500	0,5	3,365550
22,641833	0,5	3,408600
22,650167	0,5	3,463100
22,658500	0,5	3,497400
22,666833	0,5	3,542850
22,675167	0,5	3,572250
22,683500	0,5	3,605350
22,691833	0,5	3,623650
22,700167	0,5	3,628550
22,708500	0,5	3,612000
22,716833	0,5	3,579700
22,725167	0,5	3,561550
22,733500	0,5	3,557350
22,741833	0,5	3,518350
22,750167	0,5	3,459750
22,758500	0,5	3,385950
22,766833	0,5	3,296600
22,775167	0,5	3,220400
22,783500	0,5	3,130050
22,791833	0,5	3,041700
22,800167	0,5	2,931950
22,808500	0,5	2,831750
22,816833	0,5	2,724500
22,825167	0,5	2,615600
22,833500	0,5	2,495250
22,841833	0,5	2,368650
22,850167	0,5	2,236600
22,858500	0,5	2,060550
22,866833	0,5	1,926800
22,875167	0,5	1,779950
22,883500	0,5	1,639100
22,891833	0,5	1,478250
22,900167	0,5	1,310400
22,908500	0,5	1,150100
22,916833	0,5	0,992150
22,925167	0,5	0,825750
22,933500	0,5	0,666800
22,941833	0,5	0,525250
22,950167	0,5	0,374050
22,958500	0,5	0,233000
22,966833	0,5	0,092000
22,975167	0,5	-0,046700
22,983500	0,5	-0,183000
22,991833	0,5	-0,317450
23,000167	0,5	-0,440150
23,008500	0,5	-0,563250
23,016833	0,5	-0,694300
23,025167	0,5	-0,833000
23,033500	0,5	-0,971600
23,041833	0,5	-1,092550
23,050167	0,5	-1,185950
23,058500	0,5	-1,282450
23,066833	0,5	-1,373350
23,075167	0,5	-1,473350
23,083500	0,5	-1,542800
23,091833	0,5	-1,622550
23,100167	0,5	-1,681550
23,108500	0,5	-1,751250
23,116833	0,5	-1,808550
23,125167	0,5	-1,872800
23,133500	0,5	-1,919000
23,141833	0,5	-1,974100
23,150167	0,5	-1,998700
23,158500	0,5	-2,055950
23,166833	0,5	-2,103700
23,175167	0,5	-2,183350
23,183500	0,5	-2,237150
23,191833	0,5	-2,266000
23,200167	0,5	-2,291600
23,208500	0,5	-2,306000
23,216833	0,5	-2,320800
23,225167	0,5	-2,334700
23,233500	0,5	-2,350750
23,241833	0,5	-2,345900
23,250167	0,5	-2,349500
23,258500	0,5	-2,341250
23,266833	0,5	-2,345250
23,275167	0,5	-2,336800
23,283500	0,5	-2,337850
23,291833	0,5	-2,334350
23,300167	0,5	-2,324400
23,308500	0,5	-2,323050
23,316833	0,5	-2,307000
23,325167	0,5	-2,335950
23,333500	0,5	-2,350400
23,341833	0,5	-2,350850
23,350167	0,5	-2,332350
23,358500	0,5	-2,320450
23,366833	0,5	-2,300150
23,375167	0,5	-2,290800
23,383500	0,5	-2,269100
23,391833	0,5	-2,240500
23,400167	0,5	-2,213050
23,408500	0,5	-2,193150
23,416833	0,5	-2,161750
23,425167	0,5	-2,139150
23,433500	0,5	-2,106150
23,441833	0,5	-2,077700
23,450167	0,5	-2,094700
23,458500	0,5	-2,045500
23,466833	0,5	-2,004200
23,475167	0,5	-2,008850
23,483500	0,5	-2,003200
23,491833	0,5	-1,991550
23,500167	0,5	-1,963300
23,508500	0,5	-1,951250
23,516833	0,5	-1,933550
23,525167	0,5	-1,914600
23,533500	0,5	-1,895950
23,541833	0,5	-1,871850
23,550167	0,5	-1,846950
23,558500	0,5	-1,818700
23,566833	0,5	-1,795800
23,575167	0,5	-1,770450
23,583500	0,5	-1,744750
23,591833	0,5	-1,767650
23,600167	0,5	-1,750800
23,608500	0,5	-1,716550
23,616833	0,5	-1,648000
23,625167	0,5	-1,634600
23,633500	0,5	-1,620750
23,641833	0,5	-1,603800
23,650167	0,5	-1,588450
23,658500	0,5	-1,568000
23,666833	0,5	-1,553450
23,675167	0,5	-1,535750
23,683500	0,5	-1,520750
23,691833	0,5	-1,500100
23,700167	0,5	-1,479000
23,708500	0,5	-1,463900
23,716833	0,5	-1,447750
23,725167	0,5	-1,430600
23,733500	0,5	-1,421450
23,741833	0,5	-1,515800
23,750167	0,5	-1,472300
23,758500	0,5	-1,433800
23,766833	0,5	-1,373650
23,775167	0,5	-1,349650
23,783500	0,5	-1,337450
23,791833	0,5	-1,323500
23,800167	0,5	-1,315850
23,808500	0,5	-1,290950
23,816833	0,5	-1,275850
23,825167	0,5	-1,254550
23,833500	0,5	-1,234300
23,841833	0,5	-1,212950
23,850167	0,5	-1,191600
23,858500	0,5	-1,171050
23,866833	0,5	-1,152450
23,875167	0,5	-1,137850
23,883500	0,5	-1,158600
23,891833	0,5	-1,227650
23,900167	0,5	-1,184900
23,908500	0,5	-1,141550
23,916833	0,5	-1,089850
23,925167	0,5	-1,075400
23,933500	0,5	-1,065050
23,941833	0,5	-1,064350
23,950167	0,5	-1,062500
23,958500	0,5	-1,041500
23,966833	0,5	-1,022450
23,975167	0,5	-1,009450
23,983500	0,5	-0,992050
23,991833	0,5	-0,981800
24,000167	0,5	-0,954250
24,008500	0,5	-0,935350
24,016833	0,5	-0,917500
24,025167	0,5	-0,898700
24,033500	0,5	-0,991900
24,041833	0,5	-0,972050
24,050167	0,5	-0,940050
24,058500	0,5	-0,884550
24,066833	0,5	-0,841950
24,075167	0,5	-0,823800
24,083500	0,5	-0,812250
24,091833	0,5	-0,803950
24,100167	0,5	-0,801300
24,108500	0,5	-0,773750
24,116833	0,5	-0,763000
24,125167	0,5	-0,744650
24,133500	0,5	-0,731250
24,141833	0,5	-0,712700
24,150167	0,5	-0,696650
24,158500	0,5	-0,687100
24,166833	0,5	-0,674750
24,175167	0,5	-0,670150
24,183500	0,5	-0,764000
24,191833	0,5	-0,725350
24,200167	0,5	-0,696000
24,208500	0,5	-0,642450
24,216833	0,5	-0,613550
24,225167	0,5	-0,605250
24,233500	0,5	-0,588850
24,241833	0,5	-0,600250
24,250167	0,5	-0,579850
24,258500	0,5	-0,560600
24,266833	0,5	-0,534000
24,275167	0,5	-0,520100
24,283500	0,5	-0,498800
24,291833	0,5	-0,487400
24,300167	0,5	-0,461850
24,308500	0,5	-0,452450
24,316833	0,5	-0,436350
24,325167	0,5	-0,456800
24,333500	0,5	-0,504150
24,341833	0,5	-0,480850
24,350167	0,5	-0,446300
24,358500	0,5	-0,411400
24,366833	0,5	-0,392200
24,375167	0,5	-0,383100
24,383500	0,5	-0,383900
24,391833	0,5	-0,382750
24,400167	0,5	-0,376600
24,408500	0,5	-0,356500
24,416833	0,5	-0,345050
24,425167	0,5	-0,334650
24,433500	0,5	-0,319800
24,441833	0,5	-0,301950
24,450167	0,5	-0,287450
24,458500	0,5	-0,271300
24,466833	0,5	-0,262900
24,475167	0,5	-0,296850
24,483500	0,5	-0,298700
24,491833	0,5	-0,279400
24,500167	0,5	-0,251200
24,508500	0,5	-0,221100
24,516833	0,5	-0,208800
24,525167	0,5	-0,201300
24,533500	0,5	-0,209350
24,541833	0,5	-0,204300
24,550167	0,5	-0,194800
24,558500	0,5	-0,182200
24,566833	0,5	-0,173350
24,575167	0,5	-0,162000
24,583500	0,5	-0,159700
24,591833	0,5	-0,152150
24,600167	0,5	-0,137150
24,608500	0,5	-0,133950
24,616833	0,5	-0,123350
24,625167	0,5	-0,167000
24,633500	0,5	-0,144200
24,641833	0,5	-0,139100
24,650167	0,5	-0,106900
24,658500	0,5	-0,091700
24,666833	0,5	-0,082350
24,675167	0,5	-0,085300
24,683500	0,5	-0,085600
24,691833	0,5	-0,072150
24,700167	0,5	-0,058850
24,708500	0,5	-0,055850
24,716833	0,5	-0,047650
24,725167	0,5	-0,041750
24,733500	0,5	-0,031950
24,741833	0,5	-0,023700
24,750167	0,5	-0,019600
24,758500	0,5	-0,013500
24,766833	0,5	-0,029400
24,775167	0,5	-0,038850
24,783500	0,5	-0,032950
24,791833	0,5	-0,020700
24,800167	0,5	-0,003400
24,808500	0,5	0,006200
24,816833	0,5	0,007800
24,825167	0,5	0,011500
24,833500	0,5	0,003250
24,841833	0,5	0,013200
24,850167	0,5	0,017550
24,858500	0,5	0,027650
24,866833	0,5	0,033100
24,875167	0,5	0,039550
24,883500	0,5	0,042800
24,891833	0,5	0,052750
24,900167	0,5	0,061650
24,908500	0,5	0,060950
24,916833	0,5	0,051200
24,925167	0,5	0,048600
24,933500	0,5	0,057200
24,941833	0,5	0,067900
24,950167	0,5	0,076500
24,958500	0,5	0,079900
24,966833	0,5	0,083550
24,975167	0,5	0,079650
24,983500	0,5	0,078050
24,991833	0,5	0,082400
25,000167	0,5	0,084900
25,008500	0,5	0,084050
25,016833	0,5	0,086450
25,025167	0,5	0,088200
25,033500	0,5	0,096150
25,041833	0,5	0,099600
25,050167	0,5	0,105000
25,058500	0,5	0,109200
25,066833	0,5	0,097950
25,075167	0,5	0,109550
25,083500	0,5	0,110400
25,091833	0,5	0,122300
25,100167	0,5	0,126750
25,108500	0,5	0,130800
25,116833	0,5	0,128100
25,125167	0,5	0,127850
25,133500	0,5	0,129200
25,141833	0,5	0,131800
25,150167	0,5	0,133400
25,158500	0,5	0,133650
25,166833	0,5	0,134900
25,175167	0,5	0,136850
25,183500	0,5	0,136550
25,191833	0,5	0,140400
25,200167	0,5	0,138150
25,208500	0,5	0,140450
25,216833	0,5	0,136100
25,225167	0,5	0,140650
25,233500	0,5	0,142850
25,241833	0,5	0,147400
25,250167	0,5	0,151450
25,258500	0,5	0,156250
25,266833	0,5	0,147300
25,275167	0,5	0,147550
25,283500	0,5	0,151550
25,291833	0,5	0,154550
25,300167	0,5	0,157300
25,308500	0,5	0,157000
25,316833	0,5	0,160900
25,325167	0,5	0,161900
25,333500	0,5	0,163150
25,341833	0,5	0,163500
25,350167	0,5	0,164950
25,358500	0,5	0,160400
25,366833	0,5	0,161850
25,375167	0,5	0,159650
25,383500	0,5	0,161650
25,391833	0,5	0,158700
25,400167	0,5	0,161100
25,408500	0,5	0,159400
25,416833	0,5	0,160150
25,425167	0,5	0,161250
25,433500	0,5	0,159450
25,441833	0,5	0,159900
25,450167	0,5	0,161250
25,458500	0,5	0,162600
25,466833	0,5	0,165500
25,475167	0,5	0,164500
25,483500	0,5	0,167800
25,491833	0,5	0,166650
25,500167	0,5	0,168050
25,508500	0,5	0,170800
25,516833	0,5	0,171250
25,525167	0,5	0,175150
25,533500	0,5	0,169350
25,541833	0,5	0,170050
25,550167	0,5	0,170050
25,558500	0,5	0,166950
25,566833	0,5	0,166750
25,575167	0,5	0,165750
25,583500	0,5	0,165300
25,591833	0,5	0,165000
25,600167	0,5	0,164900
25,608500	0,5	0,165850
25,616833	0,5	0,163450
25,625167	0,5	0,166100
25,633500	0,5	0,167300
25,641833	0,5	0,168700
25,650167	0,5	0,170900
25,658500	0,5	0,172800
25,666833	0,5	0,169900
25,675167	0,5	0,174200
25,683500	0,5	0,168800
25,691833	0,5	0,169600
25,700167	0,5	0,169550
25,708500	0,5	0,169050
25,716833	0,5	0,170700
25,725167	0,5	0,172800
25,733500	0,5	0,167950
25,741833	0,5	0,167850
25,750167	0,5	0,168150
25,758500	0,5	0,167500
25,766833	0,5	0,165650
25,775167	0,5	0,162800
25,783500	0,5	0,162500
25,791833	0,5	0,163250
25,800167	0,5	0,167250
25,808500	0,5	0,162500
25,816833	0,5	0,165900
25,825167	0,5	0,166300
25,833500	0,5	0,163800
25,841833	0,5	0,161600
25,850167	0,5	0,163900
25,858500	0,5	0,165250
25,866833	0,5	0,172250
25,875167	0,5	0,164750
25,883500	0,5	0,168050
25,891833	0,5	0,166750
25,900167	0,5	0,167450
25,908500	0,5	0,163350
25,916833	0,5	0,165500
25,925167	0,5	0,161150
25,933500	0,5	0,161550
25,941833	0,5	0,163400
25,950167	0,5	0,164700
25,958500	0,5	0,162750
25,966833	0,5	0,168750
25,975167	0,5	0,162100
25,983500	0,5	0,161300
25,991833	0,5	0,160750
26,000167	0,5	0,162850
