File Path	chrom://chromeleon01/ikbm_chromeleon/2022/ICS-5000/ED1/Esteban/20220612_Cell_7_4_eg.seq/943.smp/ED_1.channel/ED_1.chm
Channel	ED_1

Injection Information:
Data Vault	ikbm_chromeleon
Injection	Std_C1ox-0.02_3
Injection Number	151
Position	RA1
Comment	
Processing Method	Stop sequence after Cell Death
Instrument Method	ICS5000_PA200_FullNative_Ox_26min_ED1
Type	Unknown
Status	Finished
Injection Date	15.06.2022
Injection Time	15:33:15
Injection Volume (µl)	5,0
Dilution Factor	1,0000
Weight	1,0000

Chromatogram Data Information:
Time Min. (min)	0,000167
Time Max. (min)	26,000167
Data Points	3121
Detector	EDet1
Generating Data System	Chromeleon 7.2.9.11323
Exporting Data System	Chromeleon 7.2.9.0
Operator	Instrument Controller
Signal Quantity	
Signal Unit	nC
Signal Min.	-2,203800
Signal Max.	137,571952
Channel	ED_1
Driver Name	DC-5000
Channel Type	Evaluation
Min. Step (s)	0,5
Max. Step (s)	0,5
Average Step (s)	0,5

Signal Parameter Information:
Signal Info	

Chromatogram Data:
Time (min)	Step (s)	Value (nC)
0,000167	n.a.	-0,010650
0,008500	0,5	-0,050050
0,016833	0,5	-0,036400
0,025167	0,5	-0,021600
0,033500	0,5	0,002800
0,041833	0,5	0,008150
0,050167	0,5	0,015100
0,058500	0,5	0,008500
0,066833	0,5	0,007050
0,075167	0,5	0,005750
0,083500	0,5	0,019500
0,091833	0,5	0,000100
0,100167	0,5	0,006450
0,108500	0,5	0,024000
0,116833	0,5	-0,002750
0,125167	0,5	-0,016200
0,133500	0,5	-0,001950
0,141833	0,5	0,011500
0,150167	0,5	0,049550
0,158500	0,5	0,029100
0,166833	0,5	0,027700
0,175167	0,5	0,027950
0,183500	0,5	0,029100
0,191833	0,5	0,024500
0,200167	0,5	0,027850
0,208500	0,5	0,028050
0,216833	0,5	0,018900
0,225167	0,5	0,028000
0,233500	0,5	0,031250
0,241833	0,5	0,033550
0,250167	0,5	0,032650
0,258500	0,5	0,042950
0,266833	0,5	0,013550
0,275167	0,5	0,015850
0,283500	0,5	0,021900
0,291833	0,5	0,047650
0,300167	0,5	0,072050
0,308500	0,5	0,065850
0,316833	0,5	0,055400
0,325167	0,5	0,053450
0,333500	0,5	0,048200
0,341833	0,5	0,055800
0,350167	0,5	0,052800
0,358500	0,5	0,054050
0,366833	0,5	0,056000
0,375167	0,5	0,058800
0,383500	0,5	0,066450
0,391833	0,5	0,044850
0,400167	0,5	0,072050
0,408500	0,5	0,066450
0,416833	0,5	0,054150
0,425167	0,5	0,053900
0,433500	0,5	0,071500
0,441833	0,5	0,097200
0,450167	0,5	0,117500
0,458500	0,5	0,105900
0,466833	0,5	0,114550
0,475167	0,5	0,111200
0,483500	0,5	0,117100
0,491833	0,5	0,112950
0,500167	0,5	0,119800
0,508500	0,5	0,112650
0,516833	0,5	0,122000
0,525167	0,5	0,127200
0,533500	0,5	0,117000
0,541833	0,5	0,118700
0,550167	0,5	0,140000
0,558500	0,5	0,126800
0,566833	0,5	0,125700
0,575167	0,5	0,133550
0,583500	0,5	0,154500
0,591833	0,5	0,185650
0,600167	0,5	0,190850
0,608500	0,5	0,194150
0,616833	0,5	0,188450
0,625167	0,5	0,199850
0,633500	0,5	0,189450
0,641833	0,5	0,204500
0,650167	0,5	0,199350
0,658500	0,5	0,202750
0,666833	0,5	0,205050
0,675167	0,5	0,209300
0,683500	0,5	0,209400
0,691833	0,5	0,224550
0,700167	0,5	0,225750
0,708500	0,5	0,216100
0,716833	0,5	0,216250
0,725167	0,5	0,220300
0,733500	0,5	0,241900
0,741833	0,5	0,268150
0,750167	0,5	0,282650
0,758500	0,5	0,276800
0,766833	0,5	0,285650
0,775167	0,5	0,284300
0,783500	0,5	0,288050
0,791833	0,5	0,279050
0,800167	0,5	0,283900
0,808500	0,5	0,282000
0,816833	0,5	0,292550
0,825167	0,5	0,296400
0,833500	0,5	0,295400
0,841833	0,5	0,310200
0,850167	0,5	0,307500
0,858500	0,5	0,290900
0,866833	0,5	0,294100
0,875167	0,5	0,299800
0,883500	0,5	0,335100
0,891833	0,5	0,343450
0,900167	0,5	0,334700
0,908500	0,5	0,338000
0,916833	0,5	0,341100
0,925167	0,5	0,345550
0,933500	0,5	0,344400
0,941833	0,5	0,349450
0,950167	0,5	0,342500
0,958500	0,5	0,349350
0,966833	0,5	0,349150
0,975167	0,5	0,365400
0,983500	0,5	0,342250
0,991833	0,5	0,382700
1,000167	0,5	0,353100
1,008500	0,5	0,351400
1,016833	0,5	0,350950
1,025167	0,5	0,362500
1,033500	0,5	0,390750
1,041833	0,5	0,390750
1,050167	0,5	0,389000
1,058500	0,5	0,396550
1,066833	0,5	0,398750
1,075167	0,5	0,400000
1,083500	0,5	0,398350
1,091833	0,5	0,399850
1,100167	0,5	0,399150
1,108500	0,5	0,400450
1,116833	0,5	0,403900
1,125167	0,5	0,393400
1,133500	0,5	0,391800
1,141833	0,5	0,416800
1,150167	0,5	0,396200
1,158500	0,5	0,392700
1,166833	0,5	0,404700
1,175167	0,5	0,418850
1,183500	0,5	0,460750
1,191833	0,5	0,440850
1,200167	0,5	0,445700
1,208500	0,5	0,442150
1,216833	0,5	0,449050
1,225167	0,5	0,445300
1,233500	0,5	0,445200
1,241833	0,5	0,445300
1,250167	0,5	0,447450
1,258500	0,5	0,453450
1,266833	0,5	0,456300
1,275167	0,5	0,450700
1,283500	0,5	0,452250
1,291833	0,5	0,465500
1,300167	0,5	0,442650
1,308500	0,5	0,448600
1,316833	0,5	0,453950
1,325167	0,5	0,477150
1,333500	0,5	0,493250
1,341833	0,5	0,489350
1,350167	0,5	0,481650
1,358500	0,5	0,489800
1,366833	0,5	0,490100
1,375167	0,5	0,495600
1,383500	0,5	0,486550
1,391833	0,5	0,489050
1,400167	0,5	0,487050
1,408500	0,5	0,499200
1,416833	0,5	0,499350
1,425167	0,5	0,487400
1,433500	0,5	0,498700
1,441833	0,5	0,492900
1,450167	0,5	0,470650
1,458500	0,5	0,471300
1,466833	0,5	0,484500
1,475167	0,5	0,507500
1,483500	0,5	0,526750
1,491833	0,5	0,509400
1,500167	0,5	0,519650
1,508500	0,5	0,509050
1,516833	0,5	0,507850
1,525167	0,5	0,496950
1,533500	0,5	0,499200
1,541833	0,5	0,491000
1,550167	0,5	0,486500
1,558500	0,5	0,443400
1,566833	0,5	0,281200
1,575167	0,5	-0,137500
1,583500	0,5	-0,810900
1,591833	0,5	-1,375500
1,600167	0,5	-1,103850
1,608500	0,5	0,605450
1,616833	0,5	4,377000
1,625167	0,5	10,383350
1,633500	0,5	16,846700
1,641833	0,5	20,598750
1,650167	0,5	20,080300
1,658500	0,5	16,672400
1,666833	0,5	12,704000
1,675167	0,5	9,554750
1,683500	0,5	7,426150
1,691833	0,5	6,144050
1,700167	0,5	5,443450
1,708500	0,5	5,179200
1,716833	0,5	5,121850
1,725167	0,5	5,062200
1,733500	0,5	4,818250
1,741833	0,5	4,438150
1,750167	0,5	4,062450
1,758500	0,5	3,763600
1,766833	0,5	3,704850
1,775167	0,5	3,531550
1,783500	0,5	3,496550
1,791833	0,5	3,640300
1,800167	0,5	3,932800
1,808500	0,5	4,262500
1,816833	0,5	4,508750
1,825167	0,5	4,616150
1,833500	0,5	4,599250
1,841833	0,5	4,481500
1,850167	0,5	4,318850
1,858500	0,5	4,116600
1,866833	0,5	3,921200
1,875167	0,5	3,775700
1,883500	0,5	3,644450
1,891833	0,5	3,524550
1,900167	0,5	3,412600
1,908500	0,5	3,284100
1,916833	0,5	3,182100
1,925167	0,5	3,068250
1,933500	0,5	2,979750
1,941833	0,5	2,917300
1,950167	0,5	2,897100
1,958500	0,5	2,889900
1,966833	0,5	2,890150
1,975167	0,5	2,895000
1,983500	0,5	2,868350
1,991833	0,5	2,791100
2,000167	0,5	2,665850
2,008500	0,5	2,558600
2,016833	0,5	2,471150
2,025167	0,5	2,475100
2,033500	0,5	2,494450
2,041833	0,5	2,642800
2,050167	0,5	2,996100
2,058500	0,5	3,651250
2,066833	0,5	4,500500
2,075167	0,5	5,119800
2,083500	0,5	5,183750
2,091833	0,5	4,882400
2,100167	0,5	4,702400
2,108500	0,5	5,182200
2,116833	0,5	6,819800
2,125167	0,5	10,728500
2,133500	0,5	18,807000
2,141833	0,5	31,607400
2,150167	0,5	44,591951
2,158500	0,5	50,274901
2,166833	0,5	46,179901
2,175167	0,5	36,641351
2,183500	0,5	26,935700
2,191833	0,5	19,732100
2,200167	0,5	15,251800
2,208500	0,5	13,024850
2,216833	0,5	12,633500
2,225167	0,5	13,380750
2,233500	0,5	14,216300
2,241833	0,5	14,054350
2,250167	0,5	12,800550
2,258500	0,5	11,092200
2,266833	0,5	9,585000
2,275167	0,5	8,486800
2,283500	0,5	7,774350
2,291833	0,5	7,338250
2,300167	0,5	7,088050
2,308500	0,5	6,935950
2,316833	0,5	6,853800
2,325167	0,5	6,809650
2,333500	0,5	6,776400
2,341833	0,5	6,778750
2,350167	0,5	6,791150
2,358500	0,5	6,803200
2,366833	0,5	6,804200
2,375167	0,5	6,792450
2,383500	0,5	6,780650
2,391833	0,5	6,790400
2,400167	0,5	6,785050
2,408500	0,5	6,788100
2,416833	0,5	6,788250
2,425167	0,5	6,791200
2,433500	0,5	6,787550
2,441833	0,5	6,793350
2,450167	0,5	6,794600
2,458500	0,5	6,800750
2,466833	0,5	6,806800
2,475167	0,5	6,810100
2,483500	0,5	6,797550
2,491833	0,5	6,801750
2,500167	0,5	6,812900
2,508500	0,5	6,830800
2,516833	0,5	6,843750
2,525167	0,5	6,826400
2,533500	0,5	6,816400
2,541833	0,5	6,799850
2,550167	0,5	6,781400
2,558500	0,5	6,760100
2,566833	0,5	6,737250
2,575167	0,5	6,702400
2,583500	0,5	6,666100
2,591833	0,5	6,610300
2,600167	0,5	6,561100
2,608500	0,5	6,530150
2,616833	0,5	6,530950
2,625167	0,5	6,498500
2,633500	0,5	6,462800
2,641833	0,5	6,428100
2,650167	0,5	6,400100
2,658500	0,5	6,375850
2,666833	0,5	6,333300
2,675167	0,5	6,277850
2,683500	0,5	6,223350
2,691833	0,5	6,165100
2,700167	0,5	6,101950
2,708500	0,5	6,033700
2,716833	0,5	5,962000
2,725167	0,5	5,891400
2,733500	0,5	5,812600
2,741833	0,5	5,736600
2,750167	0,5	5,641450
2,758500	0,5	5,569700
2,766833	0,5	5,499450
2,775167	0,5	5,408850
2,783500	0,5	5,329000
2,791833	0,5	5,262850
2,800167	0,5	5,199300
2,808500	0,5	5,149250
2,816833	0,5	5,070350
2,825167	0,5	5,006550
2,833500	0,5	4,937800
2,841833	0,5	4,888250
2,850167	0,5	4,844050
2,858500	0,5	4,845050
2,866833	0,5	4,887500
2,875167	0,5	4,979150
2,883500	0,5	5,107500
2,891833	0,5	5,210600
2,900167	0,5	5,273550
2,908500	0,5	5,318150
2,916833	0,5	5,338050
2,925167	0,5	5,422150
2,933500	0,5	5,700400
2,941833	0,5	6,317300
2,950167	0,5	7,487250
2,958500	0,5	9,280000
2,966833	0,5	11,647100
2,975167	0,5	14,146150
2,983500	0,5	16,093600
2,991833	0,5	16,784600
3,000167	0,5	16,008300
3,008500	0,5	14,051350
3,016833	0,5	11,574450
3,025167	0,5	9,191450
3,033500	0,5	7,274150
3,041833	0,5	5,898650
3,050167	0,5	4,964350
3,058500	0,5	4,388550
3,066833	0,5	3,987150
3,075167	0,5	3,724600
3,083500	0,5	3,551750
3,091833	0,5	3,432800
3,100167	0,5	3,346500
3,108500	0,5	3,245300
3,116833	0,5	3,119350
3,125167	0,5	3,013450
3,133500	0,5	2,894700
3,141833	0,5	2,793000
3,150167	0,5	2,691100
3,158500	0,5	2,608950
3,166833	0,5	2,525250
3,175167	0,5	2,459500
3,183500	0,5	2,394700
3,191833	0,5	2,325700
3,200167	0,5	2,251500
3,208500	0,5	2,219250
3,216833	0,5	2,135200
3,225167	0,5	2,079500
3,233500	0,5	2,028150
3,241833	0,5	1,997200
3,250167	0,5	1,983100
3,258500	0,5	1,934150
3,266833	0,5	1,906250
3,275167	0,5	1,866850
3,283500	0,5	1,837150
3,291833	0,5	1,793850
3,300167	0,5	1,754150
3,308500	0,5	1,704850
3,316833	0,5	1,662100
3,325167	0,5	1,615900
3,333500	0,5	1,580700
3,341833	0,5	1,540450
3,350167	0,5	1,526350
3,358500	0,5	1,522650
3,366833	0,5	1,503650
3,375167	0,5	1,502200
3,383500	0,5	1,518300
3,391833	0,5	1,553700
3,400167	0,5	1,616300
3,408500	0,5	1,688300
3,416833	0,5	1,819350
3,425167	0,5	2,042400
3,433500	0,5	2,351450
3,441833	0,5	2,724600
3,450167	0,5	3,083700
3,458500	0,5	3,342900
3,466833	0,5	3,426750
3,475167	0,5	3,321850
3,483500	0,5	3,044150
3,491833	0,5	2,686650
3,500167	0,5	2,326450
3,508500	0,5	2,005250
3,516833	0,5	1,723650
3,525167	0,5	1,532750
3,533500	0,5	1,385400
3,541833	0,5	1,301500
3,550167	0,5	1,242150
3,558500	0,5	1,182700
3,566833	0,5	1,133000
3,575167	0,5	1,100050
3,583500	0,5	1,068850
3,591833	0,5	1,045100
3,600167	0,5	1,022100
3,608500	0,5	1,003300
3,616833	0,5	0,991750
3,625167	0,5	0,976300
3,633500	0,5	0,967650
3,641833	0,5	0,950800
3,650167	0,5	0,954750
3,658500	0,5	0,929950
3,666833	0,5	0,909450
3,675167	0,5	0,903300
3,683500	0,5	0,906750
3,691833	0,5	0,915200
3,700167	0,5	0,910350
3,708500	0,5	0,893200
3,716833	0,5	0,891550
3,725167	0,5	0,876200
3,733500	0,5	0,870650
3,741833	0,5	0,855600
3,750167	0,5	0,852250
3,758500	0,5	0,839200
3,766833	0,5	0,831050
3,775167	0,5	0,825850
3,783500	0,5	0,805100
3,791833	0,5	0,804000
3,800167	0,5	0,808800
3,808500	0,5	0,791200
3,816833	0,5	0,778450
3,825167	0,5	0,784500
3,833500	0,5	0,799850
3,841833	0,5	0,824200
3,850167	0,5	0,832100
3,858500	0,5	0,851350
3,866833	0,5	0,863450
3,875167	0,5	0,882250
3,883500	0,5	0,879200
3,891833	0,5	0,878250
3,900167	0,5	0,858950
3,908500	0,5	0,842350
3,916833	0,5	0,819850
3,925167	0,5	0,797450
3,933500	0,5	0,764350
3,941833	0,5	0,762500
3,950167	0,5	0,739150
3,958500	0,5	0,717850
3,966833	0,5	0,701850
3,975167	0,5	0,701050
3,983500	0,5	0,716450
3,991833	0,5	0,715400
4,000167	0,5	0,713550
4,008500	0,5	0,705450
4,016833	0,5	0,714650
4,025167	0,5	0,712000
4,033500	0,5	0,722500
4,041833	0,5	0,727450
4,050167	0,5	0,748350
4,058500	0,5	0,771050
4,066833	0,5	0,810000
4,075167	0,5	0,868300
4,083500	0,5	0,927400
4,091833	0,5	1,021450
4,100167	0,5	1,095650
4,108500	0,5	1,163100
4,116833	0,5	1,228300
4,125167	0,5	1,267450
4,133500	0,5	1,289900
4,141833	0,5	1,256100
4,150167	0,5	1,190300
4,158500	0,5	1,119100
4,166833	0,5	1,039800
4,175167	0,5	0,966600
4,183500	0,5	0,895550
4,191833	0,5	0,844500
4,200167	0,5	0,797400
4,208500	0,5	0,768050
4,216833	0,5	0,747750
4,225167	0,5	0,736150
4,233500	0,5	0,712150
4,241833	0,5	0,722650
4,250167	0,5	0,689750
4,258500	0,5	0,678700
4,266833	0,5	0,670350
4,275167	0,5	0,677000
4,283500	0,5	0,690400
4,291833	0,5	0,682600
4,300167	0,5	0,677800
4,308500	0,5	0,674000
4,316833	0,5	0,671450
4,325167	0,5	0,665300
4,333500	0,5	0,661150
4,341833	0,5	0,658900
4,350167	0,5	0,659550
4,358500	0,5	0,658600
4,366833	0,5	0,664650
4,375167	0,5	0,652950
4,383500	0,5	0,661600
4,391833	0,5	0,674250
4,400167	0,5	0,668100
4,408500	0,5	0,676150
4,416833	0,5	0,696500
4,425167	0,5	0,726000
4,433500	0,5	0,760100
4,441833	0,5	0,770100
4,450167	0,5	0,783700
4,458500	0,5	0,783950
4,466833	0,5	0,788600
4,475167	0,5	0,781950
4,483500	0,5	0,772650
4,491833	0,5	0,752800
4,500167	0,5	0,736200
4,508500	0,5	0,724150
4,516833	0,5	0,705000
4,525167	0,5	0,695500
4,533500	0,5	0,698900
4,541833	0,5	0,691350
4,550167	0,5	0,674750
4,558500	0,5	0,679750
4,566833	0,5	0,688100
4,575167	0,5	0,719750
4,583500	0,5	0,741150
4,591833	0,5	0,764950
4,600167	0,5	0,777900
4,608500	0,5	0,806050
4,616833	0,5	0,830500
4,625167	0,5	0,870850
4,633500	0,5	0,910800
4,641833	0,5	0,970750
4,650167	0,5	1,041300
4,658500	0,5	1,130350
4,666833	0,5	1,240150
4,675167	0,5	1,374750
4,683500	0,5	1,541700
4,691833	0,5	1,709050
4,700167	0,5	1,906150
4,708500	0,5	2,147100
4,716833	0,5	2,421200
4,725167	0,5	2,742850
4,733500	0,5	3,089000
4,741833	0,5	3,447500
4,750167	0,5	3,840000
4,758500	0,5	4,229600
4,766833	0,5	4,601400
4,775167	0,5	4,904100
4,783500	0,5	5,123250
4,791833	0,5	5,218100
4,800167	0,5	5,185550
4,808500	0,5	5,017650
4,816833	0,5	4,723850
4,825167	0,5	4,351200
4,833500	0,5	3,939950
4,841833	0,5	3,480400
4,850167	0,5	3,046050
4,858500	0,5	2,667550
4,866833	0,5	2,352400
4,875167	0,5	2,110100
4,883500	0,5	1,906400
4,891833	0,5	1,777450
4,900167	0,5	1,697150
4,908500	0,5	1,670000
4,916833	0,5	1,687100
4,925167	0,5	1,759250
4,933500	0,5	1,876300
4,941833	0,5	2,063800
4,950167	0,5	2,319850
4,958500	0,5	2,666050
4,966833	0,5	3,077450
4,975167	0,5	3,606100
4,983500	0,5	4,187050
4,991833	0,5	4,807500
5,000167	0,5	5,431800
5,008500	0,5	6,027150
5,016833	0,5	6,538000
5,025167	0,5	6,894250
5,033500	0,5	7,057050
5,041833	0,5	7,029600
5,050167	0,5	6,812800
5,058500	0,5	6,428200
5,066833	0,5	5,911950
5,075167	0,5	5,305300
5,083500	0,5	4,673000
5,091833	0,5	4,039850
5,100167	0,5	3,461300
5,108500	0,5	2,945050
5,116833	0,5	2,495200
5,125167	0,5	2,148700
5,133500	0,5	1,856700
5,141833	0,5	1,627950
5,150167	0,5	1,467050
5,158500	0,5	1,351500
5,166833	0,5	1,286000
5,175167	0,5	1,219550
5,183500	0,5	1,170300
5,191833	0,5	1,137750
5,200167	0,5	1,121100
5,208500	0,5	1,101150
5,216833	0,5	1,095750
5,225167	0,5	1,085250
5,233500	0,5	1,074700
5,241833	0,5	1,073200
5,250167	0,5	1,066850
5,258500	0,5	1,067650
5,266833	0,5	1,055500
5,275167	0,5	1,064350
5,283500	0,5	1,043650
5,291833	0,5	1,036250
5,300167	0,5	1,025800
5,308500	0,5	1,029150
5,316833	0,5	1,038450
5,325167	0,5	1,034450
5,333500	0,5	1,018250
5,341833	0,5	1,014100
5,350167	0,5	0,999450
5,358500	0,5	0,994550
5,366833	0,5	0,984500
5,375167	0,5	0,983550
5,383500	0,5	0,979650
5,391833	0,5	0,977000
5,400167	0,5	0,977000
5,408500	0,5	0,964500
5,416833	0,5	0,964500
5,425167	0,5	0,978250
5,433500	0,5	0,964350
5,441833	0,5	0,966400
5,450167	0,5	0,973950
5,458500	0,5	0,987950
5,466833	0,5	1,011900
5,475167	0,5	1,009000
5,483500	0,5	1,015950
5,491833	0,5	1,013800
5,500167	0,5	1,026200
5,508500	0,5	1,026350
5,516833	0,5	1,036000
5,525167	0,5	1,035150
5,533500	0,5	1,041700
5,541833	0,5	1,048500
5,550167	0,5	1,041800
5,558500	0,5	1,040750
5,566833	0,5	1,062850
5,575167	0,5	1,070000
5,583500	0,5	1,072450
5,591833	0,5	1,087250
5,600167	0,5	1,102000
5,608500	0,5	1,140100
5,616833	0,5	1,167500
5,625167	0,5	1,194500
5,633500	0,5	1,216700
5,641833	0,5	1,259050
5,650167	0,5	1,301450
5,658500	0,5	1,364200
5,666833	0,5	1,436300
5,675167	0,5	1,527150
5,683500	0,5	1,630950
5,691833	0,5	1,751750
5,700167	0,5	1,866350
5,708500	0,5	1,986850
5,716833	0,5	2,102900
5,725167	0,5	2,180650
5,733500	0,5	2,219800
5,741833	0,5	2,238300
5,750167	0,5	2,218300
5,758500	0,5	2,180700
5,766833	0,5	2,100400
5,775167	0,5	1,990150
5,783500	0,5	1,880850
5,791833	0,5	1,769900
5,800167	0,5	1,664300
5,808500	0,5	1,571050
5,816833	0,5	1,494150
5,825167	0,5	1,425000
5,833500	0,5	1,374150
5,841833	0,5	1,332200
5,850167	0,5	1,298250
5,858500	0,5	1,268850
5,866833	0,5	1,270000
5,875167	0,5	1,242500
5,883500	0,5	1,229250
5,891833	0,5	1,226950
5,900167	0,5	1,233150
5,908500	0,5	1,245150
5,916833	0,5	1,238400
5,925167	0,5	1,234150
5,933500	0,5	1,239500
5,941833	0,5	1,239150
5,950167	0,5	1,240400
5,958500	0,5	1,240200
5,966833	0,5	1,237800
5,975167	0,5	1,244350
5,983500	0,5	1,242450
5,991833	0,5	1,249200
6,000167	0,5	1,237650
6,008500	0,5	1,249550
6,016833	0,5	1,257550
6,025167	0,5	1,256900
6,033500	0,5	1,258400
6,041833	0,5	1,267400
6,050167	0,5	1,289450
6,058500	0,5	1,308750
6,066833	0,5	1,305750
6,075167	0,5	1,313200
6,083500	0,5	1,317750
6,091833	0,5	1,324650
6,100167	0,5	1,323050
6,108500	0,5	1,320700
6,116833	0,5	1,316300
6,125167	0,5	1,312650
6,133500	0,5	1,314500
6,141833	0,5	1,300400
6,150167	0,5	1,286850
6,158500	0,5	1,293350
6,166833	0,5	1,288850
6,175167	0,5	1,286500
6,183500	0,5	1,287150
6,191833	0,5	1,295400
6,200167	0,5	1,315100
6,208500	0,5	1,324300
6,216833	0,5	1,324200
6,225167	0,5	1,327400
6,233500	0,5	1,333050
6,241833	0,5	1,328100
6,250167	0,5	1,337850
6,258500	0,5	1,335900
6,266833	0,5	1,337250
6,275167	0,5	1,340300
6,283500	0,5	1,341350
6,291833	0,5	1,337900
6,300167	0,5	1,334650
6,308500	0,5	1,344750
6,316833	0,5	1,342900
6,325167	0,5	1,339400
6,333500	0,5	1,339900
6,341833	0,5	1,351700
6,350167	0,5	1,368250
6,358500	0,5	1,376000
6,366833	0,5	1,372150
6,375167	0,5	1,379800
6,383500	0,5	1,374850
6,391833	0,5	1,379100
6,400167	0,5	1,373800
6,408500	0,5	1,375450
6,416833	0,5	1,373600
6,425167	0,5	1,377200
6,433500	0,5	1,376500
6,441833	0,5	1,376650
6,450167	0,5	1,375050
6,458500	0,5	1,384400
6,466833	0,5	1,376050
6,475167	0,5	1,378750
6,483500	0,5	1,381050
6,491833	0,5	1,394950
6,500167	0,5	1,409600
6,508500	0,5	1,413350
6,516833	0,5	1,412600
6,525167	0,5	1,410750
6,533500	0,5	1,415750
6,541833	0,5	1,417350
6,550167	0,5	1,422950
6,558500	0,5	1,419100
6,566833	0,5	1,421000
6,575167	0,5	1,419850
6,583500	0,5	1,417650
6,591833	0,5	1,411150
6,600167	0,5	1,424750
6,608500	0,5	1,426800
6,616833	0,5	1,423700
6,625167	0,5	1,423650
6,633500	0,5	1,432000
6,641833	0,5	1,447050
6,650167	0,5	1,455000
6,658500	0,5	1,459100
6,666833	0,5	1,463550
6,675167	0,5	1,465450
6,683500	0,5	1,463500
6,691833	0,5	1,464900
6,700167	0,5	1,461600
6,708500	0,5	1,461700
6,716833	0,5	1,463700
6,725167	0,5	1,467400
6,733500	0,5	1,460850
6,741833	0,5	1,462400
6,750167	0,5	1,472750
6,758500	0,5	1,472750
6,766833	0,5	1,464650
6,775167	0,5	1,467650
6,783500	0,5	1,467750
6,791833	0,5	1,484450
6,800167	0,5	1,481550
6,808500	0,5	1,478400
6,816833	0,5	1,475450
6,825167	0,5	1,471850
6,833500	0,5	1,469000
6,841833	0,5	1,466050
6,850167	0,5	1,463300
6,858500	0,5	1,457700
6,866833	0,5	1,456850
6,875167	0,5	1,451400
6,883500	0,5	1,443800
6,891833	0,5	1,440500
6,900167	0,5	1,448250
6,908500	0,5	1,435900
6,916833	0,5	1,426650
6,925167	0,5	1,425600
6,933500	0,5	1,429850
6,941833	0,5	1,438700
6,950167	0,5	1,434500
6,958500	0,5	1,425000
6,966833	0,5	1,427750
6,975167	0,5	1,425650
6,983500	0,5	1,427500
6,991833	0,5	1,422350
7,000167	0,5	1,418350
7,008500	0,5	1,413550
7,016833	0,5	1,412150
7,025167	0,5	1,408300
7,033500	0,5	1,399550
7,041833	0,5	1,395400
7,050167	0,5	1,398600
7,058500	0,5	1,391350
7,066833	0,5	1,389550
7,075167	0,5	1,392150
7,083500	0,5	1,402900
7,091833	0,5	1,413800
7,100167	0,5	1,411950
7,108500	0,5	1,413400
7,116833	0,5	1,409850
7,125167	0,5	1,412950
7,133500	0,5	1,406200
7,141833	0,5	1,403900
7,150167	0,5	1,397000
7,158500	0,5	1,395850
7,166833	0,5	1,392450
7,175167	0,5	1,386400
7,183500	0,5	1,379950
7,191833	0,5	1,382500
7,200167	0,5	1,381950
7,208500	0,5	1,381900
7,216833	0,5	1,381150
7,225167	0,5	1,391600
7,233500	0,5	1,406550
7,241833	0,5	1,414900
7,250167	0,5	1,416400
7,258500	0,5	1,414550
7,266833	0,5	1,413950
7,275167	0,5	1,412900
7,283500	0,5	1,413750
7,291833	0,5	1,416850
7,300167	0,5	1,438250
7,308500	0,5	1,477700
7,316833	0,5	1,541950
7,325167	0,5	1,618050
7,333500	0,5	1,693650
7,341833	0,5	1,748350
7,350167	0,5	1,755600
7,358500	0,5	1,716850
7,366833	0,5	1,651350
7,375167	0,5	1,570750
7,383500	0,5	1,501150
7,391833	0,5	1,438600
7,400167	0,5	1,383750
7,408500	0,5	1,343700
7,416833	0,5	1,316400
7,425167	0,5	1,296600
7,433500	0,5	1,284450
7,441833	0,5	1,275600
7,450167	0,5	1,268050
7,458500	0,5	1,268700
7,466833	0,5	1,267900
7,475167	0,5	1,269900
7,483500	0,5	1,265100
7,491833	0,5	1,267800
7,500167	0,5	1,260450
7,508500	0,5	1,252450
7,516833	0,5	1,245450
7,525167	0,5	1,245000
7,533500	0,5	1,245200
7,541833	0,5	1,244000
7,550167	0,5	1,236700
7,558500	0,5	1,232550
7,566833	0,5	1,230550
7,575167	0,5	1,237250
7,583500	0,5	1,253450
7,591833	0,5	1,267350
7,600167	0,5	1,283000
7,608500	0,5	1,286900
7,616833	0,5	1,274900
7,625167	0,5	1,249500
7,633500	0,5	1,230150
7,641833	0,5	1,217250
7,650167	0,5	1,224800
7,658500	0,5	1,280100
7,666833	0,5	1,427400
7,675167	0,5	1,719250
7,683500	0,5	2,180950
7,691833	0,5	2,804950
7,700167	0,5	3,545250
7,708500	0,5	4,347000
7,716833	0,5	5,174550
7,725167	0,5	6,035350
7,733500	0,5	7,024950
7,741833	0,5	8,358450
7,750167	0,5	10,510650
7,758500	0,5	14,452150
7,766833	0,5	21,806900
7,775167	0,5	34,439501
7,783500	0,5	52,951801
7,791833	0,5	74,538101
7,800167	0,5	93,194251
7,808500	0,5	102,647052
7,816833	0,5	99,982201
7,825167	0,5	87,127501
7,833500	0,5	68,902601
7,841833	0,5	50,377251
7,850167	0,5	34,797851
7,858500	0,5	23,302150
7,866833	0,5	15,576200
7,875167	0,5	10,706250
7,883500	0,5	7,727850
7,891833	0,5	5,916900
7,900167	0,5	4,789150
7,908500	0,5	4,060900
7,916833	0,5	3,567450
7,925167	0,5	3,213850
7,933500	0,5	2,959350
7,941833	0,5	2,753550
7,950167	0,5	2,587850
7,958500	0,5	2,457200
7,966833	0,5	2,353600
7,975167	0,5	2,279150
7,983500	0,5	2,208050
7,991833	0,5	2,152550
8,000167	0,5	2,117050
8,008500	0,5	2,085750
8,016833	0,5	2,067150
8,025167	0,5	2,043250
8,033500	0,5	2,008400
8,041833	0,5	1,958250
8,050167	0,5	1,899000
8,058500	0,5	1,837400
8,066833	0,5	1,774600
8,075167	0,5	1,716900
8,083500	0,5	1,675050
8,091833	0,5	1,630050
8,100167	0,5	1,594000
8,108500	0,5	1,560900
8,116833	0,5	1,538000
8,125167	0,5	1,521100
8,133500	0,5	1,498300
8,141833	0,5	1,479450
8,150167	0,5	1,460300
8,158500	0,5	1,440500
8,166833	0,5	1,423350
8,175167	0,5	1,409200
8,183500	0,5	1,392150
8,191833	0,5	1,377300
8,200167	0,5	1,361500
8,208500	0,5	1,352700
8,216833	0,5	1,342050
8,225167	0,5	1,338650
8,233500	0,5	1,335000
8,241833	0,5	1,326550
8,250167	0,5	1,316650
8,258500	0,5	1,306300
8,266833	0,5	1,295100
8,275167	0,5	1,284100
8,283500	0,5	1,274400
8,291833	0,5	1,265800
8,300167	0,5	1,254550
8,308500	0,5	1,245150
8,316833	0,5	1,239500
8,325167	0,5	1,228300
8,333500	0,5	1,221700
8,341833	0,5	1,215900
8,350167	0,5	1,207050
8,358500	0,5	1,201400
8,366833	0,5	1,192150
8,375167	0,5	1,188550
8,383500	0,5	1,182250
8,391833	0,5	1,174950
8,400167	0,5	1,172700
8,408500	0,5	1,184850
8,416833	0,5	1,225700
8,425167	0,5	1,337700
8,433500	0,5	1,584300
8,441833	0,5	2,093750
8,450167	0,5	2,966450
8,458500	0,5	4,203450
8,466833	0,5	5,654800
8,475167	0,5	7,108350
8,483500	0,5	8,456400
8,491833	0,5	9,753100
8,500167	0,5	11,260400
8,508500	0,5	13,607450
8,516833	0,5	18,166900
8,525167	0,5	27,514000
8,533500	0,5	44,897451
8,541833	0,5	71,500651
8,550167	0,5	102,590752
8,558500	0,5	127,897802
8,566833	0,5	137,571952
8,575167	0,5	128,542252
8,583500	0,5	105,661952
8,591833	0,5	77,846351
8,600167	0,5	52,605301
8,608500	0,5	33,673751
8,616833	0,5	21,292000
8,625167	0,5	13,884650
8,633500	0,5	9,640850
8,641833	0,5	7,214450
8,650167	0,5	5,780050
8,658500	0,5	4,894800
8,666833	0,5	4,305900
8,675167	0,5	3,881100
8,683500	0,5	3,555550
8,691833	0,5	3,291700
8,700167	0,5	3,090800
8,708500	0,5	2,936400
8,716833	0,5	2,814300
8,725167	0,5	2,710450
8,733500	0,5	2,613250
8,741833	0,5	2,527550
8,750167	0,5	2,448950
8,758500	0,5	2,374600
8,766833	0,5	2,307200
8,775167	0,5	2,242200
8,783500	0,5	2,187500
8,791833	0,5	2,137150
8,800167	0,5	2,093800
8,808500	0,5	2,053250
8,816833	0,5	2,019250
8,825167	0,5	1,988900
8,833500	0,5	1,961400
8,841833	0,5	1,935500
8,850167	0,5	1,913050
8,858500	0,5	1,904500
8,866833	0,5	1,899750
8,875167	0,5	1,904650
8,883500	0,5	1,923350
8,891833	0,5	1,940300
8,900167	0,5	1,957100
8,908500	0,5	1,967000
8,916833	0,5	1,963350
8,925167	0,5	1,953550
8,933500	0,5	1,939450
8,941833	0,5	1,926050
8,950167	0,5	1,922550
8,958500	0,5	1,928600
8,966833	0,5	1,932350
8,975167	0,5	1,935550
8,983500	0,5	1,922000
8,991833	0,5	1,899900
9,000167	0,5	1,871500
9,008500	0,5	1,848950
9,016833	0,5	1,825950
9,025167	0,5	1,809150
9,033500	0,5	1,795500
9,041833	0,5	1,790500
9,050167	0,5	1,788050
9,058500	0,5	1,789750
9,066833	0,5	1,790000
9,075167	0,5	1,798100
9,083500	0,5	1,804900
9,091833	0,5	1,812500
9,100167	0,5	1,822850
9,108500	0,5	1,834000
9,116833	0,5	1,848100
9,125167	0,5	1,865400
9,133500	0,5	1,886750
9,141833	0,5	1,904650
9,150167	0,5	1,920000
9,158500	0,5	1,928700
9,166833	0,5	1,929650
9,175167	0,5	1,916250
9,183500	0,5	1,909350
9,191833	0,5	1,901150
9,200167	0,5	1,896200
9,208500	0,5	1,896600
9,216833	0,5	1,895100
9,225167	0,5	1,894850
9,233500	0,5	1,893950
9,241833	0,5	1,898700
9,250167	0,5	1,904150
9,258500	0,5	1,918550
9,266833	0,5	1,947600
9,275167	0,5	1,984550
9,283500	0,5	2,017750
9,291833	0,5	2,043900
9,300167	0,5	2,052150
9,308500	0,5	2,043400
9,316833	0,5	2,019250
9,325167	0,5	1,989650
9,333500	0,5	1,962200
9,341833	0,5	1,940650
9,350167	0,5	1,926050
9,358500	0,5	1,919900
9,366833	0,5	1,915600
9,375167	0,5	1,912600
9,383500	0,5	1,910550
9,391833	0,5	1,914550
9,400167	0,5	1,912550
9,408500	0,5	1,911800
9,416833	0,5	1,913650
9,425167	0,5	1,912750
9,433500	0,5	1,914400
9,441833	0,5	1,913650
9,450167	0,5	1,919650
9,458500	0,5	1,924700
9,466833	0,5	1,927650
9,475167	0,5	1,932000
9,483500	0,5	1,935350
9,491833	0,5	1,937500
9,500167	0,5	1,939200
9,508500	0,5	1,940750
9,516833	0,5	1,943850
9,525167	0,5	1,943850
9,533500	0,5	1,948850
9,541833	0,5	1,949950
9,550167	0,5	1,947150
9,558500	0,5	1,949950
9,566833	0,5	1,954100
9,575167	0,5	1,954100
9,583500	0,5	1,953300
9,591833	0,5	1,954450
9,600167	0,5	1,959500
9,608500	0,5	1,961750
9,616833	0,5	1,966550
9,625167	0,5	1,970150
9,633500	0,5	1,972950
9,641833	0,5	1,972600
9,650167	0,5	1,977700
9,658500	0,5	1,980850
9,666833	0,5	1,983350
9,675167	0,5	1,986000
9,683500	0,5	1,990750
9,691833	0,5	1,992650
9,700167	0,5	1,993550
9,708500	0,5	2,000550
9,716833	0,5	2,009200
9,725167	0,5	2,020750
9,733500	0,5	2,031750
9,741833	0,5	2,050250
9,750167	0,5	2,078100
9,758500	0,5	2,106250
9,766833	0,5	2,128000
9,775167	0,5	2,150500
9,783500	0,5	2,160650
9,791833	0,5	2,161650
9,800167	0,5	2,149000
9,808500	0,5	2,130500
9,816833	0,5	2,104900
9,825167	0,5	2,085000
9,833500	0,5	2,064900
9,841833	0,5	2,043600
9,850167	0,5	2,029100
9,858500	0,5	2,024550
9,866833	0,5	2,018600
9,875167	0,5	2,013850
9,883500	0,5	2,008150
9,891833	0,5	2,008500
9,900167	0,5	2,010150
9,908500	0,5	2,010550
9,916833	0,5	2,011000
9,925167	0,5	2,009300
9,933500	0,5	2,010500
9,941833	0,5	2,008700
9,950167	0,5	2,007900
9,958500	0,5	2,007200
9,966833	0,5	2,006600
9,975167	0,5	2,006850
9,983500	0,5	2,007200
9,991833	0,5	2,005100
10,000167	0,5	2,001500
10,008500	0,5	2,001000
10,016833	0,5	1,998300
10,025167	0,5	1,995600
10,033500	0,5	1,993800
10,041833	0,5	1,992050
10,050167	0,5	1,992200
10,058500	0,5	1,993300
10,066833	0,5	1,993700
10,075167	0,5	1,992450
10,083500	0,5	1,991550
10,091833	0,5	1,988400
10,100167	0,5	1,987000
10,108500	0,5	1,984000
10,116833	0,5	1,978000
10,125167	0,5	1,978150
10,133500	0,5	1,969350
10,141833	0,5	1,962750
10,150167	0,5	1,956800
10,158500	0,5	1,954950
10,166833	0,5	1,943450
10,175167	0,5	1,936500
10,183500	0,5	1,926650
10,191833	0,5	1,921100
10,200167	0,5	1,918350
10,208500	0,5	1,912500
10,216833	0,5	1,908250
10,225167	0,5	1,904150
10,233500	0,5	1,896800
10,241833	0,5	1,890750
10,250167	0,5	1,885600
10,258500	0,5	1,878000
10,266833	0,5	1,874200
10,275167	0,5	1,869750
10,283500	0,5	1,871400
10,291833	0,5	1,866500
10,300167	0,5	1,870950
10,308500	0,5	1,877250
10,316833	0,5	1,882850
10,325167	0,5	1,889850
10,333500	0,5	1,900400
10,341833	0,5	1,907400
10,350167	0,5	1,917350
10,358500	0,5	1,916950
10,366833	0,5	1,913450
10,375167	0,5	1,902600
10,383500	0,5	1,890500
10,391833	0,5	1,874450
10,400167	0,5	1,859900
10,408500	0,5	1,841750
10,416833	0,5	1,822200
10,425167	0,5	1,808850
10,433500	0,5	1,786350
10,441833	0,5	1,766000
10,450167	0,5	1,756700
10,458500	0,5	1,742350
10,466833	0,5	1,723900
10,475167	0,5	1,711550
10,483500	0,5	1,695500
10,491833	0,5	1,685950
10,500167	0,5	1,677050
10,508500	0,5	1,667800
10,516833	0,5	1,658450
10,525167	0,5	1,651550
10,533500	0,5	1,643900
10,541833	0,5	1,640450
10,550167	0,5	1,634200
10,558500	0,5	1,629800
10,566833	0,5	1,627600
10,575167	0,5	1,623200
10,583500	0,5	1,621150
10,591833	0,5	1,619950
10,600167	0,5	1,624200
10,608500	0,5	1,618250
10,616833	0,5	1,623400
10,625167	0,5	1,618600
10,633500	0,5	1,620650
10,641833	0,5	1,628700
10,650167	0,5	1,635850
10,658500	0,5	1,641700
10,666833	0,5	1,649750
10,675167	0,5	1,654250
10,683500	0,5	1,662200
10,691833	0,5	1,661600
10,700167	0,5	1,664100
10,708500	0,5	1,662350
10,716833	0,5	1,658050
10,725167	0,5	1,652100
10,733500	0,5	1,639150
10,741833	0,5	1,631300
10,750167	0,5	1,623100
10,758500	0,5	1,612400
10,766833	0,5	1,602800
10,775167	0,5	1,594050
10,783500	0,5	1,591350
10,791833	0,5	1,589700
10,800167	0,5	1,584750
10,808500	0,5	1,584050
10,816833	0,5	1,578100
10,825167	0,5	1,577650
10,833500	0,5	1,573450
10,841833	0,5	1,572600
10,850167	0,5	1,566550
10,858500	0,5	1,561600
10,866833	0,5	1,557950
10,875167	0,5	1,556100
10,883500	0,5	1,540500
10,891833	0,5	1,543800
10,900167	0,5	1,541150
10,908500	0,5	1,532200
10,916833	0,5	1,524350
10,925167	0,5	1,516750
10,933500	0,5	1,515850
10,941833	0,5	1,515000
10,950167	0,5	1,512600
10,958500	0,5	1,510550
10,966833	0,5	1,507700
10,975167	0,5	1,503000
10,983500	0,5	1,501000
10,991833	0,5	1,497000
11,000167	0,5	1,496600
11,008500	0,5	1,493050
11,016833	0,5	1,499200
11,025167	0,5	1,498700
11,033500	0,5	1,494300
11,041833	0,5	1,499950
11,050167	0,5	1,505900
11,058500	0,5	1,502550
11,066833	0,5	1,506300
11,075167	0,5	1,513400
11,083500	0,5	1,522200
11,091833	0,5	1,531300
11,100167	0,5	1,542150
11,108500	0,5	1,547650
11,116833	0,5	1,551550
11,125167	0,5	1,546950
11,133500	0,5	1,542500
11,141833	0,5	1,534650
11,150167	0,5	1,522300
11,158500	0,5	1,511900
11,166833	0,5	1,498000
11,175167	0,5	1,487400
11,183500	0,5	1,476450
11,191833	0,5	1,473200
11,200167	0,5	1,466500
11,208500	0,5	1,461500
11,216833	0,5	1,454100
11,225167	0,5	1,450050
11,233500	0,5	1,449850
11,241833	0,5	1,451700
11,250167	0,5	1,446850
11,258500	0,5	1,443700
11,266833	0,5	1,441700
11,275167	0,5	1,439750
11,283500	0,5	1,437150
11,291833	0,5	1,432750
11,300167	0,5	1,430750
11,308500	0,5	1,425850
11,316833	0,5	1,424650
11,325167	0,5	1,420550
11,333500	0,5	1,420700
11,341833	0,5	1,419300
11,350167	0,5	1,413450
11,358500	0,5	1,405350
11,366833	0,5	1,397250
11,375167	0,5	1,390100
11,383500	0,5	1,388900
11,391833	0,5	1,384450
11,400167	0,5	1,381950
11,408500	0,5	1,376600
11,416833	0,5	1,372450
11,425167	0,5	1,368750
11,433500	0,5	1,373700
11,441833	0,5	1,373050
11,450167	0,5	1,371300
11,458500	0,5	1,372850
11,466833	0,5	1,365550
11,475167	0,5	1,364700
11,483500	0,5	1,364050
11,491833	0,5	1,363050
11,500167	0,5	1,357800
11,508500	0,5	1,356500
11,516833	0,5	1,355600
11,525167	0,5	1,359900
11,533500	0,5	1,366400
11,541833	0,5	1,378400
11,550167	0,5	1,389450
11,558500	0,5	1,408600
11,566833	0,5	1,432600
11,575167	0,5	1,465050
11,583500	0,5	1,498600
11,591833	0,5	1,535450
11,600167	0,5	1,574450
11,608500	0,5	1,602700
11,616833	0,5	1,611750
11,625167	0,5	1,617600
11,633500	0,5	1,608200
11,641833	0,5	1,583350
11,650167	0,5	1,548500
11,658500	0,5	1,506900
11,666833	0,5	1,472600
11,675167	0,5	1,444650
11,683500	0,5	1,423400
11,691833	0,5	1,407300
11,700167	0,5	1,396300
11,708500	0,5	1,387950
11,716833	0,5	1,387350
11,725167	0,5	1,387100
11,733500	0,5	1,388900
11,741833	0,5	1,393800
11,750167	0,5	1,409750
11,758500	0,5	1,426100
11,766833	0,5	1,438100
11,775167	0,5	1,462400
11,783500	0,5	1,479650
11,791833	0,5	1,492850
11,800167	0,5	1,498700
11,808500	0,5	1,491850
11,816833	0,5	1,489750
11,825167	0,5	1,483300
11,833500	0,5	1,468250
11,841833	0,5	1,455550
11,850167	0,5	1,445400
11,858500	0,5	1,437500
11,866833	0,5	1,432500
11,875167	0,5	1,433650
11,883500	0,5	1,434900
11,891833	0,5	1,444600
11,900167	0,5	1,454200
11,908500	0,5	1,468200
11,916833	0,5	1,468150
11,925167	0,5	1,486600
11,933500	0,5	1,494750
11,941833	0,5	1,500150
11,950167	0,5	1,497550
11,958500	0,5	1,488750
11,966833	0,5	1,495700
11,975167	0,5	1,498800
11,983500	0,5	1,496150
11,991833	0,5	1,499100
12,000167	0,5	1,502150
12,008500	0,5	1,504450
12,016833	0,5	1,511550
12,025167	0,5	1,516600
12,033500	0,5	1,521150
12,041833	0,5	1,521700
12,050167	0,5	1,532800
12,058500	0,5	1,529700
12,066833	0,5	1,527200
12,075167	0,5	1,528600
12,083500	0,5	1,518050
12,091833	0,5	1,507850
12,100167	0,5	1,496300
12,108500	0,5	1,480250
12,116833	0,5	1,481900
12,125167	0,5	1,480600
12,133500	0,5	1,486550
12,141833	0,5	1,493600
12,150167	0,5	1,509850
12,158500	0,5	1,534050
12,166833	0,5	1,562200
12,175167	0,5	1,592050
12,183500	0,5	1,617950
12,191833	0,5	1,639400
12,200167	0,5	1,649600
12,208500	0,5	1,639350
12,216833	0,5	1,622950
12,225167	0,5	1,601500
12,233500	0,5	1,567750
12,241833	0,5	1,536650
12,250167	0,5	1,504050
12,258500	0,5	1,480200
12,266833	0,5	1,460550
12,275167	0,5	1,460550
12,283500	0,5	1,441250
12,291833	0,5	1,435250
12,300167	0,5	1,432600
12,308500	0,5	1,431650
12,316833	0,5	1,428450
12,325167	0,5	1,427650
12,333500	0,5	1,429100
12,341833	0,5	1,425000
12,350167	0,5	1,423150
12,358500	0,5	1,414550
12,366833	0,5	1,421850
12,375167	0,5	1,420250
12,383500	0,5	1,413300
12,391833	0,5	1,409400
12,400167	0,5	1,403050
12,408500	0,5	1,399900
12,416833	0,5	1,401950
12,425167	0,5	1,400500
12,433500	0,5	1,404250
12,441833	0,5	1,400350
12,450167	0,5	1,403250
12,458500	0,5	1,400900
12,466833	0,5	1,401650
12,475167	0,5	1,401450
12,483500	0,5	1,401250
12,491833	0,5	1,406700
12,500167	0,5	1,400900
12,508500	0,5	1,397250
12,516833	0,5	1,403250
12,525167	0,5	1,406350
12,533500	0,5	1,401700
12,541833	0,5	1,395000
12,550167	0,5	1,395700
12,558500	0,5	1,397600
12,566833	0,5	1,397300
12,575167	0,5	1,399100
12,583500	0,5	1,400900
12,591833	0,5	1,399200
12,600167	0,5	1,399950
12,608500	0,5	1,399900
12,616833	0,5	1,394200
12,625167	0,5	1,392450
12,633500	0,5	1,388850
12,641833	0,5	1,387800
12,650167	0,5	1,371950
12,658500	0,5	1,369200
12,666833	0,5	1,367100
12,675167	0,5	1,360800
12,683500	0,5	1,350600
12,691833	0,5	1,337600
12,700167	0,5	1,330900
12,708500	0,5	1,327200
12,716833	0,5	1,323450
12,725167	0,5	1,315350
12,733500	0,5	1,314400
12,741833	0,5	1,304950
12,750167	0,5	1,302550
12,758500	0,5	1,297050
12,766833	0,5	1,293250
12,775167	0,5	1,289350
12,783500	0,5	1,288300
12,791833	0,5	1,289700
12,800167	0,5	1,275400
12,808500	0,5	1,277700
12,816833	0,5	1,278100
12,825167	0,5	1,269800
12,833500	0,5	1,260200
12,841833	0,5	1,247500
12,850167	0,5	1,249400
12,858500	0,5	1,251600
12,866833	0,5	1,248450
12,875167	0,5	1,244200
12,883500	0,5	1,241100
12,891833	0,5	1,244900
12,900167	0,5	1,239050
12,908500	0,5	1,238950
12,916833	0,5	1,233450
12,925167	0,5	1,232800
12,933500	0,5	1,230300
12,941833	0,5	1,228950
12,950167	0,5	1,217050
12,958500	0,5	1,224850
12,966833	0,5	1,221600
12,975167	0,5	1,217250
12,983500	0,5	1,206250
12,991833	0,5	1,199800
13,000167	0,5	1,203000
13,008500	0,5	1,203250
13,016833	0,5	1,201350
13,025167	0,5	1,200100
13,033500	0,5	1,200900
13,041833	0,5	1,198500
13,050167	0,5	1,201300
13,058500	0,5	1,200250
13,066833	0,5	1,197300
13,075167	0,5	1,198600
13,083500	0,5	1,198900
13,091833	0,5	1,193050
13,100167	0,5	1,193850
13,108500	0,5	1,196400
13,116833	0,5	1,191450
13,125167	0,5	1,185600
13,133500	0,5	1,180350
13,141833	0,5	1,170400
13,150167	0,5	1,174800
13,158500	0,5	1,174150
13,166833	0,5	1,176000
13,175167	0,5	1,176650
13,183500	0,5	1,178450
13,191833	0,5	1,176950
13,200167	0,5	1,178300
13,208500	0,5	1,178950
13,216833	0,5	1,176400
13,225167	0,5	1,182800
13,233500	0,5	1,179900
13,241833	0,5	1,171300
13,250167	0,5	1,172400
13,258500	0,5	1,174500
13,266833	0,5	1,170650
13,275167	0,5	1,164500
13,283500	0,5	1,156600
13,291833	0,5	1,153800
13,300167	0,5	1,157850
13,308500	0,5	1,162650
13,316833	0,5	1,159550
13,325167	0,5	1,162300
13,333500	0,5	1,163300
13,341833	0,5	1,167250
13,350167	0,5	1,162900
13,358500	0,5	1,161350
13,366833	0,5	1,161450
13,375167	0,5	1,167650
13,383500	0,5	1,163300
13,391833	0,5	1,156750
13,400167	0,5	1,155300
13,408500	0,5	1,150650
13,416833	0,5	1,145250
13,425167	0,5	1,135850
13,433500	0,5	1,121350
13,441833	0,5	1,118650
13,450167	0,5	1,119000
13,458500	0,5	1,118850
13,466833	0,5	1,114950
13,475167	0,5	1,115500
13,483500	0,5	1,112100
13,491833	0,5	1,109700
13,500167	0,5	1,109700
13,508500	0,5	1,109550
13,516833	0,5	1,106100
13,525167	0,5	1,109650
13,533500	0,5	1,102900
13,541833	0,5	1,100200
13,550167	0,5	1,104950
13,558500	0,5	1,098750
13,566833	0,5	1,096100
13,575167	0,5	1,082000
13,583500	0,5	1,078750
13,591833	0,5	1,081400
13,600167	0,5	1,076500
13,608500	0,5	1,076700
13,616833	0,5	1,073400
13,625167	0,5	1,073000
13,633500	0,5	1,068050
13,641833	0,5	1,067100
13,650167	0,5	1,062100
13,658500	0,5	1,062700
13,666833	0,5	1,063950
13,675167	0,5	1,067900
13,683500	0,5	1,049900
13,691833	0,5	1,055700
13,700167	0,5	1,053050
13,708500	0,5	1,050400
13,716833	0,5	1,041350
13,725167	0,5	1,028700
13,733500	0,5	1,032000
13,741833	0,5	1,031950
13,750167	0,5	1,030050
13,758500	0,5	1,024050
13,766833	0,5	1,027100
13,775167	0,5	1,022250
13,783500	0,5	1,021850
13,791833	0,5	1,015300
13,800167	0,5	1,013800
13,808500	0,5	1,007800
13,816833	0,5	1,012800
13,825167	0,5	1,005800
13,833500	0,5	0,993850
13,841833	0,5	0,997700
13,850167	0,5	0,994450
13,858500	0,5	0,986450
13,866833	0,5	0,977200
13,875167	0,5	0,962450
13,883500	0,5	0,963600
13,891833	0,5	0,963500
13,900167	0,5	0,963150
13,908500	0,5	0,954600
13,916833	0,5	0,950450
13,925167	0,5	0,949450
13,933500	0,5	0,945250
13,941833	0,5	0,945300
13,950167	0,5	0,940200
13,958500	0,5	0,936850
13,966833	0,5	0,934850
13,975167	0,5	0,935450
13,983500	0,5	0,930150
13,991833	0,5	0,937050
14,000167	0,5	0,932250
14,008500	0,5	0,931450
14,016833	0,5	0,921900
14,025167	0,5	0,915100
14,033500	0,5	0,919800
14,041833	0,5	0,922700
14,050167	0,5	0,915550
14,058500	0,5	0,916000
14,066833	0,5	0,911050
14,075167	0,5	0,908100
14,083500	0,5	0,903000
14,091833	0,5	0,896400
14,100167	0,5	0,894300
14,108500	0,5	0,889950
14,116833	0,5	0,892100
14,125167	0,5	0,882550
14,133500	0,5	0,882650
14,141833	0,5	0,886650
14,150167	0,5	0,881900
14,158500	0,5	0,871100
14,166833	0,5	0,863750
14,175167	0,5	0,857000
14,183500	0,5	0,862300
14,191833	0,5	0,859500
14,200167	0,5	0,861300
14,208500	0,5	0,859050
14,216833	0,5	0,858650
14,225167	0,5	0,857150
14,233500	0,5	0,855450
14,241833	0,5	0,853700
14,250167	0,5	0,850850
14,258500	0,5	0,854850
14,266833	0,5	0,852900
14,275167	0,5	0,837000
14,283500	0,5	0,842750
14,291833	0,5	0,839150
14,300167	0,5	0,835600
14,308500	0,5	0,825300
14,316833	0,5	0,817150
14,325167	0,5	0,818850
14,333500	0,5	0,819550
14,341833	0,5	0,826100
14,350167	0,5	0,825350
14,358500	0,5	0,831700
14,366833	0,5	0,835500
14,375167	0,5	0,838850
14,383500	0,5	0,838400
14,391833	0,5	0,840150
14,400167	0,5	0,840350
14,408500	0,5	0,845250
14,416833	0,5	0,832100
14,425167	0,5	0,827900
14,433500	0,5	0,825000
14,441833	0,5	0,816700
14,450167	0,5	0,806500
14,458500	0,5	0,784200
14,466833	0,5	0,776800
14,475167	0,5	0,764500
14,483500	0,5	0,766100
14,491833	0,5	0,755400
14,500167	0,5	0,754250
14,508500	0,5	0,748450
14,516833	0,5	0,744600
14,525167	0,5	0,734350
14,533500	0,5	0,727900
14,541833	0,5	0,716850
14,550167	0,5	0,708300
14,558500	0,5	0,696300
14,566833	0,5	0,666900
14,575167	0,5	0,652100
14,583500	0,5	0,642400
14,591833	0,5	0,631000
14,600167	0,5	0,626100
14,608500	0,5	0,610250
14,616833	0,5	0,615900
14,625167	0,5	0,628250
14,633500	0,5	0,634000
14,641833	0,5	0,635600
14,650167	0,5	0,634600
14,658500	0,5	0,637200
14,666833	0,5	0,636950
14,675167	0,5	0,639200
14,683500	0,5	0,629650
14,691833	0,5	0,629050
14,700167	0,5	0,630100
14,708500	0,5	0,629550
14,716833	0,5	0,606450
14,725167	0,5	0,616450
14,733500	0,5	0,611700
14,741833	0,5	0,610000
14,750167	0,5	0,597950
14,758500	0,5	0,579350
14,766833	0,5	0,582550
14,775167	0,5	0,581600
14,783500	0,5	0,577450
14,791833	0,5	0,575400
14,800167	0,5	0,573150
14,808500	0,5	0,568000
14,816833	0,5	0,564650
14,825167	0,5	0,561550
14,833500	0,5	0,562250
14,841833	0,5	0,556000
14,850167	0,5	0,562150
14,858500	0,5	0,555950
14,866833	0,5	0,546250
14,875167	0,5	0,554600
14,883500	0,5	0,551050
14,891833	0,5	0,545400
14,900167	0,5	0,537500
14,908500	0,5	0,524500
14,916833	0,5	0,536500
14,925167	0,5	0,538100
14,933500	0,5	0,543200
14,941833	0,5	0,545200
14,950167	0,5	0,551800
14,958500	0,5	0,554000
14,966833	0,5	0,554700
14,975167	0,5	0,557550
14,983500	0,5	0,552650
14,991833	0,5	0,551050
15,000167	0,5	0,548550
15,008500	0,5	0,536100
15,016833	0,5	0,525050
15,025167	0,5	0,528000
15,033500	0,5	0,517600
15,041833	0,5	0,512350
15,050167	0,5	0,492000
15,058500	0,5	0,485850
15,066833	0,5	0,488600
15,075167	0,5	0,491900
15,083500	0,5	0,488950
15,091833	0,5	0,492800
15,100167	0,5	0,489950
15,108500	0,5	0,493750
15,116833	0,5	0,498000
15,125167	0,5	0,497400
15,133500	0,5	0,495250
15,141833	0,5	0,501700
15,150167	0,5	0,508800
15,158500	0,5	0,494700
15,166833	0,5	0,498500
15,175167	0,5	0,496100
15,183500	0,5	0,493500
15,191833	0,5	0,485500
15,200167	0,5	0,476950
15,208500	0,5	0,477000
15,216833	0,5	0,492250
15,225167	0,5	0,504200
15,233500	0,5	0,525050
15,241833	0,5	0,540650
15,250167	0,5	0,559050
15,258500	0,5	0,570900
15,266833	0,5	0,576350
15,275167	0,5	0,572450
15,283500	0,5	0,559450
15,291833	0,5	0,546400
15,300167	0,5	0,521000
15,308500	0,5	0,492500
15,316833	0,5	0,478450
15,325167	0,5	0,459000
15,333500	0,5	0,439050
15,341833	0,5	0,416950
15,350167	0,5	0,399400
15,358500	0,5	0,395100
15,366833	0,5	0,391100
15,375167	0,5	0,392700
15,383500	0,5	0,381550
15,391833	0,5	0,384400
15,400167	0,5	0,377400
15,408500	0,5	0,378850
15,416833	0,5	0,371200
15,425167	0,5	0,368300
15,433500	0,5	0,372950
15,441833	0,5	0,372700
15,450167	0,5	0,355100
15,458500	0,5	0,358400
15,466833	0,5	0,362650
15,475167	0,5	0,361100
15,483500	0,5	0,353750
15,491833	0,5	0,334750
15,500167	0,5	0,330950
15,508500	0,5	0,327050
15,516833	0,5	0,332450
15,525167	0,5	0,323100
15,533500	0,5	0,324750
15,541833	0,5	0,320850
15,550167	0,5	0,324750
15,558500	0,5	0,320900
15,566833	0,5	0,318800
15,575167	0,5	0,313800
15,583500	0,5	0,316250
15,591833	0,5	0,313200
15,600167	0,5	0,301800
15,608500	0,5	0,303700
15,616833	0,5	0,308350
15,625167	0,5	0,300850
15,633500	0,5	0,296250
15,641833	0,5	0,276200
15,650167	0,5	0,282600
15,658500	0,5	0,284400
15,666833	0,5	0,280700
15,675167	0,5	0,274600
15,683500	0,5	0,266250
15,691833	0,5	0,270400
15,700167	0,5	0,262450
15,708500	0,5	0,262450
15,716833	0,5	0,252300
15,725167	0,5	0,249600
15,733500	0,5	0,243600
15,741833	0,5	0,246200
15,750167	0,5	0,226100
15,758500	0,5	0,238800
15,766833	0,5	0,240700
15,775167	0,5	0,234550
15,783500	0,5	0,222400
15,791833	0,5	0,208500
15,800167	0,5	0,217150
15,808500	0,5	0,219400
15,816833	0,5	0,220250
15,825167	0,5	0,223000
15,833500	0,5	0,230000
15,841833	0,5	0,229700
15,850167	0,5	0,237700
15,858500	0,5	0,237100
15,866833	0,5	0,238250
15,875167	0,5	0,227000
15,883500	0,5	0,228650
15,891833	0,5	0,211250
15,900167	0,5	0,202550
15,908500	0,5	0,203600
15,916833	0,5	0,194750
15,925167	0,5	0,182500
15,933500	0,5	0,172200
15,941833	0,5	0,163300
15,950167	0,5	0,170300
15,958500	0,5	0,170600
15,966833	0,5	0,163200
15,975167	0,5	0,158000
15,983500	0,5	0,156650
15,991833	0,5	0,144750
16,000167	0,5	0,138600
16,008500	0,5	0,134250
16,016833	0,5	0,123300
16,025167	0,5	0,120550
16,033500	0,5	0,115200
16,041833	0,5	0,106450
16,050167	0,5	0,109000
16,058500	0,5	0,111400
16,066833	0,5	0,106250
16,075167	0,5	0,097600
16,083500	0,5	0,084400
16,091833	0,5	0,077850
16,100167	0,5	0,077850
16,108500	0,5	0,080300
16,116833	0,5	0,072350
16,125167	0,5	0,075900
16,133500	0,5	0,073500
16,141833	0,5	0,074800
16,150167	0,5	0,074100
16,158500	0,5	0,068350
16,166833	0,5	0,066100
16,175167	0,5	0,063350
16,183500	0,5	0,059500
16,191833	0,5	0,052100
16,200167	0,5	0,061950
16,208500	0,5	0,058600
16,216833	0,5	0,054050
16,225167	0,5	0,038700
16,233500	0,5	0,027000
16,241833	0,5	0,021350
16,250167	0,5	0,025300
16,258500	0,5	0,021950
16,266833	0,5	0,024850
16,275167	0,5	0,015300
16,283500	0,5	0,019700
16,291833	0,5	0,014300
16,300167	0,5	0,013200
16,308500	0,5	0,010100
16,316833	0,5	0,011800
16,325167	0,5	0,012850
16,333500	0,5	0,003650
16,341833	0,5	-0,002950
16,350167	0,5	0,006450
16,358500	0,5	0,003100
16,366833	0,5	-0,008900
16,375167	0,5	-0,024300
16,383500	0,5	-0,031700
16,391833	0,5	-0,028800
16,400167	0,5	-0,033750
16,408500	0,5	-0,032050
16,416833	0,5	-0,037250
16,425167	0,5	-0,032600
16,433500	0,5	-0,038900
16,441833	0,5	-0,035650
16,450167	0,5	-0,041050
16,458500	0,5	-0,045200
16,466833	0,5	-0,040100
16,475167	0,5	-0,038000
16,483500	0,5	-0,058700
16,491833	0,5	-0,049800
16,500167	0,5	-0,049650
16,508500	0,5	-0,053000
16,516833	0,5	-0,057500
16,525167	0,5	-0,080500
16,533500	0,5	-0,075900
16,541833	0,5	-0,083550
16,550167	0,5	-0,080400
16,558500	0,5	-0,089150
16,566833	0,5	-0,087700
16,575167	0,5	-0,093950
16,583500	0,5	-0,091800
16,591833	0,5	-0,096100
16,600167	0,5	-0,095800
16,608500	0,5	-0,102250
16,616833	0,5	-0,098200
16,625167	0,5	-0,104050
16,633500	0,5	-0,116750
16,641833	0,5	-0,109050
16,650167	0,5	-0,112750
16,658500	0,5	-0,119950
16,666833	0,5	-0,134600
16,675167	0,5	-0,147450
16,683500	0,5	-0,141700
16,691833	0,5	-0,142400
16,700167	0,5	-0,151500
16,708500	0,5	-0,150700
16,716833	0,5	-0,154700
16,725167	0,5	-0,152850
16,733500	0,5	-0,159600
16,741833	0,5	-0,152950
16,750167	0,5	-0,163300
16,758500	0,5	-0,162850
16,766833	0,5	-0,163500
16,775167	0,5	-0,167200
16,783500	0,5	-0,176050
16,791833	0,5	-0,162050
16,800167	0,5	-0,160250
16,808500	0,5	-0,160000
16,816833	0,5	-0,171400
16,825167	0,5	-0,178500
16,833500	0,5	-0,166650
16,841833	0,5	-0,159900
16,850167	0,5	-0,156400
16,858500	0,5	-0,156950
16,866833	0,5	-0,157450
16,875167	0,5	-0,159350
16,883500	0,5	-0,160600
16,891833	0,5	-0,170500
16,900167	0,5	-0,172100
16,908500	0,5	-0,181450
16,916833	0,5	-0,177450
16,925167	0,5	-0,197150
16,933500	0,5	-0,191200
16,941833	0,5	-0,194050
16,950167	0,5	-0,199000
16,958500	0,5	-0,213250
16,966833	0,5	-0,225450
16,975167	0,5	-0,227950
16,983500	0,5	-0,227600
16,991833	0,5	-0,228750
17,000167	0,5	-0,229250
17,008500	0,5	-0,228750
17,016833	0,5	-0,230150
17,025167	0,5	-0,228800
17,033500	0,5	-0,230800
17,041833	0,5	-0,230350
17,050167	0,5	-0,235500
17,058500	0,5	-0,223950
17,066833	0,5	-0,226950
17,075167	0,5	-0,237850
17,083500	0,5	-0,228150
17,091833	0,5	-0,229650
17,100167	0,5	-0,237500
17,108500	0,5	-0,247950
17,116833	0,5	-0,261950
17,125167	0,5	-0,260800
17,133500	0,5	-0,259400
17,141833	0,5	-0,259600
17,150167	0,5	-0,257650
17,158500	0,5	-0,252400
17,166833	0,5	-0,249700
17,175167	0,5	-0,245400
17,183500	0,5	-0,244000
17,191833	0,5	-0,250650
17,200167	0,5	-0,244000
17,208500	0,5	-0,238650
17,216833	0,5	-0,246650
17,225167	0,5	-0,247200
17,233500	0,5	-0,238950
17,241833	0,5	-0,247750
17,250167	0,5	-0,246600
17,258500	0,5	-0,266450
17,266833	0,5	-0,274100
17,275167	0,5	-0,273250
17,283500	0,5	-0,266100
17,291833	0,5	-0,268350
17,300167	0,5	-0,266550
17,308500	0,5	-0,266700
17,316833	0,5	-0,266000
17,325167	0,5	-0,265350
17,333500	0,5	-0,266750
17,341833	0,5	-0,262900
17,350167	0,5	-0,258050
17,358500	0,5	-0,254500
17,366833	0,5	-0,267250
17,375167	0,5	-0,259250
17,383500	0,5	-0,253600
17,391833	0,5	-0,252150
17,400167	0,5	-0,256850
17,408500	0,5	-0,270000
17,416833	0,5	-0,267150
17,425167	0,5	-0,259650
17,433500	0,5	-0,261350
17,441833	0,5	-0,256100
17,450167	0,5	-0,259600
17,458500	0,5	-0,251350
17,466833	0,5	-0,247800
17,475167	0,5	-0,242650
17,483500	0,5	-0,238650
17,491833	0,5	-0,239500
17,500167	0,5	-0,226550
17,508500	0,5	-0,226500
17,516833	0,5	-0,237400
17,525167	0,5	-0,224350
17,533500	0,5	-0,222150
17,541833	0,5	-0,222650
17,550167	0,5	-0,227000
17,558500	0,5	-0,239350
17,566833	0,5	-0,226500
17,575167	0,5	-0,228900
17,583500	0,5	-0,222950
17,591833	0,5	-0,230200
17,600167	0,5	-0,220300
17,608500	0,5	-0,221950
17,616833	0,5	-0,216800
17,625167	0,5	-0,220550
17,633500	0,5	-0,216800
17,641833	0,5	-0,210750
17,650167	0,5	-0,202800
17,658500	0,5	-0,210150
17,666833	0,5	-0,201450
17,675167	0,5	-0,195000
17,683500	0,5	-0,192100
17,691833	0,5	-0,199200
17,700167	0,5	-0,211050
17,708500	0,5	-0,212600
17,716833	0,5	-0,205600
17,725167	0,5	-0,198550
17,733500	0,5	-0,199600
17,741833	0,5	-0,194250
17,750167	0,5	-0,191650
17,758500	0,5	-0,186600
17,766833	0,5	-0,185900
17,775167	0,5	-0,180150
17,783500	0,5	-0,183700
17,791833	0,5	-0,183200
17,800167	0,5	-0,172600
17,808500	0,5	-0,181900
17,816833	0,5	-0,172100
17,825167	0,5	-0,168300
17,833500	0,5	-0,164250
17,841833	0,5	-0,172800
17,850167	0,5	-0,186850
17,858500	0,5	-0,187400
17,866833	0,5	-0,180000
17,875167	0,5	-0,182400
17,883500	0,5	-0,181700
17,891833	0,5	-0,182750
17,900167	0,5	-0,181100
17,908500	0,5	-0,184600
17,916833	0,5	-0,176600
17,925167	0,5	-0,182150
17,933500	0,5	-0,182900
17,941833	0,5	-0,177000
17,950167	0,5	-0,171600
17,958500	0,5	-0,186600
17,966833	0,5	-0,172800
17,975167	0,5	-0,174200
17,983500	0,5	-0,179450
17,991833	0,5	-0,194300
18,000167	0,5	-0,213050
18,008500	0,5	-0,205550
18,016833	0,5	-0,206650
18,025167	0,5	-0,206200
18,033500	0,5	-0,204700
18,041833	0,5	-0,199900
18,050167	0,5	-0,205700
18,058500	0,5	-0,203650
18,066833	0,5	-0,207550
18,075167	0,5	-0,207500
18,083500	0,5	-0,204800
18,091833	0,5	-0,197300
18,100167	0,5	-0,212900
18,108500	0,5	-0,217800
18,116833	0,5	-0,213000
18,125167	0,5	-0,217050
18,133500	0,5	-0,229600
18,141833	0,5	-0,245250
18,150167	0,5	-0,254750
18,158500	0,5	-0,263250
18,166833	0,5	-0,262000
18,175167	0,5	-0,262450
18,183500	0,5	-0,267200
18,191833	0,5	-0,267000
18,200167	0,5	-0,270300
18,208500	0,5	-0,274250
18,216833	0,5	-0,272050
18,225167	0,5	-0,282500
18,233500	0,5	-0,270150
18,241833	0,5	-0,276300
18,250167	0,5	-0,290550
18,258500	0,5	-0,285050
18,266833	0,5	-0,285850
18,275167	0,5	-0,297200
18,283500	0,5	-0,306250
18,291833	0,5	-0,329750
18,300167	0,5	-0,338450
18,308500	0,5	-0,341800
18,316833	0,5	-0,342650
18,325167	0,5	-0,346900
18,333500	0,5	-0,344100
18,341833	0,5	-0,352550
18,350167	0,5	-0,359050
18,358500	0,5	-0,358400
18,366833	0,5	-0,364850
18,375167	0,5	-0,366700
18,383500	0,5	-0,362800
18,391833	0,5	-0,366700
18,400167	0,5	-0,381400
18,408500	0,5	-0,376450
18,416833	0,5	-0,380250
18,425167	0,5	-0,388750
18,433500	0,5	-0,408100
18,441833	0,5	-0,421800
18,450167	0,5	-0,424000
18,458500	0,5	-0,424250
18,466833	0,5	-0,431350
18,475167	0,5	-0,437800
18,483500	0,5	-0,445200
18,491833	0,5	-0,450500
18,500167	0,5	-0,452550
18,508500	0,5	-0,459250
18,516833	0,5	-0,462000
18,525167	0,5	-0,466000
18,533500	0,5	-0,462800
18,541833	0,5	-0,481700
18,550167	0,5	-0,484650
18,558500	0,5	-0,483950
18,566833	0,5	-0,483850
18,575167	0,5	-0,495450
18,583500	0,5	-0,515000
18,591833	0,5	-0,527350
18,600167	0,5	-0,521100
18,608500	0,5	-0,534350
18,616833	0,5	-0,535500
18,625167	0,5	-0,545600
18,633500	0,5	-0,546650
18,641833	0,5	-0,552700
18,650167	0,5	-0,552700
18,658500	0,5	-0,561050
18,666833	0,5	-0,567900
18,675167	0,5	-0,560400
18,683500	0,5	-0,562100
18,691833	0,5	-0,581000
18,700167	0,5	-0,570500
18,708500	0,5	-0,577400
18,716833	0,5	-0,587050
18,725167	0,5	-0,594150
18,733500	0,5	-0,621150
18,741833	0,5	-0,613500
18,750167	0,5	-0,618200
18,758500	0,5	-0,617550
18,766833	0,5	-0,625050
18,775167	0,5	-0,621300
18,783500	0,5	-0,629300
18,791833	0,5	-0,621900
18,800167	0,5	-0,624050
18,808500	0,5	-0,627650
18,816833	0,5	-0,629100
18,825167	0,5	-0,630950
18,833500	0,5	-0,631750
18,841833	0,5	-0,644850
18,850167	0,5	-0,635100
18,858500	0,5	-0,638350
18,866833	0,5	-0,645450
18,875167	0,5	-0,658350
18,883500	0,5	-0,677400
18,891833	0,5	-0,680500
18,900167	0,5	-0,670900
18,908500	0,5	-0,679100
18,916833	0,5	-0,676800
18,925167	0,5	-0,680550
18,933500	0,5	-0,676400
18,941833	0,5	-0,678200
18,950167	0,5	-0,678250
18,958500	0,5	-0,682900
18,966833	0,5	-0,681000
18,975167	0,5	-0,674050
18,983500	0,5	-0,679050
18,991833	0,5	-0,684650
19,000167	0,5	-0,674900
19,008500	0,5	-0,679000
19,016833	0,5	-0,686150
19,025167	0,5	-0,701200
19,033500	0,5	-0,713800
19,041833	0,5	-0,700800
19,050167	0,5	-0,704700
19,058500	0,5	-0,702050
19,066833	0,5	-0,713700
19,075167	0,5	-0,715050
19,083500	0,5	-0,727650
19,091833	0,5	-0,730850
19,100167	0,5	-0,742700
19,108500	0,5	-0,746100
19,116833	0,5	-0,740950
19,125167	0,5	-0,742200
19,133500	0,5	-0,757300
19,141833	0,5	-0,755150
19,150167	0,5	-0,757750
19,158500	0,5	-0,764950
19,166833	0,5	-0,785050
19,175167	0,5	-0,801100
19,183500	0,5	-0,806550
19,191833	0,5	-0,815950
19,200167	0,5	-0,818250
19,208500	0,5	-0,827950
19,216833	0,5	-0,829000
19,225167	0,5	-0,838450
19,233500	0,5	-0,837700
19,241833	0,5	-0,841650
19,250167	0,5	-0,845200
19,258500	0,5	-0,847850
19,266833	0,5	-0,841950
19,275167	0,5	-0,861400
19,283500	0,5	-0,858050
19,291833	0,5	-0,862200
19,300167	0,5	-0,858800
19,308500	0,5	-0,870300
19,316833	0,5	-0,889000
19,325167	0,5	-0,899100
19,333500	0,5	-0,902100
19,341833	0,5	-0,901700
19,350167	0,5	-0,904250
19,358500	0,5	-0,905600
19,366833	0,5	-0,913150
19,375167	0,5	-0,906800
19,383500	0,5	-0,911800
19,391833	0,5	-0,910350
19,400167	0,5	-0,920350
19,408500	0,5	-0,913450
19,416833	0,5	-0,913050
19,425167	0,5	-0,930600
19,433500	0,5	-0,926650
19,441833	0,5	-0,920250
19,450167	0,5	-0,924150
19,458500	0,5	-0,932500
19,466833	0,5	-0,954200
19,475167	0,5	-0,956400
19,483500	0,5	-0,950900
19,491833	0,5	-0,953200
19,500167	0,5	-0,957250
19,508500	0,5	-0,961250
19,516833	0,5	-0,959700
19,525167	0,5	-0,962650
19,533500	0,5	-0,960550
19,541833	0,5	-0,967400
19,550167	0,5	-0,967850
19,558500	0,5	-0,965400
19,566833	0,5	-0,963750
19,575167	0,5	-0,985050
19,583500	0,5	-0,966000
19,591833	0,5	-0,967000
19,600167	0,5	-0,970750
19,608500	0,5	-0,979350
19,616833	0,5	-0,998900
19,625167	0,5	-0,989750
19,633500	0,5	-0,994350
19,641833	0,5	-0,997750
19,650167	0,5	-1,001750
19,658500	0,5	-1,006550
19,666833	0,5	-1,013750
19,675167	0,5	-1,012000
19,683500	0,5	-1,014750
19,691833	0,5	-1,015450
19,700167	0,5	-1,019100
19,708500	0,5	-1,003400
19,716833	0,5	-1,011000
19,725167	0,5	-1,013650
19,733500	0,5	-1,010150
19,741833	0,5	-1,009250
19,750167	0,5	-1,027250
19,758500	0,5	-1,040250
19,766833	0,5	-1,055450
19,775167	0,5	-1,047250
19,783500	0,5	-1,048200
19,791833	0,5	-1,050700
19,800167	0,5	-1,052650
19,808500	0,5	-1,055850
19,816833	0,5	-1,051600
19,825167	0,5	-1,052450
19,833500	0,5	-1,049500
19,841833	0,5	-1,055700
19,850167	0,5	-1,049650
19,858500	0,5	-1,049750
19,866833	0,5	-1,057850
19,875167	0,5	-1,057500
19,883500	0,5	-1,053000
19,891833	0,5	-1,061100
19,900167	0,5	-1,065200
19,908500	0,5	-1,092600
19,916833	0,5	-1,095700
19,925167	0,5	-1,096950
19,933500	0,5	-1,092700
19,941833	0,5	-1,095900
19,950167	0,5	-1,094050
19,958500	0,5	-1,093150
19,966833	0,5	-1,091800
19,975167	0,5	-1,087500
19,983500	0,5	-1,091900
19,991833	0,5	-1,088400
20,000167	0,5	-1,082950
20,008500	0,5	-1,080550
20,016833	0,5	-1,093350
20,025167	0,5	-1,079250
20,033500	0,5	-1,083250
20,041833	0,5	-1,086850
20,050167	0,5	-1,109000
20,058500	0,5	-1,119450
20,066833	0,5	-1,124450
20,075167	0,5	-1,116350
20,083500	0,5	-1,118200
20,091833	0,5	-1,116100
20,100167	0,5	-1,118250
20,108500	0,5	-1,120200
20,116833	0,5	-1,122250
20,125167	0,5	-1,124250
20,133500	0,5	-1,126800
20,141833	0,5	-1,128100
20,150167	0,5	-1,120050
20,158500	0,5	-1,137550
20,166833	0,5	-1,129450
20,175167	0,5	-1,124950
20,183500	0,5	-1,124650
20,191833	0,5	-1,133600
20,200167	0,5	-1,147100
20,208500	0,5	-1,155250
20,216833	0,5	-1,145750
20,225167	0,5	-1,146050
20,233500	0,5	-1,143850
20,241833	0,5	-1,143350
20,250167	0,5	-1,136150
20,258500	0,5	-1,133600
20,266833	0,5	-1,122800
20,275167	0,5	-1,120000
20,283500	0,5	-1,120000
20,291833	0,5	-1,105100
20,300167	0,5	-1,098300
20,308500	0,5	-1,108900
20,316833	0,5	-1,095350
20,325167	0,5	-1,087050
20,333500	0,5	-1,088450
20,341833	0,5	-1,090650
20,350167	0,5	-1,106950
20,358500	0,5	-1,096650
20,366833	0,5	-1,097000
20,375167	0,5	-1,084300
20,383500	0,5	-1,083050
20,391833	0,5	-1,070650
20,400167	0,5	-1,066650
20,408500	0,5	-1,056950
20,416833	0,5	-1,047900
20,425167	0,5	-1,045250
20,433500	0,5	-1,034900
20,441833	0,5	-1,009800
20,450167	0,5	-1,010150
20,458500	0,5	-1,004200
20,466833	0,5	-0,992900
20,475167	0,5	-0,986500
20,483500	0,5	-0,989050
20,491833	0,5	-1,006850
20,500167	0,5	-1,004000
20,508500	0,5	-0,996950
20,516833	0,5	-0,986850
20,525167	0,5	-0,984550
20,533500	0,5	-0,976650
20,541833	0,5	-0,974950
20,550167	0,5	-0,962650
20,558500	0,5	-0,961250
20,566833	0,5	-0,952200
20,575167	0,5	-0,947050
20,583500	0,5	-0,930100
20,591833	0,5	-0,915300
20,600167	0,5	-0,923900
20,608500	0,5	-0,913650
20,616833	0,5	-0,917600
20,625167	0,5	-0,915300
20,633500	0,5	-0,929100
20,641833	0,5	-0,954600
20,650167	0,5	-0,952950
20,658500	0,5	-0,946500
20,666833	0,5	-0,954800
20,675167	0,5	-0,954000
20,683500	0,5	-0,954700
20,691833	0,5	-0,951600
20,700167	0,5	-0,951650
20,708500	0,5	-0,948950
20,716833	0,5	-0,951650
20,725167	0,5	-0,950700
20,733500	0,5	-0,926050
20,741833	0,5	-0,918600
20,750167	0,5	-0,929350
20,758500	0,5	-0,919750
20,766833	0,5	-0,922200
20,775167	0,5	-0,927300
20,783500	0,5	-0,932750
20,791833	0,5	-0,952750
20,800167	0,5	-0,937050
20,808500	0,5	-0,935200
20,816833	0,5	-0,927000
20,825167	0,5	-0,926700
20,833500	0,5	-0,916400
20,841833	0,5	-0,918550
20,850167	0,5	-0,906200
20,858500	0,5	-0,901800
20,866833	0,5	-0,891750
20,875167	0,5	-0,870250
20,883500	0,5	-0,842400
20,891833	0,5	-0,830850
20,900167	0,5	-0,827600
20,908500	0,5	-0,814450
20,916833	0,5	-0,814400
20,925167	0,5	-0,816850
20,933500	0,5	-0,832350
20,941833	0,5	-0,831550
20,950167	0,5	-0,830950
20,958500	0,5	-0,815750
20,966833	0,5	-0,813000
20,975167	0,5	-0,798900
20,983500	0,5	-0,798150
20,991833	0,5	-0,784950
21,000167	0,5	-0,776400
21,008500	0,5	-0,766650
21,016833	0,5	-0,760900
21,025167	0,5	-0,728350
21,033500	0,5	-0,717200
21,041833	0,5	-0,719900
21,050167	0,5	-0,716550
21,058500	0,5	-0,714900
21,066833	0,5	-0,720700
21,075167	0,5	-0,741750
21,083500	0,5	-0,750400
21,091833	0,5	-0,753950
21,100167	0,5	-0,744050
21,108500	0,5	-0,751350
21,116833	0,5	-0,743400
21,125167	0,5	-0,741850
21,133500	0,5	-0,735750
21,141833	0,5	-0,731850
21,150167	0,5	-0,723950
21,158500	0,5	-0,725900
21,166833	0,5	-0,709800
21,175167	0,5	-0,686550
21,183500	0,5	-0,672050
21,191833	0,5	-0,675450
21,200167	0,5	-0,673950
21,208500	0,5	-0,678700
21,216833	0,5	-0,676350
21,225167	0,5	-0,685250
21,233500	0,5	-0,685850
21,241833	0,5	-0,666200
21,250167	0,5	-0,661850
21,258500	0,5	-0,649550
21,266833	0,5	-0,644250
21,275167	0,5	-0,630850
21,283500	0,5	-0,625750
21,291833	0,5	-0,608200
21,300167	0,5	-0,601700
21,308500	0,5	-0,589550
21,316833	0,5	-0,555250
21,325167	0,5	-0,529300
21,333500	0,5	-0,525650
21,341833	0,5	-0,516800
21,350167	0,5	-0,505250
21,358500	0,5	-0,509250
21,366833	0,5	-0,503600
21,375167	0,5	-0,516250
21,383500	0,5	-0,494500
21,391833	0,5	-0,491600
21,400167	0,5	-0,475350
21,408500	0,5	-0,466900
21,416833	0,5	-0,450800
21,425167	0,5	-0,439100
21,433500	0,5	-0,422100
21,441833	0,5	-0,408050
21,450167	0,5	-0,395500
21,458500	0,5	-0,377150
21,466833	0,5	-0,338250
21,475167	0,5	-0,318950
21,483500	0,5	-0,315700
21,491833	0,5	-0,304050
21,500167	0,5	-0,295300
21,508500	0,5	-0,290600
21,516833	0,5	-0,298000
21,525167	0,5	-0,277050
21,533500	0,5	-0,262450
21,541833	0,5	-0,230900
21,550167	0,5	-0,221250
21,558500	0,5	-0,196950
21,566833	0,5	-0,180100
21,575167	0,5	-0,152750
21,583500	0,5	-0,129200
21,591833	0,5	-0,099200
21,600167	0,5	-0,068750
21,608500	0,5	-0,016750
21,616833	0,5	0,028900
21,625167	0,5	0,046500
21,633500	0,5	0,067800
21,641833	0,5	0,070350
21,650167	0,5	0,066500
21,658500	0,5	0,058250
21,666833	0,5	0,047000
21,675167	0,5	0,058500
21,683500	0,5	0,077650
21,691833	0,5	0,086800
21,700167	0,5	0,108300
21,708500	0,5	0,114650
21,716833	0,5	0,137400
21,725167	0,5	0,154950
21,733500	0,5	0,175350
21,741833	0,5	0,195100
21,750167	0,5	0,215700
21,758500	0,5	0,257500
21,766833	0,5	0,281450
21,775167	0,5	0,299700
21,783500	0,5	0,337950
21,791833	0,5	0,364450
21,800167	0,5	0,387550
21,808500	0,5	0,416800
21,816833	0,5	0,439400
21,825167	0,5	0,484950
21,833500	0,5	0,514050
21,841833	0,5	0,551200
21,850167	0,5	0,584250
21,858500	0,5	0,625750
21,866833	0,5	0,654400
21,875167	0,5	0,691250
21,883500	0,5	0,716600
21,891833	0,5	0,745100
21,900167	0,5	0,777550
21,908500	0,5	0,803450
21,916833	0,5	0,819000
21,925167	0,5	0,856450
21,933500	0,5	0,887400
21,941833	0,5	0,911600
21,950167	0,5	0,937850
21,958500	0,5	0,959300
21,966833	0,5	0,992900
21,975167	0,5	1,026350
21,983500	0,5	1,069550
21,991833	0,5	1,097400
22,000167	0,5	1,141400
22,008500	0,5	1,178350
22,016833	0,5	1,225600
22,025167	0,5	1,267350
22,033500	0,5	1,310650
22,041833	0,5	1,351600
22,050167	0,5	1,396700
22,058500	0,5	1,433300
22,066833	0,5	1,479400
22,075167	0,5	1,527950
22,083500	0,5	1,559100
22,091833	0,5	1,595000
22,100167	0,5	1,612850
22,108500	0,5	1,648900
22,116833	0,5	1,688750
22,125167	0,5	1,742350
22,133500	0,5	1,791200
22,141833	0,5	1,845300
22,150167	0,5	1,885000
22,158500	0,5	1,940700
22,166833	0,5	1,980100
22,175167	0,5	2,034750
22,183500	0,5	2,080200
22,191833	0,5	2,118300
22,200167	0,5	2,160950
22,208500	0,5	2,210800
22,216833	0,5	2,273150
22,225167	0,5	2,330650
22,233500	0,5	2,372900
22,241833	0,5	2,417300
22,250167	0,5	2,462050
22,258500	0,5	2,516350
22,266833	0,5	2,579900
22,275167	0,5	2,630750
22,283500	0,5	2,688500
22,291833	0,5	2,741150
22,300167	0,5	2,802250
22,308500	0,5	2,851950
22,316833	0,5	2,908600
22,325167	0,5	2,953950
22,333500	0,5	3,008700
22,341833	0,5	3,039750
22,350167	0,5	3,088850
22,358500	0,5	3,158850
22,366833	0,5	3,228650
22,375167	0,5	3,288750
22,383500	0,5	3,339500
22,391833	0,5	3,388600
22,400167	0,5	3,439150
22,408500	0,5	3,515800
22,416833	0,5	3,570700
22,425167	0,5	3,642500
22,433500	0,5	3,708700
22,441833	0,5	3,781900
22,450167	0,5	3,844050
22,458500	0,5	3,923850
22,466833	0,5	3,985050
22,475167	0,5	4,052950
22,483500	0,5	4,100700
22,491833	0,5	4,151600
22,500167	0,5	4,213200
22,508500	0,5	4,306750
22,516833	0,5	4,370800
22,525167	0,5	4,429500
22,533500	0,5	4,478250
22,541833	0,5	4,517150
22,550167	0,5	4,576500
22,558500	0,5	4,625950
22,566833	0,5	4,678800
22,575167	0,5	4,711550
22,583500	0,5	4,750300
22,591833	0,5	4,772600
22,600167	0,5	4,790500
22,608500	0,5	4,798900
22,616833	0,5	4,805700
22,625167	0,5	4,800100
22,633500	0,5	4,726900
22,641833	0,5	4,724250
22,650167	0,5	4,705250
22,658500	0,5	4,683950
22,666833	0,5	4,627850
22,675167	0,5	4,557150
22,683500	0,5	4,478700
22,691833	0,5	4,382550
22,700167	0,5	4,302550
22,708500	0,5	4,215500
22,716833	0,5	4,115200
22,725167	0,5	4,014650
22,733500	0,5	3,905350
22,741833	0,5	3,800000
22,750167	0,5	3,678350
22,758500	0,5	3,551550
22,766833	0,5	3,415900
22,775167	0,5	3,262050
22,783500	0,5	3,058400
22,791833	0,5	2,932450
22,800167	0,5	2,782100
22,808500	0,5	2,622150
22,816833	0,5	2,446050
22,825167	0,5	2,278350
22,833500	0,5	2,104300
22,841833	0,5	1,932950
22,850167	0,5	1,759200
22,858500	0,5	1,593100
22,866833	0,5	1,425600
22,875167	0,5	1,266500
22,883500	0,5	1,101700
22,891833	0,5	0,947350
22,900167	0,5	0,785300
22,908500	0,5	0,631550
22,916833	0,5	0,470200
22,925167	0,5	0,321100
22,933500	0,5	0,162300
22,941833	0,5	0,022750
22,950167	0,5	-0,152100
22,958500	0,5	-0,301650
22,966833	0,5	-0,438100
22,975167	0,5	-0,559500
22,983500	0,5	-0,672850
22,991833	0,5	-0,792850
23,000167	0,5	-0,903100
23,008500	0,5	-1,004600
23,016833	0,5	-1,093550
23,025167	0,5	-1,183900
23,033500	0,5	-1,263900
23,041833	0,5	-1,354750
23,050167	0,5	-1,432900
23,058500	0,5	-1,516450
23,066833	0,5	-1,577050
23,075167	0,5	-1,648700
23,083500	0,5	-1,711200
23,091833	0,5	-1,777900
23,100167	0,5	-1,872050
23,108500	0,5	-1,932750
23,116833	0,5	-1,973200
23,125167	0,5	-2,000150
23,133500	0,5	-2,030400
23,141833	0,5	-2,060950
23,150167	0,5	-2,086950
23,158500	0,5	-2,100750
23,166833	0,5	-2,114600
23,175167	0,5	-2,124050
23,183500	0,5	-2,134500
23,191833	0,5	-2,137650
23,200167	0,5	-2,148650
23,208500	0,5	-2,153100
23,216833	0,5	-2,150250
23,225167	0,5	-2,190700
23,233500	0,5	-2,169100
23,241833	0,5	-2,168950
23,250167	0,5	-2,201050
23,258500	0,5	-2,203800
23,266833	0,5	-2,203200
23,275167	0,5	-2,183400
23,283500	0,5	-2,175800
23,291833	0,5	-2,161700
23,300167	0,5	-2,143850
23,308500	0,5	-2,115950
23,316833	0,5	-2,092100
23,325167	0,5	-2,065200
23,333500	0,5	-2,037050
23,341833	0,5	-2,016000
23,350167	0,5	-1,987600
23,358500	0,5	-1,969000
23,366833	0,5	-1,999700
23,375167	0,5	-1,953150
23,383500	0,5	-1,918650
23,391833	0,5	-1,884250
23,400167	0,5	-1,886500
23,408500	0,5	-1,881350
23,416833	0,5	-1,864650
23,425167	0,5	-1,848250
23,433500	0,5	-1,834500
23,441833	0,5	-1,818050
23,450167	0,5	-1,797250
23,458500	0,5	-1,781250
23,466833	0,5	-1,758400
23,475167	0,5	-1,737200
23,483500	0,5	-1,714100
23,491833	0,5	-1,694250
23,500167	0,5	-1,677250
23,508500	0,5	-1,670550
23,516833	0,5	-1,745900
23,525167	0,5	-1,699450
23,533500	0,5	-1,639700
23,541833	0,5	-1,604550
23,550167	0,5	-1,600850
23,558500	0,5	-1,592750
23,566833	0,5	-1,586650
23,575167	0,5	-1,578400
23,583500	0,5	-1,572800
23,591833	0,5	-1,561100
23,600167	0,5	-1,552900
23,608500	0,5	-1,546250
23,616833	0,5	-1,541400
23,625167	0,5	-1,532550
23,633500	0,5	-1,528200
23,641833	0,5	-1,520450
23,650167	0,5	-1,521100
23,658500	0,5	-1,607450
23,666833	0,5	-1,643400
23,675167	0,5	-1,608050
23,683500	0,5	-1,554250
23,691833	0,5	-1,528550
23,700167	0,5	-1,525950
23,708500	0,5	-1,527750
23,716833	0,5	-1,529600
23,725167	0,5	-1,527800
23,733500	0,5	-1,518900
23,741833	0,5	-1,510050
23,750167	0,5	-1,502950
23,758500	0,5	-1,490800
23,766833	0,5	-1,484950
23,775167	0,5	-1,474450
23,783500	0,5	-1,468850
23,791833	0,5	-1,462650
23,800167	0,5	-1,464400
23,808500	0,5	-1,616150
23,816833	0,5	-1,586400
23,825167	0,5	-1,549450
23,833500	0,5	-1,495200
23,841833	0,5	-1,481150
23,850167	0,5	-1,480000
23,858500	0,5	-1,488200
23,866833	0,5	-1,496850
23,875167	0,5	-1,506400
23,883500	0,5	-1,488350
23,891833	0,5	-1,487200
23,900167	0,5	-1,474250
23,908500	0,5	-1,464950
23,916833	0,5	-1,455850
23,925167	0,5	-1,444300
23,933500	0,5	-1,431900
23,941833	0,5	-1,423000
23,950167	0,5	-1,445650
23,958500	0,5	-1,554900
23,966833	0,5	-1,513000
23,975167	0,5	-1,467850
23,983500	0,5	-1,416850
23,991833	0,5	-1,397300
24,000167	0,5	-1,387300
24,008500	0,5	-1,388500
24,016833	0,5	-1,390900
24,025167	0,5	-1,374250
24,033500	0,5	-1,361250
24,041833	0,5	-1,346000
24,050167	0,5	-1,339100
24,058500	0,5	-1,322550
24,066833	0,5	-1,312900
24,075167	0,5	-1,293950
24,083500	0,5	-1,288050
24,091833	0,5	-1,278200
24,100167	0,5	-1,360400
24,108500	0,5	-1,377700
24,116833	0,5	-1,360000
24,125167	0,5	-1,303800
24,133500	0,5	-1,268950
24,141833	0,5	-1,246950
24,150167	0,5	-1,242100
24,158500	0,5	-1,248000
24,166833	0,5	-1,237850
24,175167	0,5	-1,222650
24,183500	0,5	-1,202150
24,191833	0,5	-1,186400
24,200167	0,5	-1,165300
24,208500	0,5	-1,146700
24,216833	0,5	-1,125200
24,225167	0,5	-1,109550
24,233500	0,5	-1,090900
24,241833	0,5	-1,084950
24,250167	0,5	-1,167650
24,258500	0,5	-1,146450
24,266833	0,5	-1,116200
24,275167	0,5	-1,071750
24,283500	0,5	-1,041500
24,291833	0,5	-1,034900
24,300167	0,5	-1,025900
24,308500	0,5	-1,034500
24,316833	0,5	-1,015800
24,325167	0,5	-1,003900
24,333500	0,5	-0,990500
24,341833	0,5	-0,980250
24,350167	0,5	-0,967400
24,358500	0,5	-0,959000
24,366833	0,5	-0,943550
24,375167	0,5	-0,927700
24,383500	0,5	-0,918600
24,391833	0,5	-0,926850
24,400167	0,5	-0,980300
24,408500	0,5	-0,945600
24,416833	0,5	-0,923650
24,425167	0,5	-0,878500
24,433500	0,5	-0,860200
24,441833	0,5	-0,848050
24,450167	0,5	-0,840500
24,458500	0,5	-0,839950
24,466833	0,5	-0,819500
24,475167	0,5	-0,806200
24,483500	0,5	-0,795900
24,491833	0,5	-0,784150
24,500167	0,5	-0,773550
24,508500	0,5	-0,757450
24,516833	0,5	-0,744650
24,525167	0,5	-0,737200
24,533500	0,5	-0,728100
24,541833	0,5	-0,772400
24,550167	0,5	-0,765650
24,558500	0,5	-0,756700
24,566833	0,5	-0,729550
24,575167	0,5	-0,708650
24,583500	0,5	-0,693250
24,591833	0,5	-0,691300
24,600167	0,5	-0,692300
24,608500	0,5	-0,692250
24,616833	0,5	-0,673400
24,625167	0,5	-0,665550
24,633500	0,5	-0,648300
24,641833	0,5	-0,638250
24,650167	0,5	-0,624050
24,658500	0,5	-0,611100
24,666833	0,5	-0,596250
24,675167	0,5	-0,587150
24,683500	0,5	-0,579900
24,691833	0,5	-0,610350
24,700167	0,5	-0,593950
24,708500	0,5	-0,579700
24,716833	0,5	-0,557500
24,725167	0,5	-0,543550
24,733500	0,5	-0,534650
24,741833	0,5	-0,532500
24,750167	0,5	-0,534000
24,758500	0,5	-0,527950
24,766833	0,5	-0,524350
24,775167	0,5	-0,511300
24,783500	0,5	-0,508650
24,791833	0,5	-0,498200
24,800167	0,5	-0,490400
24,808500	0,5	-0,483800
24,816833	0,5	-0,477650
24,825167	0,5	-0,467550
24,833500	0,5	-0,465500
24,841833	0,5	-0,483250
24,850167	0,5	-0,468150
24,858500	0,5	-0,456400
24,866833	0,5	-0,437900
24,875167	0,5	-0,430000
24,883500	0,5	-0,421000
24,891833	0,5	-0,417450
24,900167	0,5	-0,416250
24,908500	0,5	-0,412000
24,916833	0,5	-0,400100
24,925167	0,5	-0,392900
24,933500	0,5	-0,383650
24,941833	0,5	-0,378200
24,950167	0,5	-0,372100
24,958500	0,5	-0,364950
24,966833	0,5	-0,357800
24,975167	0,5	-0,353550
24,983500	0,5	-0,361150
24,991833	0,5	-0,358250
25,000167	0,5	-0,351850
25,008500	0,5	-0,345500
25,016833	0,5	-0,337950
25,025167	0,5	-0,333150
25,033500	0,5	-0,327900
25,041833	0,5	-0,330300
25,050167	0,5	-0,328250
25,058500	0,5	-0,319600
25,066833	0,5	-0,313650
25,075167	0,5	-0,307800
25,083500	0,5	-0,305700
25,091833	0,5	-0,293650
25,100167	0,5	-0,289350
25,108500	0,5	-0,281050
25,116833	0,5	-0,276750
25,125167	0,5	-0,273650
25,133500	0,5	-0,272300
25,141833	0,5	-0,265900
25,150167	0,5	-0,262700
25,158500	0,5	-0,256000
25,166833	0,5	-0,253850
25,175167	0,5	-0,249100
25,183500	0,5	-0,246250
25,191833	0,5	-0,249450
25,200167	0,5	-0,247700
25,208500	0,5	-0,245250
25,216833	0,5	-0,243950
25,225167	0,5	-0,242100
25,233500	0,5	-0,241700
25,241833	0,5	-0,235600
25,250167	0,5	-0,234000
25,258500	0,5	-0,228950
25,266833	0,5	-0,226450
25,275167	0,5	-0,222600
25,283500	0,5	-0,218200
25,291833	0,5	-0,214000
25,300167	0,5	-0,210600
25,308500	0,5	-0,207800
25,316833	0,5	-0,203250
25,325167	0,5	-0,202800
25,333500	0,5	-0,197400
25,341833	0,5	-0,195450
25,350167	0,5	-0,193350
25,358500	0,5	-0,194000
25,366833	0,5	-0,192000
25,375167	0,5	-0,189500
25,383500	0,5	-0,187350
25,391833	0,5	-0,186000
25,400167	0,5	-0,185150
25,408500	0,5	-0,184050
25,416833	0,5	-0,182000
25,425167	0,5	-0,176000
25,433500	0,5	-0,171300
25,441833	0,5	-0,174950
25,450167	0,5	-0,172650
25,458500	0,5	-0,174950
25,466833	0,5	-0,174000
25,475167	0,5	-0,172700
25,483500	0,5	-0,170000
25,491833	0,5	-0,166250
25,500167	0,5	-0,164100
25,508500	0,5	-0,163350
25,516833	0,5	-0,161650
25,525167	0,5	-0,159900
25,533500	0,5	-0,156700
25,541833	0,5	-0,151150
25,550167	0,5	-0,153500
25,558500	0,5	-0,151250
25,566833	0,5	-0,150700
25,575167	0,5	-0,136950
25,583500	0,5	-0,142850
25,591833	0,5	-0,136450
25,600167	0,5	-0,144950
25,608500	0,5	-0,145100
25,616833	0,5	-0,145350
25,625167	0,5	-0,144750
25,633500	0,5	-0,140800
25,641833	0,5	-0,138950
25,650167	0,5	-0,142550
25,658500	0,5	-0,140850
25,666833	0,5	-0,140700
25,675167	0,5	-0,139200
25,683500	0,5	-0,137850
25,691833	0,5	-0,137150
25,700167	0,5	-0,134500
25,708500	0,5	-0,133150
25,716833	0,5	-0,128900
25,725167	0,5	-0,119100
25,733500	0,5	-0,120200
25,741833	0,5	-0,114800
25,750167	0,5	-0,121850
25,758500	0,5	-0,119150
25,766833	0,5	-0,116700
25,775167	0,5	-0,112300
25,783500	0,5	-0,103750
25,791833	0,5	-0,103050
25,800167	0,5	-0,100050
25,808500	0,5	-0,102750
25,816833	0,5	-0,096650
25,825167	0,5	-0,102250
25,833500	0,5	-0,097600
25,841833	0,5	-0,101550
25,850167	0,5	-0,099950
25,858500	0,5	-0,096650
25,866833	0,5	-0,092750
25,875167	0,5	-0,086350
25,883500	0,5	-0,081750
25,891833	0,5	-0,081750
25,900167	0,5	-0,090200
25,908500	0,5	-0,087200
25,916833	0,5	-0,088100
25,925167	0,5	-0,075900
25,933500	0,5	-0,071600
25,941833	0,5	-0,063700
25,950167	0,5	-0,067100
25,958500	0,5	-0,067750
25,966833	0,5	-0,070200
25,975167	0,5	-0,068950
25,983500	0,5	-0,069750
25,991833	0,5	-0,070300
26,000167	0,5	-0,071150
