File Path	chrom://chromeleon01/ikbm_chromeleon/2022/ICS-5000/ED1/Esteban/20220612_Cell_7_4_eg.seq/998.smp/ED_1.channel/ED_1.chm
Channel	ED_1

Injection Information:
Data Vault	ikbm_chromeleon
Injection	Std_C1ox-0.02_2
Injection Number	70
Position	RA1
Comment	
Processing Method	Stop sequence after Cell Death
Instrument Method	ICS5000_PA200_FullNative_Ox_26min_ED1
Type	Unknown
Status	Finished
Injection Date	14.06.2022
Injection Time	00:55:46
Injection Volume (µl)	5,0
Dilution Factor	1,0000
Weight	1,0000

Chromatogram Data Information:
Time Min. (min)	0,000167
Time Max. (min)	26,000167
Data Points	3121
Detector	EDet1
Generating Data System	Chromeleon 7.2.9.11323
Exporting Data System	Chromeleon 7.2.9.0
Operator	Instrument Controller
Signal Quantity	
Signal Unit	nC
Signal Min.	-2,289750
Signal Max.	99,493901
Channel	ED_1
Driver Name	DC-5000
Channel Type	Evaluation
Min. Step (s)	0,5
Max. Step (s)	0,5
Average Step (s)	0,5

Signal Parameter Information:
Signal Info	

Chromatogram Data:
Time (min)	Step (s)	Value (nC)
0,000167	n.a.	-0,005600
0,008500	0,5	-0,068500
0,016833	0,5	-0,056600
0,025167	0,5	-0,048400
0,033500	0,5	-0,034050
0,041833	0,5	-0,037900
0,050167	0,5	-0,023650
0,058500	0,5	-0,022300
0,066833	0,5	-0,010750
0,075167	0,5	-0,034900
0,083500	0,5	-0,008650
0,091833	0,5	-0,010150
0,100167	0,5	-0,025450
0,108500	0,5	-0,035450
0,116833	0,5	-0,024950
0,125167	0,5	-0,008300
0,133500	0,5	0,014350
0,141833	0,5	-0,000700
0,150167	0,5	0,018850
0,158500	0,5	0,008900
0,166833	0,5	0,010100
0,175167	0,5	0,003500
0,183500	0,5	0,003500
0,191833	0,5	0,000850
0,200167	0,5	-0,002350
0,208500	0,5	0,003750
0,216833	0,5	-0,009850
0,225167	0,5	-0,017550
0,233500	0,5	0,001100
0,241833	0,5	-0,016050
0,250167	0,5	-0,016500
0,258500	0,5	-0,015200
0,266833	0,5	-0,011100
0,275167	0,5	0,016850
0,283500	0,5	0,009000
0,291833	0,5	0,010450
0,300167	0,5	0,008250
0,308500	0,5	0,023000
0,316833	0,5	0,013850
0,325167	0,5	0,008450
0,333500	0,5	-0,001900
0,341833	0,5	0,003550
0,350167	0,5	0,008300
0,358500	0,5	0,002700
0,366833	0,5	0,001250
0,375167	0,5	-0,005700
0,383500	0,5	0,016600
0,391833	0,5	-0,006950
0,400167	0,5	-0,008350
0,408500	0,5	-0,007850
0,416833	0,5	0,005800
0,425167	0,5	0,027550
0,433500	0,5	0,032700
0,441833	0,5	0,024650
0,450167	0,5	0,032050
0,458500	0,5	0,024150
0,466833	0,5	0,028100
0,475167	0,5	0,018750
0,483500	0,5	0,022050
0,491833	0,5	0,015400
0,500167	0,5	0,021350
0,508500	0,5	0,024250
0,516833	0,5	0,021450
0,525167	0,5	0,018350
0,533500	0,5	0,039200
0,541833	0,5	0,014200
0,550167	0,5	0,016400
0,558500	0,5	0,017500
0,566833	0,5	0,035100
0,575167	0,5	0,060100
0,583500	0,5	0,052200
0,591833	0,5	0,054250
0,600167	0,5	0,049850
0,608500	0,5	0,056950
0,616833	0,5	0,053750
0,625167	0,5	0,056400
0,633500	0,5	0,055250
0,641833	0,5	0,059900
0,650167	0,5	0,059500
0,658500	0,5	0,054500
0,666833	0,5	0,047900
0,675167	0,5	0,066600
0,683500	0,5	0,057300
0,691833	0,5	0,049900
0,700167	0,5	0,055450
0,708500	0,5	0,064600
0,716833	0,5	0,079150
0,725167	0,5	0,099200
0,733500	0,5	0,106300
0,741833	0,5	0,101050
0,750167	0,5	0,097850
0,758500	0,5	0,099200
0,766833	0,5	0,099500
0,775167	0,5	0,097400
0,783500	0,5	0,101000
0,791833	0,5	0,094600
0,800167	0,5	0,100000
0,808500	0,5	0,090650
0,816833	0,5	0,097850
0,825167	0,5	0,124250
0,833500	0,5	0,109950
0,841833	0,5	0,096050
0,850167	0,5	0,099800
0,858500	0,5	0,109750
0,866833	0,5	0,141800
0,875167	0,5	0,141200
0,883500	0,5	0,143750
0,891833	0,5	0,138750
0,900167	0,5	0,146350
0,908500	0,5	0,141200
0,916833	0,5	0,145700
0,925167	0,5	0,149000
0,933500	0,5	0,143450
0,941833	0,5	0,152300
0,950167	0,5	0,152050
0,958500	0,5	0,157000
0,966833	0,5	0,157600
0,975167	0,5	0,170350
0,983500	0,5	0,153900
0,991833	0,5	0,150400
1,000167	0,5	0,153650
1,008500	0,5	0,174300
1,016833	0,5	0,190450
1,025167	0,5	0,190550
1,033500	0,5	0,180150
1,041833	0,5	0,190200
1,050167	0,5	0,187350
1,058500	0,5	0,197500
1,066833	0,5	0,198200
1,075167	0,5	0,197500
1,083500	0,5	0,195200
1,091833	0,5	0,195950
1,100167	0,5	0,207800
1,108500	0,5	0,195700
1,116833	0,5	0,216650
1,125167	0,5	0,214900
1,133500	0,5	0,203500
1,141833	0,5	0,199100
1,150167	0,5	0,211400
1,158500	0,5	0,223600
1,166833	0,5	0,242350
1,175167	0,5	0,226600
1,183500	0,5	0,243900
1,191833	0,5	0,242600
1,200167	0,5	0,246700
1,208500	0,5	0,246300
1,216833	0,5	0,249500
1,225167	0,5	0,243800
1,233500	0,5	0,249500
1,241833	0,5	0,251600
1,250167	0,5	0,248150
1,258500	0,5	0,238900
1,266833	0,5	0,260500
1,275167	0,5	0,250450
1,283500	0,5	0,245100
1,291833	0,5	0,244950
1,300167	0,5	0,259500
1,308500	0,5	0,285650
1,316833	0,5	0,285500
1,325167	0,5	0,287050
1,333500	0,5	0,278250
1,341833	0,5	0,286800
1,350167	0,5	0,283450
1,358500	0,5	0,288600
1,366833	0,5	0,280700
1,375167	0,5	0,283850
1,383500	0,5	0,282400
1,391833	0,5	0,285300
1,400167	0,5	0,289100
1,408500	0,5	0,285150
1,416833	0,5	0,292750
1,425167	0,5	0,273050
1,433500	0,5	0,270250
1,441833	0,5	0,273850
1,450167	0,5	0,276650
1,458500	0,5	0,296850
1,466833	0,5	0,300400
1,475167	0,5	0,295100
1,483500	0,5	0,294000
1,491833	0,5	0,294400
1,500167	0,5	0,294600
1,508500	0,5	0,283950
1,516833	0,5	0,280650
1,525167	0,5	0,271150
1,533500	0,5	0,272850
1,541833	0,5	0,269450
1,550167	0,5	0,269200
1,558500	0,5	0,238100
1,566833	0,5	0,133300
1,575167	0,5	-0,224950
1,583500	0,5	-0,831650
1,591833	0,5	-1,390750
1,600167	0,5	-1,361750
1,608500	0,5	-0,533100
1,616833	0,5	0,939250
1,625167	0,5	3,003950
1,633500	0,5	5,363700
1,641833	0,5	7,194750
1,650167	0,5	7,737650
1,658500	0,5	7,096500
1,666833	0,5	5,989150
1,675167	0,5	4,992050
1,683500	0,5	4,261000
1,691833	0,5	3,787400
1,700167	0,5	3,499300
1,708500	0,5	3,405150
1,716833	0,5	3,406900
1,725167	0,5	3,420050
1,733500	0,5	3,342500
1,741833	0,5	3,178500
1,750167	0,5	3,014100
1,758500	0,5	2,859850
1,766833	0,5	2,756150
1,775167	0,5	2,809750
1,783500	0,5	3,043150
1,791833	0,5	3,387600
1,800167	0,5	3,693750
1,808500	0,5	3,889550
1,816833	0,5	3,958500
1,825167	0,5	3,929200
1,833500	0,5	3,818000
1,841833	0,5	3,616050
1,850167	0,5	3,384350
1,858500	0,5	3,168450
1,866833	0,5	2,932300
1,875167	0,5	2,725150
1,883500	0,5	2,553050
1,891833	0,5	2,408150
1,900167	0,5	2,320750
1,908500	0,5	2,267350
1,916833	0,5	2,265250
1,925167	0,5	2,256300
1,933500	0,5	2,223200
1,941833	0,5	2,157650
1,950167	0,5	2,126250
1,958500	0,5	2,123400
1,966833	0,5	2,186900
1,975167	0,5	2,450500
1,983500	0,5	3,217800
1,991833	0,5	4,778450
2,000167	0,5	7,462000
2,008500	0,5	12,403600
2,016833	0,5	21,968400
2,025167	0,5	36,097601
2,033500	0,5	47,821601
2,041833	0,5	49,443151
2,050167	0,5	41,776351
2,058500	0,5	31,272450
2,066833	0,5	22,531200
2,075167	0,5	16,660300
2,083500	0,5	13,094400
2,091833	0,5	10,968200
2,100167	0,5	9,470400
2,108500	0,5	8,203650
2,116833	0,5	7,103200
2,125167	0,5	6,231400
2,133500	0,5	5,592100
2,141833	0,5	5,131200
2,150167	0,5	4,834600
2,158500	0,5	4,632950
2,166833	0,5	4,466900
2,175167	0,5	4,353050
2,183500	0,5	4,271850
2,191833	0,5	4,205700
2,200167	0,5	4,145450
2,208500	0,5	4,073250
2,216833	0,5	4,035750
2,225167	0,5	4,016300
2,233500	0,5	4,023900
2,241833	0,5	4,024200
2,250167	0,5	4,054800
2,258500	0,5	4,082050
2,266833	0,5	4,130050
2,275167	0,5	4,177250
2,283500	0,5	4,241300
2,291833	0,5	4,290600
2,300167	0,5	4,380000
2,308500	0,5	4,439200
2,316833	0,5	4,503700
2,325167	0,5	4,572450
2,333500	0,5	4,649350
2,341833	0,5	4,733200
2,350167	0,5	4,811100
2,358500	0,5	4,877850
2,366833	0,5	4,946900
2,375167	0,5	5,017350
2,383500	0,5	5,084700
2,391833	0,5	5,147500
2,400167	0,5	5,207400
2,408500	0,5	5,290500
2,416833	0,5	5,373000
2,425167	0,5	5,454200
2,433500	0,5	5,510550
2,441833	0,5	5,566350
2,450167	0,5	5,631200
2,458500	0,5	5,656350
2,466833	0,5	5,688400
2,475167	0,5	5,723200
2,483500	0,5	5,755150
2,491833	0,5	5,795050
2,500167	0,5	5,810950
2,508500	0,5	5,830950
2,516833	0,5	5,844400
2,525167	0,5	5,859350
2,533500	0,5	5,865200
2,541833	0,5	5,876500
2,550167	0,5	5,877900
2,558500	0,5	5,873250
2,566833	0,5	5,869200
2,575167	0,5	5,856050
2,583500	0,5	5,849050
2,591833	0,5	5,847200
2,600167	0,5	5,861450
2,608500	0,5	5,858850
2,616833	0,5	5,897750
2,625167	0,5	5,976800
2,633500	0,5	6,165100
2,641833	0,5	6,481600
2,650167	0,5	6,944450
2,658500	0,5	7,481550
2,666833	0,5	7,959700
2,675167	0,5	8,208150
2,683500	0,5	8,222450
2,691833	0,5	8,152350
2,700167	0,5	8,308150
2,708500	0,5	9,013950
2,716833	0,5	10,550050
2,725167	0,5	12,933600
2,733500	0,5	15,656700
2,741833	0,5	17,782200
2,750167	0,5	18,376150
2,758500	0,5	17,248200
2,766833	0,5	14,989700
2,775167	0,5	12,440100
2,783500	0,5	10,219250
2,791833	0,5	8,536200
2,800167	0,5	7,337900
2,808500	0,5	6,516400
2,816833	0,5	5,930700
2,825167	0,5	5,517350
2,833500	0,5	5,191250
2,841833	0,5	4,942600
2,850167	0,5	4,735350
2,858500	0,5	4,562000
2,866833	0,5	4,413600
2,875167	0,5	4,274750
2,883500	0,5	4,152850
2,891833	0,5	4,063000
2,900167	0,5	3,944450
2,908500	0,5	3,839700
2,916833	0,5	3,758250
2,925167	0,5	3,675250
2,933500	0,5	3,607450
2,941833	0,5	3,500800
2,950167	0,5	3,402000
2,958500	0,5	3,297550
2,966833	0,5	3,201650
2,975167	0,5	3,102100
2,983500	0,5	3,017000
2,991833	0,5	2,933100
3,000167	0,5	2,859900
3,008500	0,5	2,795250
3,016833	0,5	2,753050
3,025167	0,5	2,716050
3,033500	0,5	2,711500
3,041833	0,5	2,720550
3,050167	0,5	2,703200
3,058500	0,5	2,671050
3,066833	0,5	2,607250
3,075167	0,5	2,509750
3,083500	0,5	2,400250
3,091833	0,5	2,266300
3,100167	0,5	2,137750
3,108500	0,5	2,038800
3,116833	0,5	1,949050
3,125167	0,5	1,868350
3,133500	0,5	1,788850
3,141833	0,5	1,721950
3,150167	0,5	1,649800
3,158500	0,5	1,595650
3,166833	0,5	1,540400
3,175167	0,5	1,479950
3,183500	0,5	1,433550
3,191833	0,5	1,385900
3,200167	0,5	1,326750
3,208500	0,5	1,283150
3,216833	0,5	1,243400
3,225167	0,5	1,211700
3,233500	0,5	1,181700
3,241833	0,5	1,139350
3,250167	0,5	1,104700
3,258500	0,5	1,066600
3,266833	0,5	1,030350
3,275167	0,5	0,994800
3,283500	0,5	0,956050
3,291833	0,5	0,916550
3,300167	0,5	0,885300
3,308500	0,5	0,849700
3,316833	0,5	0,822650
3,325167	0,5	0,780200
3,333500	0,5	0,762950
3,341833	0,5	0,734650
3,350167	0,5	0,710050
3,358500	0,5	0,690500
3,366833	0,5	0,692750
3,375167	0,5	0,703800
3,383500	0,5	0,714800
3,391833	0,5	0,710100
3,400167	0,5	0,715250
3,408500	0,5	0,701800
3,416833	0,5	0,684600
3,425167	0,5	0,650700
3,433500	0,5	0,611550
3,441833	0,5	0,575500
3,450167	0,5	0,538750
3,458500	0,5	0,510650
3,466833	0,5	0,470100
3,475167	0,5	0,449100
3,483500	0,5	0,439900
3,491833	0,5	0,419900
3,500167	0,5	0,410600
3,508500	0,5	0,415750
3,516833	0,5	0,441350
3,525167	0,5	0,500050
3,533500	0,5	0,555550
3,541833	0,5	0,643600
3,550167	0,5	0,733650
3,558500	0,5	0,831900
3,566833	0,5	0,895200
3,575167	0,5	0,923750
3,583500	0,5	0,890700
3,591833	0,5	0,824500
3,600167	0,5	0,732450
3,608500	0,5	0,623900
3,616833	0,5	0,518400
3,625167	0,5	0,439950
3,633500	0,5	0,370350
3,641833	0,5	0,304700
3,650167	0,5	0,262300
3,658500	0,5	0,226650
3,666833	0,5	0,217200
3,675167	0,5	0,205450
3,683500	0,5	0,200300
3,691833	0,5	0,184950
3,700167	0,5	0,182050
3,708500	0,5	0,176200
3,716833	0,5	0,177650
3,725167	0,5	0,183600
3,733500	0,5	0,194500
3,741833	0,5	0,203850
3,750167	0,5	0,221800
3,758500	0,5	0,237800
3,766833	0,5	0,248800
3,775167	0,5	0,257050
3,783500	0,5	0,249450
3,791833	0,5	0,214400
3,800167	0,5	0,189850
3,808500	0,5	0,161000
3,816833	0,5	0,148800
3,825167	0,5	0,126300
3,833500	0,5	0,097600
3,841833	0,5	0,082500
3,850167	0,5	0,067600
3,858500	0,5	0,060350
3,866833	0,5	0,048700
3,875167	0,5	0,050600
3,883500	0,5	0,035000
3,891833	0,5	0,031300
3,900167	0,5	0,021300
3,908500	0,5	0,012200
3,916833	0,5	0,003150
3,925167	0,5	0,023450
3,933500	0,5	0,012200
3,941833	0,5	0,014350
3,950167	0,5	0,028700
3,958500	0,5	0,052100
3,966833	0,5	0,105600
3,975167	0,5	0,146500
3,983500	0,5	0,213200
3,991833	0,5	0,283750
4,000167	0,5	0,375400
4,008500	0,5	0,467350
4,016833	0,5	0,563100
4,025167	0,5	0,656200
4,033500	0,5	0,748550
4,041833	0,5	0,849050
4,050167	0,5	0,976500
4,058500	0,5	1,134350
4,066833	0,5	1,375150
4,075167	0,5	1,719550
4,083500	0,5	2,135900
4,091833	0,5	2,659700
4,100167	0,5	3,256350
4,108500	0,5	3,870150
4,116833	0,5	4,439100
4,125167	0,5	4,852950
4,133500	0,5	5,074200
4,141833	0,5	5,060050
4,150167	0,5	4,819950
4,158500	0,5	4,383800
4,166833	0,5	3,827650
4,175167	0,5	3,229450
4,183500	0,5	2,648750
4,191833	0,5	2,149850
4,200167	0,5	1,741950
4,208500	0,5	1,442550
4,216833	0,5	1,247500
4,225167	0,5	1,136350
4,233500	0,5	1,082600
4,241833	0,5	1,106600
4,250167	0,5	1,220600
4,258500	0,5	1,434800
4,266833	0,5	1,771450
4,275167	0,5	2,229650
4,283500	0,5	2,840850
4,291833	0,5	3,597550
4,300167	0,5	4,438000
4,308500	0,5	5,294450
4,316833	0,5	6,049850
4,325167	0,5	6,611850
4,333500	0,5	6,893050
4,341833	0,5	6,852950
4,350167	0,5	6,507350
4,358500	0,5	5,891100
4,366833	0,5	5,137150
4,375167	0,5	4,293000
4,383500	0,5	3,471250
4,391833	0,5	2,732900
4,400167	0,5	2,125000
4,408500	0,5	1,643450
4,416833	0,5	1,275300
4,425167	0,5	0,982700
4,433500	0,5	0,784000
4,441833	0,5	0,621400
4,450167	0,5	0,511150
4,458500	0,5	0,422900
4,466833	0,5	0,356200
4,475167	0,5	0,298950
4,483500	0,5	0,259300
4,491833	0,5	0,225650
4,500167	0,5	0,191400
4,508500	0,5	0,163100
4,516833	0,5	0,154100
4,525167	0,5	0,124250
4,533500	0,5	0,107500
4,541833	0,5	0,094000
4,550167	0,5	0,095100
4,558500	0,5	0,100950
4,566833	0,5	0,091000
4,575167	0,5	0,086250
4,583500	0,5	0,075250
4,591833	0,5	0,072450
4,600167	0,5	0,063200
4,608500	0,5	0,061750
4,616833	0,5	0,052950
4,625167	0,5	0,052500
4,633500	0,5	0,047400
4,641833	0,5	0,050600
4,650167	0,5	0,049300
4,658500	0,5	0,064800
4,666833	0,5	0,067000
4,675167	0,5	0,061250
4,683500	0,5	0,066750
4,691833	0,5	0,083900
4,700167	0,5	0,110500
4,708500	0,5	0,139100
4,716833	0,5	0,166750
4,725167	0,5	0,188700
4,733500	0,5	0,222350
4,741833	0,5	0,257200
4,750167	0,5	0,302050
4,758500	0,5	0,345900
4,766833	0,5	0,411900
4,775167	0,5	0,487900
4,783500	0,5	0,598050
4,791833	0,5	0,739350
4,800167	0,5	0,932550
4,808500	0,5	1,208650
4,816833	0,5	1,543250
4,825167	0,5	1,957700
4,833500	0,5	2,445950
4,841833	0,5	2,961800
4,850167	0,5	3,471200
4,858500	0,5	3,878800
4,866833	0,5	4,144900
4,875167	0,5	4,242000
4,883500	0,5	4,155900
4,891833	0,5	3,908950
4,900167	0,5	3,539600
4,908500	0,5	3,098650
4,916833	0,5	2,634500
4,925167	0,5	2,196050
4,933500	0,5	1,799550
4,941833	0,5	1,462900
4,950167	0,5	1,179050
4,958500	0,5	0,975650
4,966833	0,5	0,784250
4,975167	0,5	0,647600
4,983500	0,5	0,541950
4,991833	0,5	0,466300
5,000167	0,5	0,417700
5,008500	0,5	0,373650
5,016833	0,5	0,337550
5,025167	0,5	0,318100
5,033500	0,5	0,304550
5,041833	0,5	0,299950
5,050167	0,5	0,300000
5,058500	0,5	0,298150
5,066833	0,5	0,309600
5,075167	0,5	0,315150
5,083500	0,5	0,325200
5,091833	0,5	0,314850
5,100167	0,5	0,310050
5,108500	0,5	0,305450
5,116833	0,5	0,279100
5,125167	0,5	0,251100
5,133500	0,5	0,232850
5,141833	0,5	0,212450
5,150167	0,5	0,205000
5,158500	0,5	0,177050
5,166833	0,5	0,161350
5,175167	0,5	0,141050
5,183500	0,5	0,134250
5,191833	0,5	0,121950
5,200167	0,5	0,117500
5,208500	0,5	0,109150
5,216833	0,5	0,101950
5,225167	0,5	0,100200
5,233500	0,5	0,101750
5,241833	0,5	0,097800
5,250167	0,5	0,097000
5,258500	0,5	0,103050
5,266833	0,5	0,092400
5,275167	0,5	0,088450
5,283500	0,5	0,089250
5,291833	0,5	0,100000
5,300167	0,5	0,106500
5,308500	0,5	0,101800
5,316833	0,5	0,100150
5,325167	0,5	0,103600
5,333500	0,5	0,097500
5,341833	0,5	0,093050
5,350167	0,5	0,084800
5,358500	0,5	0,079250
5,366833	0,5	0,073450
5,375167	0,5	0,068750
5,383500	0,5	0,069800
5,391833	0,5	0,061850
5,400167	0,5	0,061250
5,408500	0,5	0,051950
5,416833	0,5	0,040400
5,425167	0,5	0,032400
5,433500	0,5	0,034950
5,441833	0,5	0,037650
5,450167	0,5	0,045950
5,458500	0,5	0,034900
5,466833	0,5	0,031250
5,475167	0,5	0,025300
5,483500	0,5	0,020700
5,491833	0,5	0,014450
5,500167	0,5	0,012450
5,508500	0,5	0,006300
5,516833	0,5	-0,001500
5,525167	0,5	-0,002600
5,533500	0,5	-0,004450
5,541833	0,5	-0,010650
5,550167	0,5	-0,009150
5,558500	0,5	-0,025900
5,566833	0,5	-0,031300
5,575167	0,5	-0,037050
5,583500	0,5	-0,031600
5,591833	0,5	-0,024950
5,600167	0,5	-0,028350
5,608500	0,5	-0,031700
5,616833	0,5	-0,032900
5,625167	0,5	-0,033450
5,633500	0,5	-0,037250
5,641833	0,5	-0,040100
5,650167	0,5	-0,047400
5,658500	0,5	-0,046200
5,666833	0,5	-0,053000
5,675167	0,5	-0,055250
5,683500	0,5	-0,065300
5,691833	0,5	-0,063400
5,700167	0,5	-0,069000
5,708500	0,5	-0,080700
5,716833	0,5	-0,089800
5,725167	0,5	-0,092550
5,733500	0,5	-0,087100
5,741833	0,5	-0,086850
5,750167	0,5	-0,092500
5,758500	0,5	-0,097700
5,766833	0,5	-0,106900
5,775167	0,5	-0,110400
5,783500	0,5	-0,119800
5,791833	0,5	-0,122800
5,800167	0,5	-0,130050
5,808500	0,5	-0,135100
5,816833	0,5	-0,133100
5,825167	0,5	-0,138300
5,833500	0,5	-0,141350
5,841833	0,5	-0,135900
5,850167	0,5	-0,142200
5,858500	0,5	-0,150000
5,866833	0,5	-0,147900
5,875167	0,5	-0,150450
5,883500	0,5	-0,140050
5,891833	0,5	-0,142450
5,900167	0,5	-0,143450
5,908500	0,5	-0,146650
5,916833	0,5	-0,143950
5,925167	0,5	-0,149800
5,933500	0,5	-0,155300
5,941833	0,5	-0,159650
5,950167	0,5	-0,163400
5,958500	0,5	-0,165850
5,966833	0,5	-0,167700
5,975167	0,5	-0,167900
5,983500	0,5	-0,173150
5,991833	0,5	-0,165100
6,000167	0,5	-0,175700
6,008500	0,5	-0,181850
6,016833	0,5	-0,185050
6,025167	0,5	-0,183950
6,033500	0,5	-0,176500
6,041833	0,5	-0,177550
6,050167	0,5	-0,185150
6,058500	0,5	-0,182700
6,066833	0,5	-0,184950
6,075167	0,5	-0,185150
6,083500	0,5	-0,189050
6,091833	0,5	-0,193450
6,100167	0,5	-0,192500
6,108500	0,5	-0,191600
6,116833	0,5	-0,190100
6,125167	0,5	-0,198600
6,133500	0,5	-0,197850
6,141833	0,5	-0,192750
6,150167	0,5	-0,200400
6,158500	0,5	-0,203850
6,166833	0,5	-0,200950
6,175167	0,5	-0,198150
6,183500	0,5	-0,184800
6,191833	0,5	-0,187650
6,200167	0,5	-0,177200
6,208500	0,5	-0,174800
6,216833	0,5	-0,160850
6,225167	0,5	-0,154800
6,233500	0,5	-0,142000
6,241833	0,5	-0,132150
6,250167	0,5	-0,122200
6,258500	0,5	-0,113200
6,266833	0,5	-0,104450
6,275167	0,5	-0,108650
6,283500	0,5	-0,101100
6,291833	0,5	-0,102300
6,300167	0,5	-0,110650
6,308500	0,5	-0,116750
6,316833	0,5	-0,120450
6,325167	0,5	-0,123150
6,333500	0,5	-0,122200
6,341833	0,5	-0,126350
6,350167	0,5	-0,133000
6,358500	0,5	-0,135400
6,366833	0,5	-0,139550
6,375167	0,5	-0,142900
6,383500	0,5	-0,144450
6,391833	0,5	-0,144500
6,400167	0,5	-0,146100
6,408500	0,5	-0,140500
6,416833	0,5	-0,136800
6,425167	0,5	-0,132350
6,433500	0,5	-0,117850
6,441833	0,5	-0,112100
6,450167	0,5	-0,099850
6,458500	0,5	-0,076400
6,466833	0,5	-0,042950
6,475167	0,5	0,002150
6,483500	0,5	0,051150
6,491833	0,5	0,094400
6,500167	0,5	0,138850
6,508500	0,5	0,176350
6,516833	0,5	0,199900
6,525167	0,5	0,210700
6,533500	0,5	0,211300
6,541833	0,5	0,194550
6,550167	0,5	0,175000
6,558500	0,5	0,152150
6,566833	0,5	0,127400
6,575167	0,5	0,102000
6,583500	0,5	0,084300
6,591833	0,5	0,057150
6,600167	0,5	0,039100
6,608500	0,5	0,023150
6,616833	0,5	0,018500
6,625167	0,5	0,017000
6,633500	0,5	0,008950
6,641833	0,5	0,008300
6,650167	0,5	0,002950
6,658500	0,5	0,001800
6,666833	0,5	0,003850
6,675167	0,5	0,002700
6,683500	0,5	-0,002200
6,691833	0,5	-0,002300
6,700167	0,5	-0,001350
6,708500	0,5	-0,004750
6,716833	0,5	-0,010450
6,725167	0,5	-0,004950
6,733500	0,5	-0,004800
6,741833	0,5	-0,011100
6,750167	0,5	-0,015000
6,758500	0,5	-0,011500
6,766833	0,5	-0,006300
6,775167	0,5	0,005250
6,783500	0,5	0,006200
6,791833	0,5	0,012850
6,800167	0,5	0,011800
6,808500	0,5	0,012300
6,816833	0,5	0,011550
6,825167	0,5	0,006250
6,833500	0,5	0,007750
6,841833	0,5	0,006200
6,850167	0,5	0,007750
6,858500	0,5	0,008250
6,866833	0,5	0,008200
6,875167	0,5	0,020650
6,883500	0,5	0,017600
6,891833	0,5	0,010400
6,900167	0,5	0,013100
6,908500	0,5	0,014850
6,916833	0,5	0,028400
6,925167	0,5	0,029800
6,933500	0,5	0,036850
6,941833	0,5	0,034750
6,950167	0,5	0,042300
6,958500	0,5	0,046600
6,966833	0,5	0,057600
6,975167	0,5	0,066200
6,983500	0,5	0,074650
6,991833	0,5	0,090050
7,000167	0,5	0,105500
7,008500	0,5	0,122300
7,016833	0,5	0,138950
7,025167	0,5	0,167900
7,033500	0,5	0,194050
7,041833	0,5	0,246450
7,050167	0,5	0,337950
7,058500	0,5	0,475450
7,066833	0,5	0,672550
7,075167	0,5	0,918500
7,083500	0,5	1,221150
7,091833	0,5	1,576500
7,100167	0,5	1,963600
7,108500	0,5	2,393650
7,116833	0,5	2,854200
7,125167	0,5	3,363600
7,133500	0,5	3,952550
7,141833	0,5	4,694950
7,150167	0,5	5,714850
7,158500	0,5	7,234500
7,166833	0,5	9,619650
7,175167	0,5	13,391350
7,183500	0,5	19,045050
7,191833	0,5	26,968700
7,200167	0,5	36,893051
7,208500	0,5	47,784301
7,216833	0,5	57,910151
7,225167	0,5	65,357851
7,233500	0,5	68,884501
7,241833	0,5	68,161351
7,250167	0,5	63,791651
7,258500	0,5	56,809501
7,266833	0,5	48,363401
7,275167	0,5	39,413801
7,283500	0,5	30,802150
7,291833	0,5	23,196350
7,300167	0,5	17,002100
7,308500	0,5	12,286750
7,316833	0,5	8,897300
7,325167	0,5	6,550600
7,333500	0,5	4,946650
7,341833	0,5	3,864900
7,350167	0,5	3,126700
7,358500	0,5	2,611600
7,366833	0,5	2,239850
7,375167	0,5	1,956550
7,383500	0,5	1,740450
7,391833	0,5	1,570200
7,400167	0,5	1,429450
7,408500	0,5	1,317700
7,416833	0,5	1,219150
7,425167	0,5	1,134700
7,433500	0,5	1,065300
7,441833	0,5	1,009150
7,450167	0,5	0,955650
7,458500	0,5	0,914900
7,466833	0,5	0,873750
7,475167	0,5	0,838800
7,483500	0,5	0,798450
7,491833	0,5	0,761400
7,500167	0,5	0,730900
7,508500	0,5	0,699000
7,516833	0,5	0,670600
7,525167	0,5	0,640950
7,533500	0,5	0,606650
7,541833	0,5	0,581500
7,550167	0,5	0,549300
7,558500	0,5	0,525150
7,566833	0,5	0,498000
7,575167	0,5	0,475550
7,583500	0,5	0,454800
7,591833	0,5	0,431900
7,600167	0,5	0,416850
7,608500	0,5	0,396650
7,616833	0,5	0,383400
7,625167	0,5	0,364350
7,633500	0,5	0,349350
7,641833	0,5	0,336900
7,650167	0,5	0,330000
7,658500	0,5	0,323050
7,666833	0,5	0,323100
7,675167	0,5	0,314900
7,683500	0,5	0,309550
7,691833	0,5	0,304950
7,700167	0,5	0,301200
7,708500	0,5	0,295700
7,716833	0,5	0,296350
7,725167	0,5	0,301700
7,733500	0,5	0,311450
7,741833	0,5	0,323700
7,750167	0,5	0,336850
7,758500	0,5	0,354750
7,766833	0,5	0,361150
7,775167	0,5	0,360650
7,783500	0,5	0,352100
7,791833	0,5	0,340400
7,800167	0,5	0,325550
7,808500	0,5	0,313350
7,816833	0,5	0,297050
7,825167	0,5	0,282850
7,833500	0,5	0,273650
7,841833	0,5	0,266750
7,850167	0,5	0,257200
7,858500	0,5	0,249000
7,866833	0,5	0,242650
7,875167	0,5	0,237400
7,883500	0,5	0,236150
7,891833	0,5	0,232300
7,900167	0,5	0,229200
7,908500	0,5	0,232250
7,916833	0,5	0,229500
7,925167	0,5	0,227800
7,933500	0,5	0,230250
7,941833	0,5	0,231700
7,950167	0,5	0,238400
7,958500	0,5	0,243300
7,966833	0,5	0,245950
7,975167	0,5	0,247950
7,983500	0,5	0,250250
7,991833	0,5	0,252950
8,000167	0,5	0,255450
8,008500	0,5	0,259100
8,016833	0,5	0,259150
8,025167	0,5	0,260500
8,033500	0,5	0,260750
8,041833	0,5	0,259750
8,050167	0,5	0,256700
8,058500	0,5	0,259450
8,066833	0,5	0,260550
8,075167	0,5	0,261150
8,083500	0,5	0,265450
8,091833	0,5	0,266550
8,100167	0,5	0,276250
8,108500	0,5	0,277700
8,116833	0,5	0,274700
8,125167	0,5	0,275750
8,133500	0,5	0,268900
8,141833	0,5	0,268200
8,150167	0,5	0,266400
8,158500	0,5	0,267000
8,166833	0,5	0,261100
8,175167	0,5	0,266950
8,183500	0,5	0,266050
8,191833	0,5	0,265800
8,200167	0,5	0,265450
8,208500	0,5	0,272600
8,216833	0,5	0,271400
8,225167	0,5	0,274000
8,233500	0,5	0,274450
8,241833	0,5	0,275350
8,250167	0,5	0,283900
8,258500	0,5	0,283600
8,266833	0,5	0,284200
8,275167	0,5	0,285850
8,283500	0,5	0,288450
8,291833	0,5	0,288350
8,300167	0,5	0,291500
8,308500	0,5	0,290450
8,316833	0,5	0,292100
8,325167	0,5	0,296950
8,333500	0,5	0,299500
8,341833	0,5	0,299950
8,350167	0,5	0,299900
8,358500	0,5	0,301250
8,366833	0,5	0,300450
8,375167	0,5	0,301950
8,383500	0,5	0,306150
8,391833	0,5	0,309850
8,400167	0,5	0,319500
8,408500	0,5	0,325350
8,416833	0,5	0,329250
8,425167	0,5	0,333900
8,433500	0,5	0,340950
8,441833	0,5	0,347350
8,450167	0,5	0,351200
8,458500	0,5	0,363950
8,466833	0,5	0,379000
8,475167	0,5	0,405800
8,483500	0,5	0,436850
8,491833	0,5	0,472300
8,500167	0,5	0,510200
8,508500	0,5	0,536700
8,516833	0,5	0,549000
8,525167	0,5	0,545450
8,533500	0,5	0,540350
8,541833	0,5	0,544000
8,550167	0,5	0,570800
8,558500	0,5	0,650250
8,566833	0,5	0,806050
8,575167	0,5	1,064350
8,583500	0,5	1,448300
8,591833	0,5	1,968500
8,600167	0,5	2,618250
8,608500	0,5	3,381250
8,616833	0,5	4,240050
8,625167	0,5	5,217250
8,633500	0,5	6,399950
8,641833	0,5	8,023550
8,650167	0,5	10,597500
8,658500	0,5	15,008300
8,666833	0,5	22,464150
8,675167	0,5	33,978201
8,683500	0,5	49,514051
8,691833	0,5	67,211251
8,700167	0,5	83,649851
8,708500	0,5	95,208101
8,716833	0,5	99,493901
8,725167	0,5	95,930651
8,733500	0,5	85,766101
8,741833	0,5	71,468401
8,750167	0,5	55,877001
8,758500	0,5	41,353101
8,766833	0,5	29,304750
8,775167	0,5	20,189000
8,783500	0,5	13,770250
8,791833	0,5	9,509950
8,800167	0,5	6,783650
8,808500	0,5	5,069900
8,816833	0,5	3,993500
8,825167	0,5	3,300150
8,833500	0,5	2,837600
8,841833	0,5	2,514250
8,850167	0,5	2,283850
8,858500	0,5	2,106750
8,866833	0,5	1,968650
8,875167	0,5	1,862300
8,883500	0,5	1,775650
8,891833	0,5	1,710000
8,900167	0,5	1,656650
8,908500	0,5	1,615300
8,916833	0,5	1,580300
8,925167	0,5	1,550000
8,933500	0,5	1,512900
8,941833	0,5	1,469500
8,950167	0,5	1,420150
8,958500	0,5	1,364250
8,966833	0,5	1,307850
8,975167	0,5	1,255900
8,983500	0,5	1,207650
8,991833	0,5	1,167850
9,000167	0,5	1,134200
9,008500	0,5	1,103150
9,016833	0,5	1,073250
9,025167	0,5	1,050550
9,033500	0,5	1,026050
9,041833	0,5	1,005250
9,050167	0,5	0,988450
9,058500	0,5	0,969150
9,066833	0,5	0,951950
9,075167	0,5	0,933750
9,083500	0,5	0,917250
9,091833	0,5	0,899700
9,100167	0,5	0,886450
9,108500	0,5	0,870950
9,116833	0,5	0,858000
9,125167	0,5	0,848350
9,133500	0,5	0,841750
9,141833	0,5	0,832150
9,150167	0,5	0,827500
9,158500	0,5	0,821200
9,166833	0,5	0,815750
9,175167	0,5	0,809000
9,183500	0,5	0,804700
9,191833	0,5	0,799000
9,200167	0,5	0,794950
9,208500	0,5	0,792400
9,216833	0,5	0,783900
9,225167	0,5	0,780250
9,233500	0,5	0,776000
9,241833	0,5	0,774450
9,250167	0,5	0,768800
9,258500	0,5	0,764900
9,266833	0,5	0,761950
9,275167	0,5	0,756800
9,283500	0,5	0,758150
9,291833	0,5	0,755950
9,300167	0,5	0,753750
9,308500	0,5	0,752050
9,316833	0,5	0,751750
9,325167	0,5	0,750300
9,333500	0,5	0,747800
9,341833	0,5	0,746450
9,350167	0,5	0,743400
9,358500	0,5	0,742400
9,366833	0,5	0,741100
9,375167	0,5	0,738500
9,383500	0,5	0,734550
9,391833	0,5	0,737300
9,400167	0,5	0,734150
9,408500	0,5	0,730600
9,416833	0,5	0,730750
9,425167	0,5	0,728400
9,433500	0,5	0,730100
9,441833	0,5	0,728450
9,450167	0,5	0,726850
9,458500	0,5	0,729150
9,466833	0,5	0,726100
9,475167	0,5	0,726450
9,483500	0,5	0,728550
9,491833	0,5	0,728600
9,500167	0,5	0,728000
9,508500	0,5	0,726050
9,516833	0,5	0,724400
9,525167	0,5	0,719850
9,533500	0,5	0,718900
9,541833	0,5	0,721100
9,550167	0,5	0,717850
9,558500	0,5	0,717050
9,566833	0,5	0,719100
9,575167	0,5	0,717150
9,583500	0,5	0,721450
9,591833	0,5	0,722700
9,600167	0,5	0,726650
9,608500	0,5	0,724950
9,616833	0,5	0,726750
9,625167	0,5	0,726600
9,633500	0,5	0,725050
9,641833	0,5	0,722100
9,650167	0,5	0,723700
9,658500	0,5	0,722250
9,666833	0,5	0,722200
9,675167	0,5	0,716300
9,683500	0,5	0,718550
9,691833	0,5	0,722650
9,700167	0,5	0,723150
9,708500	0,5	0,723100
9,716833	0,5	0,726150
9,725167	0,5	0,731550
9,733500	0,5	0,737600
9,741833	0,5	0,735150
9,750167	0,5	0,735200
9,758500	0,5	0,735800
9,766833	0,5	0,732150
9,775167	0,5	0,728400
9,783500	0,5	0,726900
9,791833	0,5	0,725000
9,800167	0,5	0,728950
9,808500	0,5	0,727250
9,816833	0,5	0,736300
9,825167	0,5	0,746600
9,833500	0,5	0,764950
9,841833	0,5	0,784000
9,850167	0,5	0,803050
9,858500	0,5	0,818500
9,866833	0,5	0,827200
9,875167	0,5	0,824200
9,883500	0,5	0,811600
9,891833	0,5	0,793650
9,900167	0,5	0,770450
9,908500	0,5	0,751550
9,916833	0,5	0,740150
9,925167	0,5	0,722400
9,933500	0,5	0,717800
9,941833	0,5	0,708550
9,950167	0,5	0,701400
9,958500	0,5	0,700150
9,966833	0,5	0,699100
9,975167	0,5	0,691150
9,983500	0,5	0,693750
9,991833	0,5	0,689600
10,000167	0,5	0,684900
10,008500	0,5	0,686950
10,016833	0,5	0,682250
10,025167	0,5	0,687150
10,033500	0,5	0,682300
10,041833	0,5	0,683050
10,050167	0,5	0,681900
10,058500	0,5	0,681250
10,066833	0,5	0,682200
10,075167	0,5	0,682450
10,083500	0,5	0,687200
10,091833	0,5	0,688350
10,100167	0,5	0,698250
10,108500	0,5	0,710200
10,116833	0,5	0,728550
10,125167	0,5	0,743500
10,133500	0,5	0,759800
10,141833	0,5	0,774200
10,150167	0,5	0,773300
10,158500	0,5	0,766900
10,166833	0,5	0,753800
10,175167	0,5	0,734150
10,183500	0,5	0,717250
10,191833	0,5	0,699050
10,200167	0,5	0,680450
10,208500	0,5	0,668750
10,216833	0,5	0,662300
10,225167	0,5	0,655150
10,233500	0,5	0,651950
10,241833	0,5	0,649150
10,250167	0,5	0,651000
10,258500	0,5	0,652650
10,266833	0,5	0,650700
10,275167	0,5	0,655150
10,283500	0,5	0,663700
10,291833	0,5	0,671000
10,300167	0,5	0,681400
10,308500	0,5	0,692700
10,316833	0,5	0,709150
10,325167	0,5	0,725900
10,333500	0,5	0,731550
10,341833	0,5	0,732900
10,350167	0,5	0,729850
10,358500	0,5	0,720400
10,366833	0,5	0,703300
10,375167	0,5	0,686050
10,383500	0,5	0,669050
10,391833	0,5	0,660050
10,400167	0,5	0,648950
10,408500	0,5	0,641250
10,416833	0,5	0,635650
10,425167	0,5	0,635450
10,433500	0,5	0,636100
10,441833	0,5	0,640600
10,450167	0,5	0,637150
10,458500	0,5	0,639500
10,466833	0,5	0,634050
10,475167	0,5	0,637450
10,483500	0,5	0,630450
10,491833	0,5	0,627200
10,500167	0,5	0,617950
10,508500	0,5	0,615500
10,516833	0,5	0,604800
10,525167	0,5	0,606000
10,533500	0,5	0,595550
10,541833	0,5	0,590700
10,550167	0,5	0,590750
10,558500	0,5	0,586850
10,566833	0,5	0,583250
10,575167	0,5	0,582300
10,583500	0,5	0,586300
10,591833	0,5	0,589250
10,600167	0,5	0,591250
10,608500	0,5	0,596100
10,616833	0,5	0,603650
10,625167	0,5	0,609650
10,633500	0,5	0,613600
10,641833	0,5	0,610950
10,650167	0,5	0,610650
10,658500	0,5	0,601650
10,666833	0,5	0,594800
10,675167	0,5	0,588550
10,683500	0,5	0,587100
10,691833	0,5	0,588050
10,700167	0,5	0,595000
10,708500	0,5	0,600650
10,716833	0,5	0,616350
10,725167	0,5	0,626500
10,733500	0,5	0,634500
10,741833	0,5	0,637600
10,750167	0,5	0,633800
10,758500	0,5	0,628050
10,766833	0,5	0,624550
10,775167	0,5	0,615500
10,783500	0,5	0,607050
10,791833	0,5	0,607150
10,800167	0,5	0,599750
10,808500	0,5	0,595550
10,816833	0,5	0,591300
10,825167	0,5	0,585050
10,833500	0,5	0,578950
10,841833	0,5	0,570400
10,850167	0,5	0,561000
10,858500	0,5	0,547600
10,866833	0,5	0,542500
10,875167	0,5	0,535650
10,883500	0,5	0,525900
10,891833	0,5	0,518550
10,900167	0,5	0,507950
10,908500	0,5	0,506900
10,916833	0,5	0,501250
10,925167	0,5	0,498200
10,933500	0,5	0,499300
10,941833	0,5	0,496000
10,950167	0,5	0,497450
10,958500	0,5	0,498500
10,966833	0,5	0,499050
10,975167	0,5	0,495850
10,983500	0,5	0,495200
10,991833	0,5	0,493400
11,000167	0,5	0,490550
11,008500	0,5	0,482850
11,016833	0,5	0,481450
11,025167	0,5	0,475250
11,033500	0,5	0,469650
11,041833	0,5	0,465250
11,050167	0,5	0,460150
11,058500	0,5	0,462700
11,066833	0,5	0,459400
11,075167	0,5	0,457150
11,083500	0,5	0,455700
11,091833	0,5	0,454500
11,100167	0,5	0,451250
11,108500	0,5	0,454600
11,116833	0,5	0,448950
11,125167	0,5	0,444650
11,133500	0,5	0,441450
11,141833	0,5	0,440200
11,150167	0,5	0,437600
11,158500	0,5	0,431250
11,166833	0,5	0,431850
11,175167	0,5	0,428800
11,183500	0,5	0,423900
11,191833	0,5	0,420250
11,200167	0,5	0,413800
11,208500	0,5	0,421300
11,216833	0,5	0,422800
11,225167	0,5	0,418950
11,233500	0,5	0,419900
11,241833	0,5	0,419700
11,250167	0,5	0,420350
11,258500	0,5	0,419700
11,266833	0,5	0,418350
11,275167	0,5	0,417600
11,283500	0,5	0,421250
11,291833	0,5	0,423250
11,300167	0,5	0,417650
11,308500	0,5	0,414800
11,316833	0,5	0,413250
11,325167	0,5	0,408000
11,333500	0,5	0,398250
11,341833	0,5	0,392450
11,350167	0,5	0,386700
11,358500	0,5	0,383850
11,366833	0,5	0,384950
11,375167	0,5	0,379750
11,383500	0,5	0,380100
11,391833	0,5	0,375150
11,400167	0,5	0,374450
11,408500	0,5	0,373400
11,416833	0,5	0,374250
11,425167	0,5	0,371950
11,433500	0,5	0,376700
11,441833	0,5	0,380000
11,450167	0,5	0,381950
11,458500	0,5	0,388400
11,466833	0,5	0,394600
11,475167	0,5	0,399700
11,483500	0,5	0,405150
11,491833	0,5	0,408850
11,500167	0,5	0,420700
11,508500	0,5	0,435600
11,516833	0,5	0,450050
11,525167	0,5	0,470600
11,533500	0,5	0,493850
11,541833	0,5	0,522200
11,550167	0,5	0,548350
11,558500	0,5	0,580600
11,566833	0,5	0,600400
11,575167	0,5	0,613750
11,583500	0,5	0,610000
11,591833	0,5	0,594250
11,600167	0,5	0,563700
11,608500	0,5	0,535950
11,616833	0,5	0,495200
11,625167	0,5	0,458300
11,633500	0,5	0,421400
11,641833	0,5	0,387650
11,650167	0,5	0,372400
11,658500	0,5	0,356750
11,666833	0,5	0,349400
11,675167	0,5	0,343750
11,683500	0,5	0,343200
11,691833	0,5	0,346550
11,700167	0,5	0,352000
11,708500	0,5	0,356600
11,716833	0,5	0,370800
11,725167	0,5	0,380950
11,733500	0,5	0,391950
11,741833	0,5	0,393000
11,750167	0,5	0,390000
11,758500	0,5	0,384200
11,766833	0,5	0,370000
11,775167	0,5	0,351000
11,783500	0,5	0,333250
11,791833	0,5	0,316950
11,800167	0,5	0,308700
11,808500	0,5	0,304250
11,816833	0,5	0,302850
11,825167	0,5	0,303950
11,833500	0,5	0,309800
11,841833	0,5	0,313750
11,850167	0,5	0,312700
11,858500	0,5	0,316150
11,866833	0,5	0,312150
11,875167	0,5	0,311650
11,883500	0,5	0,303350
11,891833	0,5	0,293500
11,900167	0,5	0,289200
11,908500	0,5	0,284900
11,916833	0,5	0,278750
11,925167	0,5	0,271900
11,933500	0,5	0,267250
11,941833	0,5	0,271500
11,950167	0,5	0,275500
11,958500	0,5	0,274850
11,966833	0,5	0,276050
11,975167	0,5	0,281000
11,983500	0,5	0,286250
11,991833	0,5	0,285700
12,000167	0,5	0,291600
12,008500	0,5	0,292800
12,016833	0,5	0,295250
12,025167	0,5	0,298800
12,033500	0,5	0,300900
12,041833	0,5	0,295650
12,050167	0,5	0,308150
12,058500	0,5	0,308100
12,066833	0,5	0,308850
12,075167	0,5	0,306350
12,083500	0,5	0,300200
12,091833	0,5	0,299750
12,100167	0,5	0,300250
12,108500	0,5	0,293250
12,116833	0,5	0,287000
12,125167	0,5	0,278400
12,133500	0,5	0,273300
12,141833	0,5	0,266850
12,150167	0,5	0,259550
12,158500	0,5	0,254000
12,166833	0,5	0,244600
12,175167	0,5	0,241000
12,183500	0,5	0,234150
12,191833	0,5	0,226600
12,200167	0,5	0,224750
12,208500	0,5	0,220450
12,216833	0,5	0,210800
12,225167	0,5	0,204750
12,233500	0,5	0,201950
12,241833	0,5	0,209850
12,250167	0,5	0,207250
12,258500	0,5	0,209350
12,266833	0,5	0,210750
12,275167	0,5	0,216950
12,283500	0,5	0,216100
12,291833	0,5	0,224800
12,300167	0,5	0,234550
12,308500	0,5	0,244250
12,316833	0,5	0,263650
12,325167	0,5	0,288000
12,333500	0,5	0,305600
12,341833	0,5	0,330650
12,350167	0,5	0,354500
12,358500	0,5	0,364800
12,366833	0,5	0,363600
12,375167	0,5	0,350300
12,383500	0,5	0,333100
12,391833	0,5	0,310150
12,400167	0,5	0,288950
12,408500	0,5	0,257900
12,416833	0,5	0,234000
12,425167	0,5	0,208900
12,433500	0,5	0,193950
12,441833	0,5	0,178600
12,450167	0,5	0,166550
12,458500	0,5	0,159000
12,466833	0,5	0,155750
12,475167	0,5	0,150250
12,483500	0,5	0,142500
12,491833	0,5	0,143450
12,500167	0,5	0,139550
12,508500	0,5	0,133500
12,516833	0,5	0,124950
12,525167	0,5	0,120750
12,533500	0,5	0,119000
12,541833	0,5	0,119550
12,550167	0,5	0,119300
12,558500	0,5	0,117100
12,566833	0,5	0,113800
12,575167	0,5	0,115950
12,583500	0,5	0,113350
12,591833	0,5	0,114050
12,600167	0,5	0,111200
12,608500	0,5	0,110350
12,616833	0,5	0,108050
12,625167	0,5	0,105850
12,633500	0,5	0,100750
12,641833	0,5	0,108800
12,650167	0,5	0,100850
12,658500	0,5	0,100100
12,666833	0,5	0,094400
12,675167	0,5	0,087150
12,683500	0,5	0,087450
12,691833	0,5	0,086200
12,700167	0,5	0,087050
12,708500	0,5	0,082100
12,716833	0,5	0,082150
12,725167	0,5	0,079300
12,733500	0,5	0,079600
12,741833	0,5	0,073950
12,750167	0,5	0,072650
12,758500	0,5	0,070050
12,766833	0,5	0,068850
12,775167	0,5	0,057600
12,783500	0,5	0,059550
12,791833	0,5	0,058600
12,800167	0,5	0,055000
12,808500	0,5	0,046750
12,816833	0,5	0,038300
12,825167	0,5	0,032200
12,833500	0,5	0,036300
12,841833	0,5	0,034250
12,850167	0,5	0,031400
12,858500	0,5	0,032800
12,866833	0,5	0,031450
12,875167	0,5	0,029000
12,883500	0,5	0,028200
12,891833	0,5	0,024350
12,900167	0,5	0,020900
12,908500	0,5	0,023600
12,916833	0,5	0,021900
12,925167	0,5	0,011200
12,933500	0,5	0,020000
12,941833	0,5	0,019200
12,950167	0,5	0,013900
12,958500	0,5	0,008950
12,966833	0,5	0,002750
12,975167	0,5	0,004800
12,983500	0,5	0,001050
12,991833	0,5	0,001900
13,000167	0,5	-0,003250
13,008500	0,5	-0,008800
13,016833	0,5	-0,010250
13,025167	0,5	-0,010950
13,033500	0,5	-0,010800
13,041833	0,5	-0,011950
13,050167	0,5	-0,013550
13,058500	0,5	-0,013400
13,066833	0,5	-0,014300
13,075167	0,5	-0,024350
13,083500	0,5	-0,015350
13,091833	0,5	-0,014750
13,100167	0,5	-0,019150
13,108500	0,5	-0,029750
13,116833	0,5	-0,033050
13,125167	0,5	-0,029000
13,133500	0,5	-0,031500
13,141833	0,5	-0,033050
13,150167	0,5	-0,036150
13,158500	0,5	-0,037600
13,166833	0,5	-0,038200
13,175167	0,5	-0,040200
13,183500	0,5	-0,042550
13,191833	0,5	-0,045900
13,200167	0,5	-0,046550
13,208500	0,5	-0,045350
13,216833	0,5	-0,052700
13,225167	0,5	-0,057850
13,233500	0,5	-0,053700
13,241833	0,5	-0,058550
13,250167	0,5	-0,064800
13,258500	0,5	-0,070250
13,266833	0,5	-0,074250
13,275167	0,5	-0,070150
13,283500	0,5	-0,075500
13,291833	0,5	-0,069400
13,300167	0,5	-0,068200
13,308500	0,5	-0,074450
13,316833	0,5	-0,076300
13,325167	0,5	-0,078050
13,333500	0,5	-0,078850
13,341833	0,5	-0,079900
13,350167	0,5	-0,076800
13,358500	0,5	-0,076500
13,366833	0,5	-0,085350
13,375167	0,5	-0,081650
13,383500	0,5	-0,085300
13,391833	0,5	-0,088700
13,400167	0,5	-0,094100
13,408500	0,5	-0,106200
13,416833	0,5	-0,106550
13,425167	0,5	-0,105500
13,433500	0,5	-0,101900
13,441833	0,5	-0,104100
13,450167	0,5	-0,101700
13,458500	0,5	-0,101900
13,466833	0,5	-0,099400
13,475167	0,5	-0,106100
13,483500	0,5	-0,104400
13,491833	0,5	-0,105700
13,500167	0,5	-0,103950
13,508500	0,5	-0,107400
13,516833	0,5	-0,111700
13,525167	0,5	-0,107650
13,533500	0,5	-0,110950
13,541833	0,5	-0,112800
13,550167	0,5	-0,118200
13,558500	0,5	-0,124500
13,566833	0,5	-0,125750
13,575167	0,5	-0,122250
13,583500	0,5	-0,120150
13,591833	0,5	-0,118700
13,600167	0,5	-0,122600
13,608500	0,5	-0,122700
13,616833	0,5	-0,122650
13,625167	0,5	-0,124500
13,633500	0,5	-0,129700
13,641833	0,5	-0,127350
13,650167	0,5	-0,129500
13,658500	0,5	-0,138450
13,666833	0,5	-0,142000
13,675167	0,5	-0,135700
13,683500	0,5	-0,141750
13,691833	0,5	-0,141050
13,700167	0,5	-0,149350
13,708500	0,5	-0,155950
13,716833	0,5	-0,149300
13,725167	0,5	-0,147700
13,733500	0,5	-0,142850
13,741833	0,5	-0,144550
13,750167	0,5	-0,138450
13,758500	0,5	-0,140150
13,766833	0,5	-0,141750
13,775167	0,5	-0,147200
13,783500	0,5	-0,154400
13,791833	0,5	-0,159800
13,800167	0,5	-0,165800
13,808500	0,5	-0,188000
13,816833	0,5	-0,180250
13,825167	0,5	-0,184400
13,833500	0,5	-0,185350
13,841833	0,5	-0,191800
13,850167	0,5	-0,198800
13,858500	0,5	-0,199750
13,866833	0,5	-0,189900
13,875167	0,5	-0,193550
13,883500	0,5	-0,189200
13,891833	0,5	-0,187600
13,900167	0,5	-0,189400
13,908500	0,5	-0,184150
13,916833	0,5	-0,186600
13,925167	0,5	-0,183500
13,933500	0,5	-0,187400
13,941833	0,5	-0,188400
13,950167	0,5	-0,192100
13,958500	0,5	-0,205200
13,966833	0,5	-0,199000
13,975167	0,5	-0,206450
13,983500	0,5	-0,214850
13,991833	0,5	-0,218300
14,000167	0,5	-0,236700
14,008500	0,5	-0,231950
14,016833	0,5	-0,235150
14,025167	0,5	-0,232700
14,033500	0,5	-0,239700
14,041833	0,5	-0,239650
14,050167	0,5	-0,242250
14,058500	0,5	-0,246450
14,066833	0,5	-0,246300
14,075167	0,5	-0,251750
14,083500	0,5	-0,253900
14,091833	0,5	-0,255150
14,100167	0,5	-0,264150
14,108500	0,5	-0,268550
14,116833	0,5	-0,263050
14,125167	0,5	-0,265500
14,133500	0,5	-0,268900
14,141833	0,5	-0,279500
14,150167	0,5	-0,283700
14,158500	0,5	-0,283250
14,166833	0,5	-0,285000
14,175167	0,5	-0,288600
14,183500	0,5	-0,287600
14,191833	0,5	-0,289850
14,200167	0,5	-0,292550
14,208500	0,5	-0,296700
14,216833	0,5	-0,292900
14,225167	0,5	-0,299750
14,233500	0,5	-0,296900
14,241833	0,5	-0,297750
14,250167	0,5	-0,305500
14,258500	0,5	-0,304200
14,266833	0,5	-0,306200
14,275167	0,5	-0,308100
14,283500	0,5	-0,317250
14,291833	0,5	-0,322350
14,300167	0,5	-0,330900
14,308500	0,5	-0,326100
14,316833	0,5	-0,324050
14,325167	0,5	-0,326950
14,333500	0,5	-0,332250
14,341833	0,5	-0,332050
14,350167	0,5	-0,332800
14,358500	0,5	-0,335200
14,366833	0,5	-0,341450
14,375167	0,5	-0,343250
14,383500	0,5	-0,340450
14,391833	0,5	-0,343150
14,400167	0,5	-0,361200
14,408500	0,5	-0,352500
14,416833	0,5	-0,353300
14,425167	0,5	-0,357300
14,433500	0,5	-0,363000
14,441833	0,5	-0,376900
14,450167	0,5	-0,377200
14,458500	0,5	-0,379500
14,466833	0,5	-0,375750
14,475167	0,5	-0,377350
14,483500	0,5	-0,375850
14,491833	0,5	-0,380350
14,500167	0,5	-0,375050
14,508500	0,5	-0,382500
14,516833	0,5	-0,383450
14,525167	0,5	-0,384650
14,533500	0,5	-0,381100
14,541833	0,5	-0,394400
14,550167	0,5	-0,397700
14,558500	0,5	-0,396450
14,566833	0,5	-0,399600
14,575167	0,5	-0,408250
14,583500	0,5	-0,420450
14,591833	0,5	-0,424750
14,600167	0,5	-0,430450
14,608500	0,5	-0,431000
14,616833	0,5	-0,431500
14,625167	0,5	-0,433100
14,633500	0,5	-0,431700
14,641833	0,5	-0,433150
14,650167	0,5	-0,437000
14,658500	0,5	-0,435950
14,666833	0,5	-0,443950
14,675167	0,5	-0,440500
14,683500	0,5	-0,440950
14,691833	0,5	-0,448800
14,700167	0,5	-0,451450
14,708500	0,5	-0,441150
14,716833	0,5	-0,449150
14,725167	0,5	-0,448250
14,733500	0,5	-0,463000
14,741833	0,5	-0,460900
14,750167	0,5	-0,462050
14,758500	0,5	-0,458600
14,766833	0,5	-0,458300
14,775167	0,5	-0,459350
14,783500	0,5	-0,456300
14,791833	0,5	-0,455450
14,800167	0,5	-0,456050
14,808500	0,5	-0,460850
14,816833	0,5	-0,461800
14,825167	0,5	-0,461400
14,833500	0,5	-0,462800
14,841833	0,5	-0,476750
14,850167	0,5	-0,469050
14,858500	0,5	-0,471500
14,866833	0,5	-0,475700
14,875167	0,5	-0,485100
14,883500	0,5	-0,495550
14,891833	0,5	-0,494550
14,900167	0,5	-0,494950
14,908500	0,5	-0,497450
14,916833	0,5	-0,497300
14,925167	0,5	-0,499400
14,933500	0,5	-0,499500
14,941833	0,5	-0,500050
14,950167	0,5	-0,503000
14,958500	0,5	-0,500800
14,966833	0,5	-0,505800
14,975167	0,5	-0,502600
14,983500	0,5	-0,508150
14,991833	0,5	-0,517350
15,000167	0,5	-0,514650
15,008500	0,5	-0,516750
15,016833	0,5	-0,519500
15,025167	0,5	-0,527450
15,033500	0,5	-0,536550
15,041833	0,5	-0,528300
15,050167	0,5	-0,532300
15,058500	0,5	-0,526400
15,066833	0,5	-0,532100
15,075167	0,5	-0,529000
15,083500	0,5	-0,527450
15,091833	0,5	-0,524800
15,100167	0,5	-0,523900
15,108500	0,5	-0,517450
15,116833	0,5	-0,503750
15,125167	0,5	-0,485150
15,133500	0,5	-0,480450
15,141833	0,5	-0,467750
15,150167	0,5	-0,448600
15,158500	0,5	-0,435450
15,166833	0,5	-0,435350
15,175167	0,5	-0,443150
15,183500	0,5	-0,450900
15,191833	0,5	-0,465150
15,200167	0,5	-0,477200
15,208500	0,5	-0,498450
15,216833	0,5	-0,514050
15,225167	0,5	-0,531900
15,233500	0,5	-0,541950
15,241833	0,5	-0,553450
15,250167	0,5	-0,562150
15,258500	0,5	-0,569800
15,266833	0,5	-0,574650
15,275167	0,5	-0,576100
15,283500	0,5	-0,588850
15,291833	0,5	-0,588300
15,300167	0,5	-0,591600
15,308500	0,5	-0,594600
15,316833	0,5	-0,606300
15,325167	0,5	-0,616400
15,333500	0,5	-0,622850
15,341833	0,5	-0,614700
15,350167	0,5	-0,616100
15,358500	0,5	-0,613700
15,366833	0,5	-0,617850
15,375167	0,5	-0,618150
15,383500	0,5	-0,621050
15,391833	0,5	-0,623600
15,400167	0,5	-0,628450
15,408500	0,5	-0,625250
15,416833	0,5	-0,623900
15,425167	0,5	-0,624750
15,433500	0,5	-0,633500
15,441833	0,5	-0,626550
15,450167	0,5	-0,626650
15,458500	0,5	-0,631300
15,466833	0,5	-0,642100
15,475167	0,5	-0,654800
15,483500	0,5	-0,649350
15,491833	0,5	-0,653450
15,500167	0,5	-0,653350
15,508500	0,5	-0,656500
15,516833	0,5	-0,653600
15,525167	0,5	-0,653100
15,533500	0,5	-0,650050
15,541833	0,5	-0,654600
15,550167	0,5	-0,654400
15,558500	0,5	-0,651550
15,566833	0,5	-0,647550
15,575167	0,5	-0,658450
15,583500	0,5	-0,657700
15,591833	0,5	-0,659150
15,600167	0,5	-0,661050
15,608500	0,5	-0,671800
15,616833	0,5	-0,681550
15,625167	0,5	-0,687500
15,633500	0,5	-0,687050
15,641833	0,5	-0,686650
15,650167	0,5	-0,684800
15,658500	0,5	-0,683500
15,666833	0,5	-0,686150
15,675167	0,5	-0,683500
15,683500	0,5	-0,681150
15,691833	0,5	-0,684100
15,700167	0,5	-0,690400
15,708500	0,5	-0,676000
15,716833	0,5	-0,675650
15,725167	0,5	-0,687050
15,733500	0,5	-0,683800
15,741833	0,5	-0,673850
15,750167	0,5	-0,676500
15,758500	0,5	-0,674750
15,766833	0,5	-0,681550
15,775167	0,5	-0,672900
15,783500	0,5	-0,668350
15,791833	0,5	-0,670200
15,800167	0,5	-0,670850
15,808500	0,5	-0,669950
15,816833	0,5	-0,676150
15,825167	0,5	-0,684950
15,833500	0,5	-0,687900
15,841833	0,5	-0,699000
15,850167	0,5	-0,706000
15,858500	0,5	-0,709400
15,866833	0,5	-0,716650
15,875167	0,5	-0,728000
15,883500	0,5	-0,724700
15,891833	0,5	-0,727100
15,900167	0,5	-0,731900
15,908500	0,5	-0,741550
15,916833	0,5	-0,752350
15,925167	0,5	-0,746800
15,933500	0,5	-0,742800
15,941833	0,5	-0,745550
15,950167	0,5	-0,744450
15,958500	0,5	-0,748150
15,966833	0,5	-0,749050
15,975167	0,5	-0,745050
15,983500	0,5	-0,748000
15,991833	0,5	-0,752750
16,000167	0,5	-0,747700
16,008500	0,5	-0,736000
16,016833	0,5	-0,747800
16,025167	0,5	-0,754100
16,033500	0,5	-0,751900
16,041833	0,5	-0,746550
16,050167	0,5	-0,754950
16,058500	0,5	-0,764450
16,066833	0,5	-0,774100
16,075167	0,5	-0,762000
16,083500	0,5	-0,769000
16,091833	0,5	-0,768700
16,100167	0,5	-0,770850
16,108500	0,5	-0,767350
16,116833	0,5	-0,763850
16,125167	0,5	-0,759400
16,133500	0,5	-0,758750
16,141833	0,5	-0,763200
16,150167	0,5	-0,760350
16,158500	0,5	-0,763300
16,166833	0,5	-0,782800
16,175167	0,5	-0,781400
16,183500	0,5	-0,791550
16,191833	0,5	-0,804300
16,200167	0,5	-0,812700
16,208500	0,5	-0,832600
16,216833	0,5	-0,833850
16,225167	0,5	-0,840450
16,233500	0,5	-0,838700
16,241833	0,5	-0,847900
16,250167	0,5	-0,838300
16,258500	0,5	-0,845150
16,266833	0,5	-0,845250
16,275167	0,5	-0,844150
16,283500	0,5	-0,846400
16,291833	0,5	-0,848300
16,300167	0,5	-0,845700
16,308500	0,5	-0,847250
16,316833	0,5	-0,853500
16,325167	0,5	-0,845500
16,333500	0,5	-0,846200
16,341833	0,5	-0,847350
16,350167	0,5	-0,854400
16,358500	0,5	-0,867450
16,366833	0,5	-0,866050
16,375167	0,5	-0,858900
16,383500	0,5	-0,862150
16,391833	0,5	-0,860750
16,400167	0,5	-0,858800
16,408500	0,5	-0,855600
16,416833	0,5	-0,855050
16,425167	0,5	-0,853550
16,433500	0,5	-0,855400
16,441833	0,5	-0,854200
16,450167	0,5	-0,851200
16,458500	0,5	-0,855800
16,466833	0,5	-0,857300
16,475167	0,5	-0,844150
16,483500	0,5	-0,854850
16,491833	0,5	-0,854300
16,500167	0,5	-0,861500
16,508500	0,5	-0,868450
16,516833	0,5	-0,861200
16,525167	0,5	-0,854400
16,533500	0,5	-0,849950
16,541833	0,5	-0,848050
16,550167	0,5	-0,837800
16,558500	0,5	-0,833150
16,566833	0,5	-0,821750
16,575167	0,5	-0,821350
16,583500	0,5	-0,822050
16,591833	0,5	-0,811400
16,600167	0,5	-0,812350
16,608500	0,5	-0,825350
16,616833	0,5	-0,819450
16,625167	0,5	-0,825850
16,633500	0,5	-0,829650
16,641833	0,5	-0,842950
16,650167	0,5	-0,855100
16,658500	0,5	-0,859650
16,666833	0,5	-0,862450
16,675167	0,5	-0,860300
16,683500	0,5	-0,870000
16,691833	0,5	-0,867950
16,700167	0,5	-0,868400
16,708500	0,5	-0,866150
16,716833	0,5	-0,867800
16,725167	0,5	-0,867150
16,733500	0,5	-0,870300
16,741833	0,5	-0,861900
16,750167	0,5	-0,872650
16,758500	0,5	-0,875600
16,766833	0,5	-0,867700
16,775167	0,5	-0,865450
16,783500	0,5	-0,873500
16,791833	0,5	-0,879450
16,800167	0,5	-0,888500
16,808500	0,5	-0,880500
16,816833	0,5	-0,877350
16,825167	0,5	-0,876900
16,833500	0,5	-0,877250
16,841833	0,5	-0,877500
16,850167	0,5	-0,872400
16,858500	0,5	-0,874300
16,866833	0,5	-0,870500
16,875167	0,5	-0,874700
16,883500	0,5	-0,872850
16,891833	0,5	-0,869350
16,900167	0,5	-0,874800
16,908500	0,5	-0,873950
16,916833	0,5	-0,861250
16,925167	0,5	-0,861300
16,933500	0,5	-0,862400
16,941833	0,5	-0,877200
16,950167	0,5	-0,878800
16,958500	0,5	-0,870600
16,966833	0,5	-0,869500
16,975167	0,5	-0,873900
16,983500	0,5	-0,874150
16,991833	0,5	-0,871950
17,000167	0,5	-0,871800
17,008500	0,5	-0,868000
17,016833	0,5	-0,869200
17,025167	0,5	-0,868350
17,033500	0,5	-0,868450
17,041833	0,5	-0,857250
17,050167	0,5	-0,870000
17,058500	0,5	-0,853000
17,066833	0,5	-0,850400
17,075167	0,5	-0,850450
17,083500	0,5	-0,858800
17,091833	0,5	-0,868450
17,100167	0,5	-0,865000
17,108500	0,5	-0,856800
17,116833	0,5	-0,860050
17,125167	0,5	-0,859950
17,133500	0,5	-0,861700
17,141833	0,5	-0,857250
17,150167	0,5	-0,854150
17,158500	0,5	-0,854650
17,166833	0,5	-0,848100
17,175167	0,5	-0,850250
17,183500	0,5	-0,839950
17,191833	0,5	-0,839050
17,200167	0,5	-0,842850
17,208500	0,5	-0,832400
17,216833	0,5	-0,829350
17,225167	0,5	-0,829150
17,233500	0,5	-0,833350
17,241833	0,5	-0,843200
17,250167	0,5	-0,832650
17,258500	0,5	-0,828100
17,266833	0,5	-0,821000
17,275167	0,5	-0,824350
17,283500	0,5	-0,817450
17,291833	0,5	-0,811800
17,300167	0,5	-0,807600
17,308500	0,5	-0,801600
17,316833	0,5	-0,796600
17,325167	0,5	-0,791900
17,333500	0,5	-0,788350
17,341833	0,5	-0,786200
17,350167	0,5	-0,787850
17,358500	0,5	-0,773200
17,366833	0,5	-0,777400
17,375167	0,5	-0,776850
17,383500	0,5	-0,785400
17,391833	0,5	-0,789850
17,400167	0,5	-0,783600
17,408500	0,5	-0,771400
17,416833	0,5	-0,769600
17,425167	0,5	-0,763800
17,433500	0,5	-0,763600
17,441833	0,5	-0,755500
17,450167	0,5	-0,754250
17,458500	0,5	-0,751850
17,466833	0,5	-0,750200
17,475167	0,5	-0,745300
17,483500	0,5	-0,746050
17,491833	0,5	-0,747650
17,500167	0,5	-0,738550
17,508500	0,5	-0,732000
17,516833	0,5	-0,732900
17,525167	0,5	-0,737450
17,533500	0,5	-0,747500
17,541833	0,5	-0,752900
17,550167	0,5	-0,748450
17,558500	0,5	-0,749450
17,566833	0,5	-0,752800
17,575167	0,5	-0,755850
17,583500	0,5	-0,749400
17,591833	0,5	-0,751950
17,600167	0,5	-0,747400
17,608500	0,5	-0,747400
17,616833	0,5	-0,748450
17,625167	0,5	-0,744900
17,633500	0,5	-0,750450
17,641833	0,5	-0,754400
17,650167	0,5	-0,743600
17,658500	0,5	-0,742100
17,666833	0,5	-0,751300
17,675167	0,5	-0,766500
17,683500	0,5	-0,771200
17,691833	0,5	-0,770000
17,700167	0,5	-0,769600
17,708500	0,5	-0,771800
17,716833	0,5	-0,776700
17,725167	0,5	-0,779100
17,733500	0,5	-0,781400
17,741833	0,5	-0,777200
17,750167	0,5	-0,785700
17,758500	0,5	-0,782800
17,766833	0,5	-0,790400
17,775167	0,5	-0,782950
17,783500	0,5	-0,800250
17,791833	0,5	-0,799300
17,800167	0,5	-0,793000
17,808500	0,5	-0,797950
17,816833	0,5	-0,802250
17,825167	0,5	-0,822550
17,833500	0,5	-0,820150
17,841833	0,5	-0,820850
17,850167	0,5	-0,822400
17,858500	0,5	-0,823000
17,866833	0,5	-0,833850
17,875167	0,5	-0,835450
17,883500	0,5	-0,833800
17,891833	0,5	-0,838150
17,900167	0,5	-0,834150
17,908500	0,5	-0,843350
17,916833	0,5	-0,842150
17,925167	0,5	-0,843500
17,933500	0,5	-0,855950
17,941833	0,5	-0,841300
17,950167	0,5	-0,840050
17,958500	0,5	-0,848500
17,966833	0,5	-0,856550
17,975167	0,5	-0,878850
17,983500	0,5	-0,873500
17,991833	0,5	-0,876950
18,000167	0,5	-0,878400
18,008500	0,5	-0,884450
18,016833	0,5	-0,883800
18,025167	0,5	-0,886700
18,033500	0,5	-0,891450
18,041833	0,5	-0,895500
18,050167	0,5	-0,902650
18,058500	0,5	-0,908850
18,066833	0,5	-0,912400
18,075167	0,5	-0,913950
18,083500	0,5	-0,927350
18,091833	0,5	-0,913100
18,100167	0,5	-0,918250
18,108500	0,5	-0,925000
18,116833	0,5	-0,939900
18,125167	0,5	-0,956250
18,133500	0,5	-0,949600
18,141833	0,5	-0,948500
18,150167	0,5	-0,955550
18,158500	0,5	-0,961900
18,166833	0,5	-0,969100
18,175167	0,5	-0,970050
18,183500	0,5	-0,973150
18,191833	0,5	-0,974850
18,200167	0,5	-0,977750
18,208500	0,5	-0,982350
18,216833	0,5	-0,977600
18,225167	0,5	-0,990000
18,233500	0,5	-0,992300
18,241833	0,5	-0,990350
18,250167	0,5	-0,992800
18,258500	0,5	-1,005300
18,266833	0,5	-1,018900
18,275167	0,5	-1,031750
18,283500	0,5	-1,027750
18,291833	0,5	-1,031100
18,300167	0,5	-1,032950
18,308500	0,5	-1,037050
18,316833	0,5	-1,036300
18,325167	0,5	-1,039600
18,333500	0,5	-1,038100
18,341833	0,5	-1,040450
18,350167	0,5	-1,046150
18,358500	0,5	-1,042300
18,366833	0,5	-1,043650
18,375167	0,5	-1,054400
18,383500	0,5	-1,049850
18,391833	0,5	-1,048850
18,400167	0,5	-1,055950
18,408500	0,5	-1,064550
18,416833	0,5	-1,085550
18,425167	0,5	-1,089250
18,433500	0,5	-1,090100
18,441833	0,5	-1,085350
18,450167	0,5	-1,091400
18,458500	0,5	-1,091250
18,466833	0,5	-1,094650
18,475167	0,5	-1,090700
18,483500	0,5	-1,093850
18,491833	0,5	-1,096100
18,500167	0,5	-1,096600
18,508500	0,5	-1,092900
18,516833	0,5	-1,101300
18,525167	0,5	-1,108350
18,533500	0,5	-1,101400
18,541833	0,5	-1,105300
18,550167	0,5	-1,109550
18,558500	0,5	-1,129800
18,566833	0,5	-1,133600
18,575167	0,5	-1,137550
18,583500	0,5	-1,135250
18,591833	0,5	-1,137650
18,600167	0,5	-1,141050
18,608500	0,5	-1,144700
18,616833	0,5	-1,141100
18,625167	0,5	-1,144650
18,633500	0,5	-1,145150
18,641833	0,5	-1,151300
18,650167	0,5	-1,154850
18,658500	0,5	-1,149200
18,666833	0,5	-1,163050
18,675167	0,5	-1,159700
18,683500	0,5	-1,155700
18,691833	0,5	-1,157000
18,700167	0,5	-1,164400
18,708500	0,5	-1,182300
18,716833	0,5	-1,191600
18,725167	0,5	-1,185650
18,733500	0,5	-1,192150
18,741833	0,5	-1,187500
18,750167	0,5	-1,197800
18,758500	0,5	-1,192850
18,766833	0,5	-1,198100
18,775167	0,5	-1,193800
18,783500	0,5	-1,199750
18,791833	0,5	-1,203300
18,800167	0,5	-1,192850
18,808500	0,5	-1,189700
18,816833	0,5	-1,208400
18,825167	0,5	-1,196900
18,833500	0,5	-1,194500
18,841833	0,5	-1,203600
18,850167	0,5	-1,213550
18,858500	0,5	-1,226450
18,866833	0,5	-1,213450
18,875167	0,5	-1,214150
18,883500	0,5	-1,212500
18,891833	0,5	-1,216950
18,900167	0,5	-1,211950
18,908500	0,5	-1,219850
18,916833	0,5	-1,217600
18,925167	0,5	-1,219400
18,933500	0,5	-1,218450
18,941833	0,5	-1,226100
18,950167	0,5	-1,217300
18,958500	0,5	-1,228100
18,966833	0,5	-1,227400
18,975167	0,5	-1,223500
18,983500	0,5	-1,214350
18,991833	0,5	-1,218100
19,000167	0,5	-1,230250
19,008500	0,5	-1,234200
19,016833	0,5	-1,235300
19,025167	0,5	-1,228400
19,033500	0,5	-1,231650
19,041833	0,5	-1,241300
19,050167	0,5	-1,248950
19,058500	0,5	-1,243550
19,066833	0,5	-1,249100
19,075167	0,5	-1,253850
19,083500	0,5	-1,258350
19,091833	0,5	-1,261700
19,100167	0,5	-1,260700
19,108500	0,5	-1,266600
19,116833	0,5	-1,262450
19,125167	0,5	-1,263950
19,133500	0,5	-1,266700
19,141833	0,5	-1,275800
19,150167	0,5	-1,295300
19,158500	0,5	-1,299050
19,166833	0,5	-1,290500
19,175167	0,5	-1,295850
19,183500	0,5	-1,298600
19,191833	0,5	-1,298750
19,200167	0,5	-1,301250
19,208500	0,5	-1,303750
19,216833	0,5	-1,303650
19,225167	0,5	-1,309050
19,233500	0,5	-1,304150
19,241833	0,5	-1,310600
19,250167	0,5	-1,307850
19,258500	0,5	-1,322450
19,266833	0,5	-1,312100
19,275167	0,5	-1,320950
19,283500	0,5	-1,322550
19,291833	0,5	-1,337100
19,300167	0,5	-1,357200
19,308500	0,5	-1,355800
19,316833	0,5	-1,359100
19,325167	0,5	-1,361250
19,333500	0,5	-1,367300
19,341833	0,5	-1,362300
19,350167	0,5	-1,370200
19,358500	0,5	-1,364500
19,366833	0,5	-1,369550
19,375167	0,5	-1,364950
19,383500	0,5	-1,365600
19,391833	0,5	-1,360550
19,400167	0,5	-1,369250
19,408500	0,5	-1,374500
19,416833	0,5	-1,375200
19,425167	0,5	-1,378750
19,433500	0,5	-1,392050
19,441833	0,5	-1,409950
19,450167	0,5	-1,422600
19,458500	0,5	-1,418850
19,466833	0,5	-1,418500
19,475167	0,5	-1,420850
19,483500	0,5	-1,424450
19,491833	0,5	-1,423450
19,500167	0,5	-1,423100
19,508500	0,5	-1,422500
19,516833	0,5	-1,426600
19,525167	0,5	-1,430250
19,533500	0,5	-1,417850
19,541833	0,5	-1,419950
19,550167	0,5	-1,429350
19,558500	0,5	-1,427600
19,566833	0,5	-1,421750
19,575167	0,5	-1,432800
19,583500	0,5	-1,435850
19,591833	0,5	-1,450900
19,600167	0,5	-1,456850
19,608500	0,5	-1,458200
19,616833	0,5	-1,460400
19,625167	0,5	-1,463000
19,633500	0,5	-1,465700
19,641833	0,5	-1,469650
19,650167	0,5	-1,464350
19,658500	0,5	-1,463200
19,666833	0,5	-1,467450
19,675167	0,5	-1,467400
19,683500	0,5	-1,453450
19,691833	0,5	-1,458600
19,700167	0,5	-1,469650
19,708500	0,5	-1,462750
19,716833	0,5	-1,456500
19,725167	0,5	-1,462200
19,733500	0,5	-1,479250
19,741833	0,5	-1,488250
19,750167	0,5	-1,484950
19,758500	0,5	-1,483650
19,766833	0,5	-1,488350
19,775167	0,5	-1,487950
19,783500	0,5	-1,490500
19,791833	0,5	-1,491050
19,800167	0,5	-1,490700
19,808500	0,5	-1,496450
19,816833	0,5	-1,500800
19,825167	0,5	-1,503150
19,833500	0,5	-1,497300
19,841833	0,5	-1,519350
19,850167	0,5	-1,517000
19,858500	0,5	-1,517950
19,866833	0,5	-1,517750
19,875167	0,5	-1,529100
19,883500	0,5	-1,544300
19,891833	0,5	-1,548800
19,900167	0,5	-1,538450
19,908500	0,5	-1,543600
19,916833	0,5	-1,543650
19,925167	0,5	-1,548150
19,933500	0,5	-1,545450
19,941833	0,5	-1,546900
19,950167	0,5	-1,541800
19,958500	0,5	-1,543700
19,966833	0,5	-1,540800
19,975167	0,5	-1,532950
19,983500	0,5	-1,527950
19,991833	0,5	-1,542250
20,000167	0,5	-1,531600
20,008500	0,5	-1,533000
20,016833	0,5	-1,532600
20,025167	0,5	-1,542400
20,033500	0,5	-1,560300
20,041833	0,5	-1,551900
20,050167	0,5	-1,552700
20,058500	0,5	-1,546400
20,066833	0,5	-1,549900
20,075167	0,5	-1,548950
20,083500	0,5	-1,549800
20,091833	0,5	-1,545100
20,100167	0,5	-1,547750
20,108500	0,5	-1,545100
20,116833	0,5	-1,542050
20,125167	0,5	-1,539200
20,133500	0,5	-1,539500
20,141833	0,5	-1,546100
20,150167	0,5	-1,531650
20,158500	0,5	-1,532500
20,166833	0,5	-1,535750
20,175167	0,5	-1,552200
20,183500	0,5	-1,558500
20,191833	0,5	-1,556700
20,200167	0,5	-1,548550
20,208500	0,5	-1,549550
20,216833	0,5	-1,546850
20,225167	0,5	-1,550850
20,233500	0,5	-1,544650
20,241833	0,5	-1,543750
20,250167	0,5	-1,540050
20,258500	0,5	-1,534650
20,266833	0,5	-1,528400
20,275167	0,5	-1,520300
20,283500	0,5	-1,522450
20,291833	0,5	-1,518200
20,300167	0,5	-1,509550
20,308500	0,5	-1,513550
20,316833	0,5	-1,524850
20,325167	0,5	-1,536550
20,333500	0,5	-1,541550
20,341833	0,5	-1,533450
20,350167	0,5	-1,535550
20,358500	0,5	-1,533450
20,366833	0,5	-1,534800
20,375167	0,5	-1,525750
20,383500	0,5	-1,528050
20,391833	0,5	-1,521800
20,400167	0,5	-1,521800
20,408500	0,5	-1,524900
20,416833	0,5	-1,515450
20,425167	0,5	-1,515550
20,433500	0,5	-1,528550
20,441833	0,5	-1,521100
20,450167	0,5	-1,524900
20,458500	0,5	-1,534100
20,466833	0,5	-1,547400
20,475167	0,5	-1,563050
20,483500	0,5	-1,560900
20,491833	0,5	-1,559200
20,500167	0,5	-1,558600
20,508500	0,5	-1,559300
20,516833	0,5	-1,557750
20,525167	0,5	-1,559350
20,533500	0,5	-1,555000
20,541833	0,5	-1,559750
20,550167	0,5	-1,555800
20,558500	0,5	-1,547200
20,566833	0,5	-1,534150
20,575167	0,5	-1,539400
20,583500	0,5	-1,539950
20,591833	0,5	-1,538950
20,600167	0,5	-1,540300
20,608500	0,5	-1,552800
20,616833	0,5	-1,575400
20,625167	0,5	-1,568350
20,633500	0,5	-1,570100
20,641833	0,5	-1,569600
20,650167	0,5	-1,572500
20,658500	0,5	-1,564050
20,666833	0,5	-1,567450
20,675167	0,5	-1,559150
20,683500	0,5	-1,560250
20,691833	0,5	-1,553950
20,700167	0,5	-1,554050
20,708500	0,5	-1,535350
20,716833	0,5	-1,528100
20,725167	0,5	-1,533300
20,733500	0,5	-1,532000
20,741833	0,5	-1,526350
20,750167	0,5	-1,529850
20,758500	0,5	-1,537550
20,766833	0,5	-1,545700
20,775167	0,5	-1,535250
20,783500	0,5	-1,522100
20,791833	0,5	-1,523900
20,800167	0,5	-1,517200
20,808500	0,5	-1,520450
20,816833	0,5	-1,516750
20,825167	0,5	-1,513700
20,833500	0,5	-1,508050
20,841833	0,5	-1,509750
20,850167	0,5	-1,501150
20,858500	0,5	-1,481550
20,866833	0,5	-1,468600
20,875167	0,5	-1,475800
20,883500	0,5	-1,469150
20,891833	0,5	-1,473050
20,900167	0,5	-1,477650
20,908500	0,5	-1,498350
20,916833	0,5	-1,497600
20,925167	0,5	-1,480650
20,933500	0,5	-1,481700
20,941833	0,5	-1,477450
20,950167	0,5	-1,480000
20,958500	0,5	-1,472400
20,966833	0,5	-1,472550
20,975167	0,5	-1,462350
20,983500	0,5	-1,461350
20,991833	0,5	-1,453800
21,000167	0,5	-1,432500
21,008500	0,5	-1,418500
21,016833	0,5	-1,417950
21,025167	0,5	-1,417050
21,033500	0,5	-1,416000
21,041833	0,5	-1,415600
21,050167	0,5	-1,426050
21,058500	0,5	-1,441000
21,066833	0,5	-1,431950
21,075167	0,5	-1,428900
21,083500	0,5	-1,423700
21,091833	0,5	-1,419450
21,100167	0,5	-1,411150
21,108500	0,5	-1,409350
21,116833	0,5	-1,394500
21,125167	0,5	-1,391450
21,133500	0,5	-1,383200
21,141833	0,5	-1,374550
21,150167	0,5	-1,345400
21,158500	0,5	-1,328850
21,166833	0,5	-1,329350
21,175167	0,5	-1,329650
21,183500	0,5	-1,331650
21,191833	0,5	-1,337050
21,200167	0,5	-1,350050
21,208500	0,5	-1,363800
21,216833	0,5	-1,353400
21,225167	0,5	-1,340950
21,233500	0,5	-1,339950
21,241833	0,5	-1,331850
21,250167	0,5	-1,328450
21,258500	0,5	-1,321750
21,266833	0,5	-1,316000
21,275167	0,5	-1,306350
21,283500	0,5	-1,304650
21,291833	0,5	-1,279000
21,300167	0,5	-1,263600
21,308500	0,5	-1,254900
21,316833	0,5	-1,257650
21,325167	0,5	-1,251350
21,333500	0,5	-1,257650
21,341833	0,5	-1,265650
21,350167	0,5	-1,268750
21,358500	0,5	-1,271850
21,366833	0,5	-1,266000
21,375167	0,5	-1,262650
21,383500	0,5	-1,249600
21,391833	0,5	-1,244900
21,400167	0,5	-1,239550
21,408500	0,5	-1,232900
21,416833	0,5	-1,213250
21,425167	0,5	-1,208050
21,433500	0,5	-1,192050
21,441833	0,5	-1,158800
21,450167	0,5	-1,133600
21,458500	0,5	-1,123700
21,466833	0,5	-1,112400
21,475167	0,5	-1,102900
21,483500	0,5	-1,083700
21,491833	0,5	-1,074600
21,500167	0,5	-1,063400
21,508500	0,5	-1,039450
21,516833	0,5	-1,026750
21,525167	0,5	-1,014950
21,533500	0,5	-1,013150
21,541833	0,5	-1,009550
21,550167	0,5	-1,011800
21,558500	0,5	-1,008550
21,566833	0,5	-1,018050
21,575167	0,5	-1,007650
21,583500	0,5	-0,994400
21,591833	0,5	-0,968700
21,600167	0,5	-0,954600
21,608500	0,5	-0,952300
21,616833	0,5	-0,939750
21,625167	0,5	-0,938750
21,633500	0,5	-0,934600
21,641833	0,5	-0,939750
21,650167	0,5	-0,919700
21,658500	0,5	-0,909450
21,666833	0,5	-0,889650
21,675167	0,5	-0,876700
21,683500	0,5	-0,860600
21,691833	0,5	-0,846300
21,700167	0,5	-0,827100
21,708500	0,5	-0,811250
21,716833	0,5	-0,790250
21,725167	0,5	-0,775550
21,733500	0,5	-0,743300
21,741833	0,5	-0,718500
21,750167	0,5	-0,710150
21,758500	0,5	-0,697050
21,766833	0,5	-0,683900
21,775167	0,5	-0,677200
21,783500	0,5	-0,662000
21,791833	0,5	-0,657100
21,800167	0,5	-0,638100
21,808500	0,5	-0,618950
21,816833	0,5	-0,605650
21,825167	0,5	-0,590400
21,833500	0,5	-0,580050
21,841833	0,5	-0,559150
21,850167	0,5	-0,542400
21,858500	0,5	-0,519700
21,866833	0,5	-0,506050
21,875167	0,5	-0,477700
21,883500	0,5	-0,443100
21,891833	0,5	-0,429350
21,900167	0,5	-0,417250
21,908500	0,5	-0,393250
21,916833	0,5	-0,374350
21,925167	0,5	-0,358300
21,933500	0,5	-0,354300
21,941833	0,5	-0,329550
21,950167	0,5	-0,297000
21,958500	0,5	-0,274300
21,966833	0,5	-0,249000
21,975167	0,5	-0,226350
21,983500	0,5	-0,196900
21,991833	0,5	-0,171500
22,000167	0,5	-0,133600
22,008500	0,5	-0,099300
22,016833	0,5	-0,061600
22,025167	0,5	-0,023100
22,033500	0,5	0,016050
22,041833	0,5	0,031750
22,050167	0,5	0,079850
22,058500	0,5	0,110800
22,066833	0,5	0,144100
22,075167	0,5	0,167500
22,083500	0,5	0,179750
22,091833	0,5	0,218750
22,100167	0,5	0,243050
22,108500	0,5	0,269250
22,116833	0,5	0,286200
22,125167	0,5	0,317600
22,133500	0,5	0,335700
22,141833	0,5	0,370000
22,150167	0,5	0,396350
22,158500	0,5	0,427300
22,166833	0,5	0,457900
22,175167	0,5	0,497300
22,183500	0,5	0,521750
22,191833	0,5	0,560950
22,200167	0,5	0,612200
22,208500	0,5	0,643950
22,216833	0,5	0,678950
22,225167	0,5	0,709000
22,233500	0,5	0,749450
22,241833	0,5	0,795750
22,250167	0,5	0,846800
22,258500	0,5	0,887750
22,266833	0,5	0,933300
22,275167	0,5	0,972150
22,283500	0,5	1,011150
22,291833	0,5	1,054900
22,300167	0,5	1,107050
22,308500	0,5	1,151700
22,316833	0,5	1,192450
22,325167	0,5	1,240250
22,333500	0,5	1,299750
22,341833	0,5	1,363700
22,350167	0,5	1,424350
22,358500	0,5	1,471650
22,366833	0,5	1,517500
22,375167	0,5	1,557250
22,383500	0,5	1,607450
22,391833	0,5	1,667750
22,400167	0,5	1,720700
22,408500	0,5	1,778250
22,416833	0,5	1,832750
22,425167	0,5	1,890600
22,433500	0,5	1,948600
22,441833	0,5	2,013300
22,450167	0,5	2,064300
22,458500	0,5	2,130300
22,466833	0,5	2,169700
22,475167	0,5	2,224000
22,483500	0,5	2,294650
22,491833	0,5	2,372150
22,500167	0,5	2,424900
22,508500	0,5	2,481900
22,516833	0,5	2,526600
22,525167	0,5	2,573700
22,533500	0,5	2,633300
22,541833	0,5	2,683500
22,550167	0,5	2,732100
22,558500	0,5	2,776050
22,566833	0,5	2,822800
22,575167	0,5	2,864000
22,583500	0,5	2,908500
22,591833	0,5	2,938650
22,600167	0,5	2,970600
22,608500	0,5	2,974700
22,616833	0,5	2,998500
22,625167	0,5	3,019800
22,633500	0,5	3,058150
22,641833	0,5	3,069700
22,650167	0,5	3,067700
22,658500	0,5	3,054800
22,666833	0,5	3,031100
22,675167	0,5	3,022750
22,683500	0,5	3,007000
22,691833	0,5	2,983650
22,700167	0,5	2,953450
22,708500	0,5	2,920050
22,716833	0,5	2,878650
22,725167	0,5	2,834800
22,733500	0,5	2,781050
22,741833	0,5	2,731500
22,750167	0,5	2,654550
22,758500	0,5	2,537350
22,766833	0,5	2,465300
22,775167	0,5	2,403600
22,783500	0,5	2,324150
22,791833	0,5	2,219100
22,800167	0,5	2,118500
22,808500	0,5	2,007500
22,816833	0,5	1,892500
22,825167	0,5	1,781750
22,833500	0,5	1,667950
22,841833	0,5	1,550800
22,850167	0,5	1,433550
22,858500	0,5	1,319400
22,866833	0,5	1,197500
22,875167	0,5	1,081350
22,883500	0,5	0,955400
22,891833	0,5	0,835600
22,900167	0,5	0,709150
22,908500	0,5	0,555450
22,916833	0,5	0,435250
22,925167	0,5	0,316650
22,933500	0,5	0,176000
22,941833	0,5	0,042850
22,950167	0,5	-0,077750
22,958500	0,5	-0,192950
22,966833	0,5	-0,316050
22,975167	0,5	-0,437000
22,983500	0,5	-0,541600
22,991833	0,5	-0,644400
23,000167	0,5	-0,740600
23,008500	0,5	-0,837100
23,016833	0,5	-0,931500
23,025167	0,5	-1,029200
23,033500	0,5	-1,107400
23,041833	0,5	-1,202650
23,050167	0,5	-1,268750
23,058500	0,5	-1,346300
23,066833	0,5	-1,440500
23,075167	0,5	-1,551300
23,083500	0,5	-1,619250
23,091833	0,5	-1,692050
23,100167	0,5	-1,744550
23,108500	0,5	-1,796150
23,116833	0,5	-1,853550
23,125167	0,5	-1,896850
23,133500	0,5	-1,932900
23,141833	0,5	-1,966450
23,150167	0,5	-1,995100
23,158500	0,5	-2,022550
23,166833	0,5	-2,058200
23,175167	0,5	-2,082900
23,183500	0,5	-2,109550
23,191833	0,5	-2,118250
23,200167	0,5	-2,156800
23,208500	0,5	-2,164850
23,216833	0,5	-2,195800
23,225167	0,5	-2,248150
23,233500	0,5	-2,271350
23,241833	0,5	-2,275950
23,250167	0,5	-2,285350
23,258500	0,5	-2,279750
23,266833	0,5	-2,289750
23,275167	0,5	-2,277700
23,283500	0,5	-2,276550
23,291833	0,5	-2,259000
23,300167	0,5	-2,249750
23,308500	0,5	-2,234100
23,316833	0,5	-2,220600
23,325167	0,5	-2,206500
23,333500	0,5	-2,188250
23,341833	0,5	-2,176550
23,350167	0,5	-2,189600
23,358500	0,5	-2,145500
23,366833	0,5	-2,146750
23,375167	0,5	-2,166450
23,383500	0,5	-2,155750
23,391833	0,5	-2,146600
23,400167	0,5	-2,129900
23,408500	0,5	-2,118200
23,416833	0,5	-2,100400
23,425167	0,5	-2,086200
23,433500	0,5	-2,055200
23,441833	0,5	-2,031500
23,450167	0,5	-2,005100
23,458500	0,5	-1,980850
23,466833	0,5	-1,954850
23,475167	0,5	-1,932200
23,483500	0,5	-1,906150
23,491833	0,5	-1,935600
23,500167	0,5	-1,892850
23,508500	0,5	-1,835650
23,516833	0,5	-1,814600
23,525167	0,5	-1,814000
23,533500	0,5	-1,796750
23,541833	0,5	-1,778900
23,550167	0,5	-1,764750
23,558500	0,5	-1,747700
23,566833	0,5	-1,737300
23,575167	0,5	-1,718200
23,583500	0,5	-1,699700
23,591833	0,5	-1,679700
23,600167	0,5	-1,665000
23,608500	0,5	-1,642000
23,616833	0,5	-1,621150
23,625167	0,5	-1,599050
23,633500	0,5	-1,601800
23,641833	0,5	-1,652400
23,650167	0,5	-1,609000
23,658500	0,5	-1,544850
23,666833	0,5	-1,508700
23,675167	0,5	-1,495550
23,683500	0,5	-1,481650
23,691833	0,5	-1,468100
23,700167	0,5	-1,452800
23,708500	0,5	-1,435800
23,716833	0,5	-1,419050
23,725167	0,5	-1,400250
23,733500	0,5	-1,384300
23,741833	0,5	-1,365050
23,750167	0,5	-1,348700
23,758500	0,5	-1,335150
23,766833	0,5	-1,318750
23,775167	0,5	-1,307200
23,783500	0,5	-1,393350
23,791833	0,5	-1,375850
23,800167	0,5	-1,362850
23,808500	0,5	-1,287100
23,816833	0,5	-1,264850
23,825167	0,5	-1,250100
23,833500	0,5	-1,239100
23,841833	0,5	-1,236250
23,850167	0,5	-1,216950
23,858500	0,5	-1,197800
23,866833	0,5	-1,180700
23,875167	0,5	-1,165250
23,883500	0,5	-1,144000
23,891833	0,5	-1,127750
23,900167	0,5	-1,107100
23,908500	0,5	-1,089600
23,916833	0,5	-1,071650
23,925167	0,5	-1,069550
23,933500	0,5	-1,182450
23,941833	0,5	-1,138000
23,950167	0,5	-1,100850
23,958500	0,5	-1,039600
23,966833	0,5	-1,012750
23,975167	0,5	-1,001850
23,983500	0,5	-0,991100
23,991833	0,5	-0,997550
24,000167	0,5	-0,975500
24,008500	0,5	-0,962000
24,016833	0,5	-0,951550
24,025167	0,5	-0,937650
24,033500	0,5	-0,921400
24,041833	0,5	-0,904000
24,050167	0,5	-0,888250
24,058500	0,5	-0,868700
24,066833	0,5	-0,854750
24,075167	0,5	-0,883050
24,083500	0,5	-0,952900
24,091833	0,5	-0,895200
24,100167	0,5	-0,856100
24,108500	0,5	-0,803550
24,116833	0,5	-0,784750
24,125167	0,5	-0,770100
24,133500	0,5	-0,761700
24,141833	0,5	-0,756600
24,150167	0,5	-0,732950
24,158500	0,5	-0,716550
24,166833	0,5	-0,701500
24,175167	0,5	-0,682800
24,183500	0,5	-0,666350
24,191833	0,5	-0,650250
24,200167	0,5	-0,632300
24,208500	0,5	-0,623300
24,216833	0,5	-0,610850
24,225167	0,5	-0,697950
24,233500	0,5	-0,677500
24,241833	0,5	-0,656400
24,250167	0,5	-0,608800
24,258500	0,5	-0,575700
24,266833	0,5	-0,557950
24,275167	0,5	-0,548450
24,283500	0,5	-0,545600
24,291833	0,5	-0,541400
24,300167	0,5	-0,519500
24,308500	0,5	-0,507650
24,316833	0,5	-0,479850
24,325167	0,5	-0,465650
24,333500	0,5	-0,445300
24,341833	0,5	-0,428550
24,350167	0,5	-0,414950
24,358500	0,5	-0,397750
24,366833	0,5	-0,393750
24,375167	0,5	-0,456750
24,383500	0,5	-0,435750
24,391833	0,5	-0,403550
24,400167	0,5	-0,369550
24,408500	0,5	-0,348400
24,416833	0,5	-0,338700
24,425167	0,5	-0,333200
24,433500	0,5	-0,330900
24,441833	0,5	-0,320100
24,450167	0,5	-0,312250
24,458500	0,5	-0,298150
24,466833	0,5	-0,290300
24,475167	0,5	-0,272250
24,483500	0,5	-0,267600
24,491833	0,5	-0,248000
24,500167	0,5	-0,239350
24,508500	0,5	-0,227750
24,516833	0,5	-0,234700
24,525167	0,5	-0,265450
24,533500	0,5	-0,247950
24,541833	0,5	-0,218150
24,550167	0,5	-0,187550
24,558500	0,5	-0,170050
24,566833	0,5	-0,158050
24,575167	0,5	-0,160400
24,583500	0,5	-0,153850
24,591833	0,5	-0,148900
24,600167	0,5	-0,137050
24,608500	0,5	-0,130450
24,616833	0,5	-0,118850
24,625167	0,5	-0,108450
24,633500	0,5	-0,097450
24,641833	0,5	-0,088500
24,650167	0,5	-0,079400
24,658500	0,5	-0,076400
24,666833	0,5	-0,108750
24,675167	0,5	-0,096900
24,683500	0,5	-0,089100
24,691833	0,5	-0,069500
24,700167	0,5	-0,051850
24,708500	0,5	-0,040250
24,716833	0,5	-0,033100
24,725167	0,5	-0,037450
24,733500	0,5	-0,032200
24,741833	0,5	-0,015800
24,750167	0,5	-0,007600
24,758500	0,5	0,003500
24,766833	0,5	0,009350
24,775167	0,5	0,017500
24,783500	0,5	0,028700
24,791833	0,5	0,031450
24,800167	0,5	0,038400
24,808500	0,5	0,042250
24,816833	0,5	0,016350
24,825167	0,5	0,031000
24,833500	0,5	0,032750
24,841833	0,5	0,054550
24,850167	0,5	0,059200
24,858500	0,5	0,066500
24,866833	0,5	0,067250
24,875167	0,5	0,062450
24,883500	0,5	0,067100
24,891833	0,5	0,074000
24,900167	0,5	0,079400
24,908500	0,5	0,082400
24,916833	0,5	0,089850
24,925167	0,5	0,095550
24,933500	0,5	0,103900
24,941833	0,5	0,109400
24,950167	0,5	0,116800
24,958500	0,5	0,113000
24,966833	0,5	0,105950
24,975167	0,5	0,115400
24,983500	0,5	0,124000
24,991833	0,5	0,131700
25,000167	0,5	0,141350
25,008500	0,5	0,141900
25,016833	0,5	0,142450
25,025167	0,5	0,140800
25,033500	0,5	0,146050
25,041833	0,5	0,148250
25,050167	0,5	0,147750
25,058500	0,5	0,154450
25,066833	0,5	0,155550
25,075167	0,5	0,161450
25,083500	0,5	0,157200
25,091833	0,5	0,164350
25,100167	0,5	0,164450
25,108500	0,5	0,160800
25,116833	0,5	0,162050
25,125167	0,5	0,167300
25,133500	0,5	0,176200
25,141833	0,5	0,181900
25,150167	0,5	0,184750
25,158500	0,5	0,189750
25,166833	0,5	0,188350
25,175167	0,5	0,185200
25,183500	0,5	0,188550
25,191833	0,5	0,190000
25,200167	0,5	0,194000
25,208500	0,5	0,196200
25,216833	0,5	0,196500
25,225167	0,5	0,198250
25,233500	0,5	0,200700
25,241833	0,5	0,202700
25,250167	0,5	0,204700
25,258500	0,5	0,199300
25,266833	0,5	0,201200
25,275167	0,5	0,200700
25,283500	0,5	0,205400
25,291833	0,5	0,204550
25,300167	0,5	0,206500
25,308500	0,5	0,206550
25,316833	0,5	0,205000
25,325167	0,5	0,206650
25,333500	0,5	0,208850
25,341833	0,5	0,212200
25,350167	0,5	0,215350
25,358500	0,5	0,215500
25,366833	0,5	0,217400
25,375167	0,5	0,216050
25,383500	0,5	0,219450
25,391833	0,5	0,218200
25,400167	0,5	0,218800
25,408500	0,5	0,222900
25,416833	0,5	0,221850
25,425167	0,5	0,222300
25,433500	0,5	0,220250
25,441833	0,5	0,218850
25,450167	0,5	0,221600
25,458500	0,5	0,218050
25,466833	0,5	0,218450
25,475167	0,5	0,220800
25,483500	0,5	0,217600
25,491833	0,5	0,218850
25,500167	0,5	0,220750
25,508500	0,5	0,220900
25,516833	0,5	0,221350
25,525167	0,5	0,223750
25,533500	0,5	0,226150
25,541833	0,5	0,226500
25,550167	0,5	0,228950
25,558500	0,5	0,232200
25,566833	0,5	0,235800
25,575167	0,5	0,228000
25,583500	0,5	0,227500
25,591833	0,5	0,226750
25,600167	0,5	0,227150
25,608500	0,5	0,228600
25,616833	0,5	0,228100
25,625167	0,5	0,226750
25,633500	0,5	0,225500
25,641833	0,5	0,222800
25,650167	0,5	0,224200
25,658500	0,5	0,223100
25,666833	0,5	0,221800
25,675167	0,5	0,223550
25,683500	0,5	0,223300
25,691833	0,5	0,221950
25,700167	0,5	0,229450
25,708500	0,5	0,229950
25,716833	0,5	0,229500
25,725167	0,5	0,227150
25,733500	0,5	0,225050
25,741833	0,5	0,225800
25,750167	0,5	0,226600
25,758500	0,5	0,232850
25,766833	0,5	0,229100
25,775167	0,5	0,227450
25,783500	0,5	0,227100
25,791833	0,5	0,225500
25,800167	0,5	0,224200
25,808500	0,5	0,222700
25,816833	0,5	0,223450
25,825167	0,5	0,221200
25,833500	0,5	0,222650
25,841833	0,5	0,223050
25,850167	0,5	0,225900
25,858500	0,5	0,223600
25,866833	0,5	0,232650
25,875167	0,5	0,219400
25,883500	0,5	0,221650
25,891833	0,5	0,220100
25,900167	0,5	0,226400
25,908500	0,5	0,237000
25,916833	0,5	0,230650
25,925167	0,5	0,234150
25,933500	0,5	0,232850
25,941833	0,5	0,235900
25,950167	0,5	0,235750
25,958500	0,5	0,236500
25,966833	0,5	0,233350
25,975167	0,5	0,236700
25,983500	0,5	0,234350
25,991833	0,5	0,237900
26,000167	0,5	0,235400
