File Path	chrom://chromeleon01/ikbm_chromeleon/2022/ICS-5000/ED1/Esteban/20220612_Cell_7_4_eg.seq/609.smp/ED_1.channel/ED_1.chm
Channel	ED_1

Injection Information:
Data Vault	ikbm_chromeleon
Injection	Std_C1ox-0.0025_3
Injection Number	154
Position	RA4
Comment	
Processing Method	Stop sequence after Cell Death
Instrument Method	ICS5000_PA200_FullNative_Ox_26min_ED1
Type	Unknown
Status	Finished
Injection Date	15.06.2022
Injection Time	16:59:37
Injection Volume (µl)	5,0
Dilution Factor	1,0000
Weight	1,0000

Chromatogram Data Information:
Time Min. (min)	0,000167
Time Max. (min)	26,000167
Data Points	3121
Detector	EDet1
Generating Data System	Chromeleon 7.2.9.11323
Exporting Data System	Chromeleon 7.2.9.0
Operator	Instrument Controller
Signal Quantity	
Signal Unit	nC
Signal Min.	-2,323300
Signal Max.	20,043250
Channel	ED_1
Driver Name	DC-5000
Channel Type	Evaluation
Min. Step (s)	0,5
Max. Step (s)	0,5
Average Step (s)	0,5

Signal Parameter Information:
Signal Info	

Chromatogram Data:
Time (min)	Step (s)	Value (nC)
0,000167	n.a.	0,003000
0,008500	0,5	-0,087350
0,016833	0,5	-0,084400
0,025167	0,5	-0,076200
0,033500	0,5	-0,056200
0,041833	0,5	-0,046550
0,050167	0,5	-0,042000
0,058500	0,5	-0,037300
0,066833	0,5	-0,037950
0,075167	0,5	-0,028100
0,083500	0,5	-0,050750
0,091833	0,5	-0,013800
0,100167	0,5	-0,027950
0,108500	0,5	-0,049800
0,116833	0,5	-0,053100
0,125167	0,5	-0,042250
0,133500	0,5	-0,007750
0,141833	0,5	0,003950
0,150167	0,5	-0,015150
0,158500	0,5	-0,007600
0,166833	0,5	-0,018900
0,175167	0,5	-0,012350
0,183500	0,5	-0,020950
0,191833	0,5	-0,013500
0,200167	0,5	-0,024450
0,208500	0,5	-0,024300
0,216833	0,5	-0,027450
0,225167	0,5	-0,040000
0,233500	0,5	-0,056850
0,241833	0,5	-0,020600
0,250167	0,5	-0,045100
0,258500	0,5	-0,055700
0,266833	0,5	-0,054650
0,275167	0,5	-0,045200
0,283500	0,5	-0,001450
0,291833	0,5	-0,015200
0,300167	0,5	-0,013600
0,308500	0,5	-0,013650
0,316833	0,5	0,000700
0,325167	0,5	-0,018400
0,333500	0,5	-0,022350
0,341833	0,5	-0,036400
0,350167	0,5	-0,035850
0,358500	0,5	-0,041350
0,366833	0,5	-0,033450
0,375167	0,5	-0,041900
0,383500	0,5	-0,049950
0,391833	0,5	-0,029400
0,400167	0,5	-0,054300
0,408500	0,5	-0,059250
0,416833	0,5	-0,053150
0,425167	0,5	-0,039050
0,433500	0,5	0,002050
0,441833	0,5	-0,007150
0,450167	0,5	-0,021500
0,458500	0,5	-0,019400
0,466833	0,5	-0,019500
0,475167	0,5	-0,016750
0,483500	0,5	-0,025750
0,491833	0,5	-0,020750
0,500167	0,5	-0,030350
0,508500	0,5	-0,017650
0,516833	0,5	-0,015750
0,525167	0,5	-0,012050
0,533500	0,5	-0,024950
0,541833	0,5	-0,001150
0,550167	0,5	-0,033000
0,558500	0,5	-0,023050
0,566833	0,5	-0,020450
0,575167	0,5	0,005050
0,583500	0,5	0,028200
0,591833	0,5	0,021100
0,600167	0,5	0,015400
0,608500	0,5	0,027650
0,616833	0,5	0,025050
0,625167	0,5	0,027850
0,633500	0,5	0,031050
0,641833	0,5	0,018950
0,650167	0,5	0,025450
0,658500	0,5	0,022000
0,666833	0,5	0,026400
0,675167	0,5	0,017800
0,683500	0,5	0,039050
0,691833	0,5	0,034800
0,700167	0,5	0,020450
0,708500	0,5	0,024350
0,716833	0,5	0,038950
0,725167	0,5	0,067850
0,733500	0,5	0,096950
0,741833	0,5	0,085850
0,750167	0,5	0,094700
0,758500	0,5	0,087500
0,766833	0,5	0,091400
0,775167	0,5	0,087700
0,783500	0,5	0,091400
0,791833	0,5	0,087800
0,800167	0,5	0,094950
0,808500	0,5	0,103550
0,816833	0,5	0,083700
0,825167	0,5	0,085750
0,833500	0,5	0,105300
0,841833	0,5	0,098250
0,850167	0,5	0,088600
0,858500	0,5	0,099400
0,866833	0,5	0,108100
0,875167	0,5	0,147350
0,883500	0,5	0,149150
0,891833	0,5	0,158200
0,900167	0,5	0,146350
0,908500	0,5	0,154650
0,916833	0,5	0,150050
0,925167	0,5	0,161500
0,933500	0,5	0,151100
0,941833	0,5	0,154650
0,950167	0,5	0,157850
0,958500	0,5	0,158950
0,966833	0,5	0,148350
0,975167	0,5	0,162100
0,983500	0,5	0,169550
0,991833	0,5	0,159950
1,000167	0,5	0,152700
1,008500	0,5	0,161850
1,016833	0,5	0,182100
1,025167	0,5	0,196600
1,033500	0,5	0,209850
1,041833	0,5	0,202950
1,050167	0,5	0,214650
1,058500	0,5	0,204550
1,066833	0,5	0,212900
1,075167	0,5	0,205000
1,083500	0,5	0,211850
1,091833	0,5	0,206300
1,100167	0,5	0,211750
1,108500	0,5	0,212650
1,116833	0,5	0,204700
1,125167	0,5	0,224950
1,133500	0,5	0,224850
1,141833	0,5	0,206550
1,150167	0,5	0,202700
1,158500	0,5	0,211150
1,166833	0,5	0,242300
1,175167	0,5	0,260800
1,183500	0,5	0,249050
1,191833	0,5	0,249050
1,200167	0,5	0,251100
1,208500	0,5	0,257650
1,216833	0,5	0,250700
1,225167	0,5	0,258250
1,233500	0,5	0,250750
1,241833	0,5	0,265600
1,250167	0,5	0,258300
1,258500	0,5	0,262250
1,266833	0,5	0,241000
1,275167	0,5	0,275850
1,283500	0,5	0,259800
1,291833	0,5	0,254300
1,300167	0,5	0,251500
1,308500	0,5	0,263850
1,316833	0,5	0,294150
1,325167	0,5	0,295950
1,333500	0,5	0,293150
1,341833	0,5	0,294050
1,350167	0,5	0,301900
1,358500	0,5	0,302050
1,366833	0,5	0,304650
1,375167	0,5	0,304000
1,383500	0,5	0,304000
1,391833	0,5	0,296750
1,400167	0,5	0,307050
1,408500	0,5	0,292950
1,416833	0,5	0,289550
1,425167	0,5	0,316100
1,433500	0,5	0,292600
1,441833	0,5	0,286000
1,450167	0,5	0,295850
1,458500	0,5	0,307400
1,466833	0,5	0,349000
1,475167	0,5	0,343450
1,483500	0,5	0,347150
1,491833	0,5	0,344000
1,500167	0,5	0,344200
1,508500	0,5	0,338500
1,516833	0,5	0,333650
1,525167	0,5	0,336450
1,533500	0,5	0,332100
1,541833	0,5	0,340550
1,550167	0,5	0,329250
1,558500	0,5	0,324350
1,566833	0,5	0,273750
1,575167	0,5	0,095550
1,583500	0,5	-0,419800
1,591833	0,5	-1,153300
1,600167	0,5	-1,667600
1,608500	0,5	-1,375900
1,616833	0,5	0,002750
1,625167	0,5	2,560450
1,633500	0,5	6,022200
1,641833	0,5	9,264050
1,650167	0,5	10,834100
1,658500	0,5	10,401800
1,666833	0,5	8,775100
1,675167	0,5	7,006800
1,683500	0,5	5,643700
1,691833	0,5	4,760050
1,700167	0,5	4,252500
1,708500	0,5	3,974850
1,716833	0,5	3,861450
1,725167	0,5	3,806750
1,733500	0,5	3,727800
1,741833	0,5	3,624650
1,750167	0,5	3,498550
1,758500	0,5	3,395000
1,766833	0,5	3,297200
1,775167	0,5	3,158850
1,783500	0,5	3,067250
1,791833	0,5	3,072900
1,800167	0,5	3,264850
1,808500	0,5	3,591800
1,816833	0,5	3,963150
1,825167	0,5	4,220600
1,833500	0,5	4,340950
1,841833	0,5	4,323100
1,850167	0,5	4,196900
1,858500	0,5	4,010150
1,866833	0,5	3,824800
1,875167	0,5	3,591400
1,883500	0,5	3,378250
1,891833	0,5	3,213800
1,900167	0,5	3,064950
1,908500	0,5	2,942000
1,916833	0,5	2,796100
1,925167	0,5	2,664950
1,933500	0,5	2,537850
1,941833	0,5	2,434400
1,950167	0,5	2,326600
1,958500	0,5	2,234550
1,966833	0,5	2,145900
1,975167	0,5	2,077450
1,983500	0,5	2,016450
1,991833	0,5	1,970250
2,000167	0,5	1,906250
2,008500	0,5	1,861150
2,016833	0,5	1,813250
2,025167	0,5	1,760950
2,033500	0,5	1,728950
2,041833	0,5	1,738350
2,050167	0,5	1,782250
2,058500	0,5	1,896250
2,066833	0,5	2,081950
2,075167	0,5	2,344350
2,083500	0,5	2,576250
2,091833	0,5	2,636800
2,100167	0,5	2,529100
2,108500	0,5	2,377200
2,116833	0,5	2,328100
2,125167	0,5	2,459900
2,133500	0,5	2,899850
2,141833	0,5	3,869700
2,150167	0,5	5,541450
2,158500	0,5	7,526300
2,166833	0,5	8,817450
2,175167	0,5	8,775200
2,183500	0,5	7,778000
2,191833	0,5	6,518150
2,200167	0,5	5,479850
2,208500	0,5	4,743650
2,216833	0,5	4,271600
2,225167	0,5	4,009600
2,233500	0,5	3,900900
2,241833	0,5	3,853150
2,250167	0,5	3,824250
2,258500	0,5	3,793800
2,266833	0,5	3,758650
2,275167	0,5	3,757450
2,283500	0,5	3,773700
2,291833	0,5	3,827900
2,300167	0,5	3,857450
2,308500	0,5	3,948350
2,316833	0,5	4,005150
2,325167	0,5	4,076550
2,333500	0,5	4,155350
2,341833	0,5	4,259300
2,350167	0,5	4,370250
2,358500	0,5	4,449700
2,366833	0,5	4,500500
2,375167	0,5	4,566850
2,383500	0,5	4,619450
2,391833	0,5	4,682850
2,400167	0,5	4,734200
2,408500	0,5	4,793350
2,416833	0,5	4,842300
2,425167	0,5	4,889300
2,433500	0,5	4,941850
2,441833	0,5	4,982000
2,450167	0,5	5,021800
2,458500	0,5	5,083050
2,466833	0,5	5,101850
2,475167	0,5	5,134900
2,483500	0,5	5,170600
2,491833	0,5	5,211200
2,500167	0,5	5,278850
2,508500	0,5	5,298250
2,516833	0,5	5,326150
2,525167	0,5	5,336950
2,533500	0,5	5,355750
2,541833	0,5	5,351450
2,550167	0,5	5,357300
2,558500	0,5	5,351950
2,566833	0,5	5,344550
2,575167	0,5	5,342750
2,583500	0,5	5,333350
2,591833	0,5	5,315650
2,600167	0,5	5,299850
2,608500	0,5	5,280150
2,616833	0,5	5,241000
2,625167	0,5	5,213650
2,633500	0,5	5,186000
2,641833	0,5	5,173900
2,650167	0,5	5,161700
2,658500	0,5	5,135100
2,666833	0,5	5,083400
2,675167	0,5	5,042150
2,683500	0,5	4,986350
2,691833	0,5	4,942150
2,700167	0,5	4,884650
2,708500	0,5	4,833400
2,716833	0,5	4,768050
2,725167	0,5	4,710900
2,733500	0,5	4,650700
2,741833	0,5	4,584450
2,750167	0,5	4,530450
2,758500	0,5	4,455700
2,766833	0,5	4,365800
2,775167	0,5	4,301400
2,783500	0,5	4,232150
2,791833	0,5	4,181300
2,800167	0,5	4,126050
2,808500	0,5	4,048800
2,816833	0,5	3,981350
2,825167	0,5	3,909300
2,833500	0,5	3,835900
2,841833	0,5	3,757700
2,850167	0,5	3,691250
2,858500	0,5	3,619450
2,866833	0,5	3,567800
2,875167	0,5	3,517500
2,883500	0,5	3,492900
2,891833	0,5	3,481550
2,900167	0,5	3,513550
2,908500	0,5	3,488500
2,916833	0,5	3,445000
2,925167	0,5	3,382100
2,933500	0,5	3,302700
2,941833	0,5	3,234050
2,950167	0,5	3,167600
2,958500	0,5	3,155850
2,966833	0,5	3,215650
2,975167	0,5	3,389200
2,983500	0,5	3,656850
2,991833	0,5	3,955850
3,000167	0,5	4,180450
3,008500	0,5	4,242550
3,016833	0,5	4,096800
3,025167	0,5	3,776950
3,033500	0,5	3,352350
3,041833	0,5	2,959800
3,050167	0,5	2,624100
3,058500	0,5	2,345650
3,066833	0,5	2,144700
3,075167	0,5	2,012050
3,083500	0,5	1,908350
3,091833	0,5	1,840800
3,100167	0,5	1,756600
3,108500	0,5	1,691750
3,116833	0,5	1,623500
3,125167	0,5	1,566650
3,133500	0,5	1,508850
3,141833	0,5	1,454450
3,150167	0,5	1,396300
3,158500	0,5	1,340150
3,166833	0,5	1,295200
3,175167	0,5	1,249850
3,183500	0,5	1,194200
3,191833	0,5	1,163200
3,200167	0,5	1,117650
3,208500	0,5	1,057950
3,216833	0,5	1,008500
3,225167	0,5	0,971450
3,233500	0,5	0,956200
3,241833	0,5	0,923650
3,250167	0,5	0,881400
3,258500	0,5	0,836100
3,266833	0,5	0,812150
3,275167	0,5	0,771300
3,283500	0,5	0,745550
3,291833	0,5	0,711300
3,300167	0,5	0,679300
3,308500	0,5	0,645500
3,316833	0,5	0,612800
3,325167	0,5	0,584750
3,333500	0,5	0,539350
3,341833	0,5	0,527650
3,350167	0,5	0,493450
3,358500	0,5	0,463300
3,366833	0,5	0,436900
3,375167	0,5	0,426600
3,383500	0,5	0,430450
3,391833	0,5	0,413050
3,400167	0,5	0,377100
3,408500	0,5	0,365450
3,416833	0,5	0,344750
3,425167	0,5	0,335500
3,433500	0,5	0,312500
3,441833	0,5	0,299750
3,450167	0,5	0,271800
3,458500	0,5	0,263150
3,466833	0,5	0,244500
3,475167	0,5	0,222400
3,483500	0,5	0,193100
3,491833	0,5	0,196700
3,500167	0,5	0,155850
3,508500	0,5	0,138050
3,516833	0,5	0,119650
3,525167	0,5	0,114950
3,533500	0,5	0,126150
3,541833	0,5	0,108500
3,550167	0,5	0,093600
3,558500	0,5	0,078400
3,566833	0,5	0,064750
3,575167	0,5	0,046050
3,583500	0,5	0,038000
3,591833	0,5	0,016650
3,600167	0,5	0,009250
3,608500	0,5	-0,005300
3,616833	0,5	-0,012800
3,625167	0,5	-0,033850
3,633500	0,5	-0,033250
3,641833	0,5	-0,036100
3,650167	0,5	-0,050250
3,658500	0,5	-0,053600
3,666833	0,5	-0,053600
3,675167	0,5	-0,038950
3,683500	0,5	-0,025200
3,691833	0,5	-0,028050
3,700167	0,5	-0,039300
3,708500	0,5	-0,043000
3,716833	0,5	-0,047500
3,725167	0,5	-0,049350
3,733500	0,5	-0,064700
3,741833	0,5	-0,067100
3,750167	0,5	-0,083850
3,758500	0,5	-0,083300
3,766833	0,5	-0,103100
3,775167	0,5	-0,113000
3,783500	0,5	-0,106350
3,791833	0,5	-0,109650
3,800167	0,5	-0,131350
3,808500	0,5	-0,130700
3,816833	0,5	-0,133000
3,825167	0,5	-0,108600
3,833500	0,5	-0,103750
3,841833	0,5	-0,104100
3,850167	0,5	-0,111750
3,858500	0,5	-0,107450
3,866833	0,5	-0,111050
3,875167	0,5	-0,113500
3,883500	0,5	-0,114800
3,891833	0,5	-0,123300
3,900167	0,5	-0,122300
3,908500	0,5	-0,129500
3,916833	0,5	-0,136950
3,925167	0,5	-0,149600
3,933500	0,5	-0,135950
3,941833	0,5	-0,158950
3,950167	0,5	-0,172550
3,958500	0,5	-0,175450
3,966833	0,5	-0,167500
3,975167	0,5	-0,149950
3,983500	0,5	-0,152950
3,991833	0,5	-0,163100
4,000167	0,5	-0,160350
4,008500	0,5	-0,166250
4,016833	0,5	-0,166850
4,025167	0,5	-0,166900
4,033500	0,5	-0,165600
4,041833	0,5	-0,170100
4,050167	0,5	-0,167400
4,058500	0,5	-0,164950
4,066833	0,5	-0,174250
4,075167	0,5	-0,168800
4,083500	0,5	-0,145550
4,091833	0,5	-0,148350
4,100167	0,5	-0,139200
4,108500	0,5	-0,110700
4,116833	0,5	-0,085700
4,125167	0,5	-0,049700
4,133500	0,5	-0,055600
4,141833	0,5	-0,043700
4,150167	0,5	-0,048500
4,158500	0,5	-0,049350
4,166833	0,5	-0,072850
4,175167	0,5	-0,085900
4,183500	0,5	-0,111250
4,191833	0,5	-0,126450
4,200167	0,5	-0,134000
4,208500	0,5	-0,146150
4,216833	0,5	-0,169850
4,225167	0,5	-0,162400
4,233500	0,5	-0,159300
4,241833	0,5	-0,171150
4,250167	0,5	-0,177700
4,258500	0,5	-0,173600
4,266833	0,5	-0,154300
4,275167	0,5	-0,145550
4,283500	0,5	-0,151350
4,291833	0,5	-0,161600
4,300167	0,5	-0,157900
4,308500	0,5	-0,163300
4,316833	0,5	-0,162900
4,325167	0,5	-0,170450
4,333500	0,5	-0,166700
4,341833	0,5	-0,168500
4,350167	0,5	-0,163650
4,358500	0,5	-0,172550
4,366833	0,5	-0,180200
4,375167	0,5	-0,172800
4,383500	0,5	-0,176700
4,391833	0,5	-0,182150
4,400167	0,5	-0,184850
4,408500	0,5	-0,174450
4,416833	0,5	-0,154850
4,425167	0,5	-0,146050
4,433500	0,5	-0,145400
4,441833	0,5	-0,145400
4,450167	0,5	-0,145000
4,458500	0,5	-0,140150
4,466833	0,5	-0,140400
4,475167	0,5	-0,136700
4,483500	0,5	-0,143400
4,491833	0,5	-0,142800
4,500167	0,5	-0,149900
4,508500	0,5	-0,147500
4,516833	0,5	-0,158800
4,525167	0,5	-0,141000
4,533500	0,5	-0,160150
4,541833	0,5	-0,164100
4,550167	0,5	-0,163500
4,558500	0,5	-0,149400
4,566833	0,5	-0,126850
4,575167	0,5	-0,120800
4,583500	0,5	-0,122900
4,591833	0,5	-0,115350
4,600167	0,5	-0,112650
4,608500	0,5	-0,111400
4,616833	0,5	-0,110400
4,625167	0,5	-0,105500
4,633500	0,5	-0,099250
4,641833	0,5	-0,094250
4,650167	0,5	-0,083200
4,658500	0,5	-0,089500
4,666833	0,5	-0,072000
4,675167	0,5	-0,051550
4,683500	0,5	-0,043900
4,691833	0,5	-0,023850
4,700167	0,5	0,004750
4,708500	0,5	0,044650
4,716833	0,5	0,103550
4,725167	0,5	0,137350
4,733500	0,5	0,184700
4,741833	0,5	0,224350
4,750167	0,5	0,280300
4,758500	0,5	0,331500
4,766833	0,5	0,389600
4,775167	0,5	0,444950
4,783500	0,5	0,491200
4,791833	0,5	0,533350
4,800167	0,5	0,548350
4,808500	0,5	0,551650
4,816833	0,5	0,558750
4,825167	0,5	0,520850
4,833500	0,5	0,469300
4,841833	0,5	0,417050
4,850167	0,5	0,361350
4,858500	0,5	0,332050
4,866833	0,5	0,284250
4,875167	0,5	0,247600
4,883500	0,5	0,207450
4,891833	0,5	0,187350
4,900167	0,5	0,166000
4,908500	0,5	0,162000
4,916833	0,5	0,154400
4,925167	0,5	0,160250
4,933500	0,5	0,164050
4,941833	0,5	0,176050
4,950167	0,5	0,200900
4,958500	0,5	0,227150
4,966833	0,5	0,282250
4,975167	0,5	0,316650
4,983500	0,5	0,366700
4,991833	0,5	0,441950
5,000167	0,5	0,530800
5,008500	0,5	0,647100
5,016833	0,5	0,741250
5,025167	0,5	0,818400
5,033500	0,5	0,890750
5,041833	0,5	0,935100
5,050167	0,5	0,964950
5,058500	0,5	0,958600
5,066833	0,5	0,930100
5,075167	0,5	0,867500
5,083500	0,5	0,797600
5,091833	0,5	0,710500
5,100167	0,5	0,611850
5,108500	0,5	0,516150
5,116833	0,5	0,450300
5,125167	0,5	0,355100
5,133500	0,5	0,291450
5,141833	0,5	0,244000
5,150167	0,5	0,216900
5,158500	0,5	0,211600
5,166833	0,5	0,173850
5,175167	0,5	0,163000
5,183500	0,5	0,153750
5,191833	0,5	0,153200
5,200167	0,5	0,151250
5,208500	0,5	0,150100
5,216833	0,5	0,141600
5,225167	0,5	0,140500
5,233500	0,5	0,136650
5,241833	0,5	0,142800
5,250167	0,5	0,130300
5,258500	0,5	0,141850
5,266833	0,5	0,146800
5,275167	0,5	0,138300
5,283500	0,5	0,133650
5,291833	0,5	0,146450
5,300167	0,5	0,162850
5,308500	0,5	0,178700
5,316833	0,5	0,174300
5,325167	0,5	0,174300
5,333500	0,5	0,174300
5,341833	0,5	0,176250
5,350167	0,5	0,173250
5,358500	0,5	0,172100
5,366833	0,5	0,176600
5,375167	0,5	0,174000
5,383500	0,5	0,181050
5,391833	0,5	0,182200
5,400167	0,5	0,183350
5,408500	0,5	0,193850
5,416833	0,5	0,192550
5,425167	0,5	0,185000
5,433500	0,5	0,190800
5,441833	0,5	0,199200
5,450167	0,5	0,226100
5,458500	0,5	0,237950
5,466833	0,5	0,237650
5,475167	0,5	0,235000
5,483500	0,5	0,250700
5,491833	0,5	0,253750
5,500167	0,5	0,258400
5,508500	0,5	0,259500
5,516833	0,5	0,262550
5,525167	0,5	0,270450
5,533500	0,5	0,269650
5,541833	0,5	0,284250
5,550167	0,5	0,280700
5,558500	0,5	0,301250
5,566833	0,5	0,294400
5,575167	0,5	0,297050
5,583500	0,5	0,307850
5,591833	0,5	0,326300
5,600167	0,5	0,351150
5,608500	0,5	0,368450
5,616833	0,5	0,374600
5,625167	0,5	0,391550
5,633500	0,5	0,403850
5,641833	0,5	0,426700
5,650167	0,5	0,445800
5,658500	0,5	0,482250
5,666833	0,5	0,518400
5,675167	0,5	0,575650
5,683500	0,5	0,640350
5,691833	0,5	0,709400
5,700167	0,5	0,795800
5,708500	0,5	0,886950
5,716833	0,5	0,960400
5,725167	0,5	1,037550
5,733500	0,5	1,102300
5,741833	0,5	1,159250
5,750167	0,5	1,192550
5,758500	0,5	1,178850
5,766833	0,5	1,149450
5,775167	0,5	1,087850
5,783500	0,5	1,022050
5,791833	0,5	0,938300
5,800167	0,5	0,864350
5,808500	0,5	0,782250
5,816833	0,5	0,718000
5,825167	0,5	0,658900
5,833500	0,5	0,603000
5,841833	0,5	0,553950
5,850167	0,5	0,539650
5,858500	0,5	0,514900
5,866833	0,5	0,490250
5,875167	0,5	0,478300
5,883500	0,5	0,473050
5,891833	0,5	0,485650
5,900167	0,5	0,482500
5,908500	0,5	0,484650
5,916833	0,5	0,478450
5,925167	0,5	0,484300
5,933500	0,5	0,478700
5,941833	0,5	0,480100
5,950167	0,5	0,473750
5,958500	0,5	0,478850
5,966833	0,5	0,476300
5,975167	0,5	0,483700
5,983500	0,5	0,478900
5,991833	0,5	0,479000
6,000167	0,5	0,496650
6,008500	0,5	0,491300
6,016833	0,5	0,484350
6,025167	0,5	0,486050
6,033500	0,5	0,493050
6,041833	0,5	0,519100
6,050167	0,5	0,518350
6,058500	0,5	0,518900
6,066833	0,5	0,520650
6,075167	0,5	0,523450
6,083500	0,5	0,526100
6,091833	0,5	0,528800
6,100167	0,5	0,529500
6,108500	0,5	0,528450
6,116833	0,5	0,536000
6,125167	0,5	0,537850
6,133500	0,5	0,544800
6,141833	0,5	0,539650
6,150167	0,5	0,556050
6,158500	0,5	0,543850
6,166833	0,5	0,547750
6,175167	0,5	0,550550
6,183500	0,5	0,564250
6,191833	0,5	0,580000
6,200167	0,5	0,576300
6,208500	0,5	0,579600
6,216833	0,5	0,583850
6,225167	0,5	0,589700
6,233500	0,5	0,591950
6,241833	0,5	0,594000
6,250167	0,5	0,596900
6,258500	0,5	0,599400
6,266833	0,5	0,595650
6,275167	0,5	0,599800
6,283500	0,5	0,595600
6,291833	0,5	0,598550
6,300167	0,5	0,605650
6,308500	0,5	0,596850
6,316833	0,5	0,594250
6,325167	0,5	0,602050
6,333500	0,5	0,612650
6,341833	0,5	0,636250
6,350167	0,5	0,629800
6,358500	0,5	0,636200
6,366833	0,5	0,633700
6,375167	0,5	0,640950
6,383500	0,5	0,641250
6,391833	0,5	0,640300
6,400167	0,5	0,644250
6,408500	0,5	0,644050
6,416833	0,5	0,651700
6,425167	0,5	0,646950
6,433500	0,5	0,644400
6,441833	0,5	0,656350
6,450167	0,5	0,656200
6,458500	0,5	0,649900
6,466833	0,5	0,655350
6,475167	0,5	0,659950
6,483500	0,5	0,680600
6,491833	0,5	0,693850
6,500167	0,5	0,696400
6,508500	0,5	0,692000
6,516833	0,5	0,698050
6,525167	0,5	0,698050
6,533500	0,5	0,706700
6,541833	0,5	0,703300
6,550167	0,5	0,706950
6,558500	0,5	0,707300
6,566833	0,5	0,707400
6,575167	0,5	0,706000
6,583500	0,5	0,710350
6,591833	0,5	0,718450
6,600167	0,5	0,713700
6,608500	0,5	0,710900
6,616833	0,5	0,713450
6,625167	0,5	0,726900
6,633500	0,5	0,742100
6,641833	0,5	0,751900
6,650167	0,5	0,749300
6,658500	0,5	0,753400
6,666833	0,5	0,751200
6,675167	0,5	0,752850
6,683500	0,5	0,752250
6,691833	0,5	0,753100
6,700167	0,5	0,751100
6,708500	0,5	0,756100
6,716833	0,5	0,754450
6,725167	0,5	0,756150
6,733500	0,5	0,758850
6,741833	0,5	0,761400
6,750167	0,5	0,754200
6,758500	0,5	0,751150
6,766833	0,5	0,751000
6,775167	0,5	0,761700
6,783500	0,5	0,770950
6,791833	0,5	0,770600
6,800167	0,5	0,772600
6,808500	0,5	0,768650
6,816833	0,5	0,767050
6,825167	0,5	0,768050
6,833500	0,5	0,768250
6,841833	0,5	0,760800
6,850167	0,5	0,765450
6,858500	0,5	0,759150
6,866833	0,5	0,757150
6,875167	0,5	0,746350
6,883500	0,5	0,754800
6,891833	0,5	0,750800
6,900167	0,5	0,744650
6,908500	0,5	0,740200
6,916833	0,5	0,740700
6,925167	0,5	0,751600
6,933500	0,5	0,754700
6,941833	0,5	0,749200
6,950167	0,5	0,751800
6,958500	0,5	0,747600
6,966833	0,5	0,748050
6,975167	0,5	0,747000
6,983500	0,5	0,743450
6,991833	0,5	0,741450
7,000167	0,5	0,737850
7,008500	0,5	0,739900
7,016833	0,5	0,735650
7,025167	0,5	0,731050
7,033500	0,5	0,741100
7,041833	0,5	0,729600
7,050167	0,5	0,723000
7,058500	0,5	0,723000
7,066833	0,5	0,718850
7,075167	0,5	0,734950
7,083500	0,5	0,731200
7,091833	0,5	0,737500
7,100167	0,5	0,735650
7,108500	0,5	0,738800
7,116833	0,5	0,735700
7,125167	0,5	0,735500
7,133500	0,5	0,734750
7,141833	0,5	0,731350
7,150167	0,5	0,727150
7,158500	0,5	0,728900
7,166833	0,5	0,726150
7,175167	0,5	0,719750
7,183500	0,5	0,729800
7,191833	0,5	0,721150
7,200167	0,5	0,722350
7,208500	0,5	0,726950
7,216833	0,5	0,743900
7,225167	0,5	0,761950
7,233500	0,5	0,769900
7,241833	0,5	0,775300
7,250167	0,5	0,785600
7,258500	0,5	0,785350
7,266833	0,5	0,785450
7,275167	0,5	0,776000
7,283500	0,5	0,758700
7,291833	0,5	0,746450
7,300167	0,5	0,732950
7,308500	0,5	0,722750
7,316833	0,5	0,711950
7,325167	0,5	0,709200
7,333500	0,5	0,717750
7,341833	0,5	0,713250
7,350167	0,5	0,715650
7,358500	0,5	0,716550
7,366833	0,5	0,715850
7,375167	0,5	0,717900
7,383500	0,5	0,701650
7,391833	0,5	0,687400
7,400167	0,5	0,672450
7,408500	0,5	0,661350
7,416833	0,5	0,650700
7,425167	0,5	0,646500
7,433500	0,5	0,639700
7,441833	0,5	0,637500
7,450167	0,5	0,637550
7,458500	0,5	0,637250
7,466833	0,5	0,635850
7,475167	0,5	0,643400
7,483500	0,5	0,643500
7,491833	0,5	0,641000
7,500167	0,5	0,643350
7,508500	0,5	0,645100
7,516833	0,5	0,653150
7,525167	0,5	0,652450
7,533500	0,5	0,650450
7,541833	0,5	0,639500
7,550167	0,5	0,635300
7,558500	0,5	0,623500
7,566833	0,5	0,617150
7,575167	0,5	0,608200
7,583500	0,5	0,599750
7,591833	0,5	0,593600
7,600167	0,5	0,590550
7,608500	0,5	0,584700
7,616833	0,5	0,585600
7,625167	0,5	0,586150
7,633500	0,5	0,578450
7,641833	0,5	0,570350
7,650167	0,5	0,561650
7,658500	0,5	0,560400
7,666833	0,5	0,562150
7,675167	0,5	0,567900
7,683500	0,5	0,575650
7,691833	0,5	0,590850
7,700167	0,5	0,629050
7,708500	0,5	0,688400
7,716833	0,5	0,767800
7,725167	0,5	0,866850
7,733500	0,5	0,978250
7,741833	0,5	1,098050
7,750167	0,5	1,218500
7,758500	0,5	1,360550
7,766833	0,5	1,547950
7,775167	0,5	1,845600
7,783500	0,5	2,373600
7,791833	0,5	3,350750
7,800167	0,5	5,013550
7,808500	0,5	7,481800
7,816833	0,5	10,470700
7,825167	0,5	13,219100
7,833500	0,5	14,797600
7,841833	0,5	14,643250
7,850167	0,5	12,878950
7,858500	0,5	10,206150
7,866833	0,5	7,435450
7,875167	0,5	5,122300
7,883500	0,5	3,462150
7,891833	0,5	2,383800
7,900167	0,5	1,730250
7,908500	0,5	1,341250
7,916833	0,5	1,115750
7,925167	0,5	0,977900
7,933500	0,5	0,885650
7,941833	0,5	0,817100
7,950167	0,5	0,773000
7,958500	0,5	0,741750
7,966833	0,5	0,717250
7,975167	0,5	0,694350
7,983500	0,5	0,679350
7,991833	0,5	0,667050
8,000167	0,5	0,656100
8,008500	0,5	0,650700
8,016833	0,5	0,644500
8,025167	0,5	0,640200
8,033500	0,5	0,631800
8,041833	0,5	0,629450
8,050167	0,5	0,620950
8,058500	0,5	0,608000
8,066833	0,5	0,604450
8,075167	0,5	0,593400
8,083500	0,5	0,583400
8,091833	0,5	0,573500
8,100167	0,5	0,566850
8,108500	0,5	0,572150
8,116833	0,5	0,566400
8,125167	0,5	0,565750
8,133500	0,5	0,560350
8,141833	0,5	0,560750
8,150167	0,5	0,556300
8,158500	0,5	0,558100
8,166833	0,5	0,557950
8,175167	0,5	0,557300
8,183500	0,5	0,556200
8,191833	0,5	0,557250
8,200167	0,5	0,557650
8,208500	0,5	0,554250
8,216833	0,5	0,556350
8,225167	0,5	0,553200
8,233500	0,5	0,547500
8,241833	0,5	0,546500
8,250167	0,5	0,547150
8,258500	0,5	0,552300
8,266833	0,5	0,550550
8,275167	0,5	0,549700
8,283500	0,5	0,544000
8,291833	0,5	0,538000
8,300167	0,5	0,533600
8,308500	0,5	0,531300
8,316833	0,5	0,526400
8,325167	0,5	0,521700
8,333500	0,5	0,517550
8,341833	0,5	0,511700
8,350167	0,5	0,508500
8,358500	0,5	0,506100
8,366833	0,5	0,509250
8,375167	0,5	0,503000
8,383500	0,5	0,498900
8,391833	0,5	0,498100
8,400167	0,5	0,500500
8,408500	0,5	0,508400
8,416833	0,5	0,508400
8,425167	0,5	0,511100
8,433500	0,5	0,518750
8,441833	0,5	0,535150
8,450167	0,5	0,568200
8,458500	0,5	0,634750
8,466833	0,5	0,748450
8,475167	0,5	0,908700
8,483500	0,5	1,102700
8,491833	0,5	1,293350
8,500167	0,5	1,462400
8,508500	0,5	1,620150
8,516833	0,5	1,792300
8,525167	0,5	2,043600
8,533500	0,5	2,507550
8,541833	0,5	3,447350
8,550167	0,5	5,292700
8,558500	0,5	8,431550
8,566833	0,5	12,739200
8,575167	0,5	17,151600
8,583500	0,5	19,985900
8,591833	0,5	20,043250
8,600167	0,5	17,430200
8,608500	0,5	13,358150
8,616833	0,5	9,282350
8,625167	0,5	6,082550
8,633500	0,5	3,948750
8,641833	0,5	2,670300
8,650167	0,5	1,946050
8,658500	0,5	1,545150
8,666833	0,5	1,312800
8,675167	0,5	1,169750
8,683500	0,5	1,080200
8,691833	0,5	1,025500
8,700167	0,5	0,995250
8,708500	0,5	0,981750
8,716833	0,5	0,980400
8,725167	0,5	0,993700
8,733500	0,5	1,016500
8,741833	0,5	1,027900
8,750167	0,5	1,018100
8,758500	0,5	0,984100
8,766833	0,5	0,924350
8,775167	0,5	0,872100
8,783500	0,5	0,829550
8,791833	0,5	0,797250
8,800167	0,5	0,774250
8,808500	0,5	0,762700
8,816833	0,5	0,748700
8,825167	0,5	0,738350
8,833500	0,5	0,736000
8,841833	0,5	0,736500
8,850167	0,5	0,740300
8,858500	0,5	0,743900
8,866833	0,5	0,749500
8,875167	0,5	0,749950
8,883500	0,5	0,752650
8,891833	0,5	0,754250
8,900167	0,5	0,756550
8,908500	0,5	0,755950
8,916833	0,5	0,758250
8,925167	0,5	0,763150
8,933500	0,5	0,766750
8,941833	0,5	0,768650
8,950167	0,5	0,771350
8,958500	0,5	0,774950
8,966833	0,5	0,776400
8,975167	0,5	0,774250
8,983500	0,5	0,777450
8,991833	0,5	0,785150
9,000167	0,5	0,794400
9,008500	0,5	0,804800
9,016833	0,5	0,813700
9,025167	0,5	0,824000
9,033500	0,5	0,835200
9,041833	0,5	0,849800
9,050167	0,5	0,863800
9,058500	0,5	0,878600
9,066833	0,5	0,892700
9,075167	0,5	0,909700
9,083500	0,5	0,927650
9,091833	0,5	0,943500
9,100167	0,5	0,962250
9,108500	0,5	0,977950
9,116833	0,5	0,989200
9,125167	0,5	1,000950
9,133500	0,5	1,013800
9,141833	0,5	1,030050
9,150167	0,5	1,046750
9,158500	0,5	1,062800
9,166833	0,5	1,062900
9,175167	0,5	1,089800
9,183500	0,5	1,102800
9,191833	0,5	1,115350
9,200167	0,5	1,126700
9,208500	0,5	1,135750
9,216833	0,5	1,146950
9,225167	0,5	1,160950
9,233500	0,5	1,171650
9,241833	0,5	1,185000
9,250167	0,5	1,197550
9,258500	0,5	1,204650
9,266833	0,5	1,212150
9,275167	0,5	1,217500
9,283500	0,5	1,220400
9,291833	0,5	1,225550
9,300167	0,5	1,229200
9,308500	0,5	1,233200
9,316833	0,5	1,242850
9,325167	0,5	1,248500
9,333500	0,5	1,253650
9,341833	0,5	1,259350
9,350167	0,5	1,264200
9,358500	0,5	1,272950
9,366833	0,5	1,276250
9,375167	0,5	1,281200
9,383500	0,5	1,287550
9,391833	0,5	1,291650
9,400167	0,5	1,297500
9,408500	0,5	1,301950
9,416833	0,5	1,305850
9,425167	0,5	1,310800
9,433500	0,5	1,316100
9,441833	0,5	1,323450
9,450167	0,5	1,331150
9,458500	0,5	1,336950
9,466833	0,5	1,339950
9,475167	0,5	1,345050
9,483500	0,5	1,352850
9,491833	0,5	1,356850
9,500167	0,5	1,360950
9,508500	0,5	1,364400
9,516833	0,5	1,369650
9,525167	0,5	1,373950
9,533500	0,5	1,377050
9,541833	0,5	1,380350
9,550167	0,5	1,387200
9,558500	0,5	1,389000
9,566833	0,5	1,391400
9,575167	0,5	1,394200
9,583500	0,5	1,401750
9,591833	0,5	1,405600
9,600167	0,5	1,410950
9,608500	0,5	1,417950
9,616833	0,5	1,425650
9,625167	0,5	1,425400
9,633500	0,5	1,431750
9,641833	0,5	1,434500
9,650167	0,5	1,438050
9,658500	0,5	1,443500
9,666833	0,5	1,445800
9,675167	0,5	1,449350
9,683500	0,5	1,452300
9,691833	0,5	1,455850
9,700167	0,5	1,465300
9,708500	0,5	1,468650
9,716833	0,5	1,473600
9,725167	0,5	1,481400
9,733500	0,5	1,489250
9,741833	0,5	1,499100
9,750167	0,5	1,501550
9,758500	0,5	1,507800
9,766833	0,5	1,509250
9,775167	0,5	1,510000
9,783500	0,5	1,510450
9,791833	0,5	1,514050
9,800167	0,5	1,512800
9,808500	0,5	1,509600
9,816833	0,5	1,511650
9,825167	0,5	1,512050
9,833500	0,5	1,514400
9,841833	0,5	1,520100
9,850167	0,5	1,521550
9,858500	0,5	1,523550
9,866833	0,5	1,526450
9,875167	0,5	1,523900
9,883500	0,5	1,529300
9,891833	0,5	1,530500
9,900167	0,5	1,537100
9,908500	0,5	1,539200
9,916833	0,5	1,545900
9,925167	0,5	1,544200
9,933500	0,5	1,546700
9,941833	0,5	1,547550
9,950167	0,5	1,548600
9,958500	0,5	1,548500
9,966833	0,5	1,549950
9,975167	0,5	1,551350
9,983500	0,5	1,551500
9,991833	0,5	1,554300
10,000167	0,5	1,554200
10,008500	0,5	1,552500
10,016833	0,5	1,553550
10,025167	0,5	1,551500
10,033500	0,5	1,552550
10,041833	0,5	1,554350
10,050167	0,5	1,557050
10,058500	0,5	1,554950
10,066833	0,5	1,559200
10,075167	0,5	1,553800
10,083500	0,5	1,556950
10,091833	0,5	1,554350
10,100167	0,5	1,555050
10,108500	0,5	1,551750
10,116833	0,5	1,550300
10,125167	0,5	1,552050
10,133500	0,5	1,542550
10,141833	0,5	1,546250
10,150167	0,5	1,541050
10,158500	0,5	1,541550
10,166833	0,5	1,536800
10,175167	0,5	1,532500
10,183500	0,5	1,532100
10,191833	0,5	1,532450
10,200167	0,5	1,528700
10,208500	0,5	1,528550
10,216833	0,5	1,526200
10,225167	0,5	1,520050
10,233500	0,5	1,519000
10,241833	0,5	1,511450
10,250167	0,5	1,512300
10,258500	0,5	1,505300
10,266833	0,5	1,503650
10,275167	0,5	1,501000
10,283500	0,5	1,496900
10,291833	0,5	1,498950
10,300167	0,5	1,493350
10,308500	0,5	1,492000
10,316833	0,5	1,483750
10,325167	0,5	1,478450
10,333500	0,5	1,476050
10,341833	0,5	1,469300
10,350167	0,5	1,466150
10,358500	0,5	1,457450
10,366833	0,5	1,452650
10,375167	0,5	1,445400
10,383500	0,5	1,438450
10,391833	0,5	1,431450
10,400167	0,5	1,422100
10,408500	0,5	1,413600
10,416833	0,5	1,408650
10,425167	0,5	1,401050
10,433500	0,5	1,392000
10,441833	0,5	1,388500
10,450167	0,5	1,379950
10,458500	0,5	1,370250
10,466833	0,5	1,361750
10,475167	0,5	1,355300
10,483500	0,5	1,354050
10,491833	0,5	1,349900
10,500167	0,5	1,340850
10,508500	0,5	1,337200
10,516833	0,5	1,334350
10,525167	0,5	1,332850
10,533500	0,5	1,327300
10,541833	0,5	1,319350
10,550167	0,5	1,315550
10,558500	0,5	1,310200
10,566833	0,5	1,306500
10,575167	0,5	1,301350
10,583500	0,5	1,303350
10,591833	0,5	1,298700
10,600167	0,5	1,298600
10,608500	0,5	1,291400
10,616833	0,5	1,286200
10,625167	0,5	1,285100
10,633500	0,5	1,287650
10,641833	0,5	1,284550
10,650167	0,5	1,287300
10,658500	0,5	1,281550
10,666833	0,5	1,283700
10,675167	0,5	1,280650
10,683500	0,5	1,279250
10,691833	0,5	1,275550
10,700167	0,5	1,272900
10,708500	0,5	1,271400
10,716833	0,5	1,265750
10,725167	0,5	1,261400
10,733500	0,5	1,266050
10,741833	0,5	1,259800
10,750167	0,5	1,259700
10,758500	0,5	1,253300
10,766833	0,5	1,251550
10,775167	0,5	1,254500
10,783500	0,5	1,252800
10,791833	0,5	1,253400
10,800167	0,5	1,249550
10,808500	0,5	1,251900
10,816833	0,5	1,249350
10,825167	0,5	1,248650
10,833500	0,5	1,246300
10,841833	0,5	1,243300
10,850167	0,5	1,238750
10,858500	0,5	1,239050
10,866833	0,5	1,232100
10,875167	0,5	1,230500
10,883500	0,5	1,230200
10,891833	0,5	1,223800
10,900167	0,5	1,219000
10,908500	0,5	1,207800
10,916833	0,5	1,205600
10,925167	0,5	1,201450
10,933500	0,5	1,198450
10,941833	0,5	1,193300
10,950167	0,5	1,191500
10,958500	0,5	1,184650
10,966833	0,5	1,181950
10,975167	0,5	1,174950
10,983500	0,5	1,172550
10,991833	0,5	1,166950
11,000167	0,5	1,164800
11,008500	0,5	1,160900
11,016833	0,5	1,156150
11,025167	0,5	1,160800
11,033500	0,5	1,162100
11,041833	0,5	1,159450
11,050167	0,5	1,156450
11,058500	0,5	1,149000
11,066833	0,5	1,153650
11,075167	0,5	1,158800
11,083500	0,5	1,158450
11,091833	0,5	1,156300
11,100167	0,5	1,157500
11,108500	0,5	1,154100
11,116833	0,5	1,151150
11,125167	0,5	1,150350
11,133500	0,5	1,143750
11,141833	0,5	1,143450
11,150167	0,5	1,139850
11,158500	0,5	1,138800
11,166833	0,5	1,129100
11,175167	0,5	1,134150
11,183500	0,5	1,130650
11,191833	0,5	1,128400
11,200167	0,5	1,120100
11,208500	0,5	1,113900
11,216833	0,5	1,115850
11,225167	0,5	1,116000
11,233500	0,5	1,114400
11,241833	0,5	1,112300
11,250167	0,5	1,111600
11,258500	0,5	1,110400
11,266833	0,5	1,106750
11,275167	0,5	1,106150
11,283500	0,5	1,100150
11,291833	0,5	1,101650
11,300167	0,5	1,102600
11,308500	0,5	1,099050
11,316833	0,5	1,094950
11,325167	0,5	1,100700
11,333500	0,5	1,093050
11,341833	0,5	1,088050
11,350167	0,5	1,084750
11,358500	0,5	1,080900
11,366833	0,5	1,082000
11,375167	0,5	1,080900
11,383500	0,5	1,080600
11,391833	0,5	1,079650
11,400167	0,5	1,077650
11,408500	0,5	1,076350
11,416833	0,5	1,074000
11,425167	0,5	1,077400
11,433500	0,5	1,076650
11,441833	0,5	1,079250
11,450167	0,5	1,076600
11,458500	0,5	1,072950
11,466833	0,5	1,071250
11,475167	0,5	1,073800
11,483500	0,5	1,071400
11,491833	0,5	1,072250
11,500167	0,5	1,065150
11,508500	0,5	1,064800
11,516833	0,5	1,066800
11,525167	0,5	1,073550
11,533500	0,5	1,075800
11,541833	0,5	1,083150
11,550167	0,5	1,087450
11,558500	0,5	1,095050
11,566833	0,5	1,102200
11,575167	0,5	1,107950
11,583500	0,5	1,111650
11,591833	0,5	1,119150
11,600167	0,5	1,119900
11,608500	0,5	1,118850
11,616833	0,5	1,118450
11,625167	0,5	1,121800
11,633500	0,5	1,115200
11,641833	0,5	1,107700
11,650167	0,5	1,102200
11,658500	0,5	1,100450
11,666833	0,5	1,102600
11,675167	0,5	1,101600
11,683500	0,5	1,107400
11,691833	0,5	1,110950
11,700167	0,5	1,113150
11,708500	0,5	1,115650
11,716833	0,5	1,119750
11,725167	0,5	1,123350
11,733500	0,5	1,128900
11,741833	0,5	1,135100
11,750167	0,5	1,139800
11,758500	0,5	1,147950
11,766833	0,5	1,157900
11,775167	0,5	1,160750
11,783500	0,5	1,164250
11,791833	0,5	1,160950
11,800167	0,5	1,160650
11,808500	0,5	1,168000
11,816833	0,5	1,167300
11,825167	0,5	1,170400
11,833500	0,5	1,170400
11,841833	0,5	1,172400
11,850167	0,5	1,172300
11,858500	0,5	1,177650
11,866833	0,5	1,176450
11,875167	0,5	1,180850
11,883500	0,5	1,178350
11,891833	0,5	1,184800
11,900167	0,5	1,178700
11,908500	0,5	1,186300
11,916833	0,5	1,193600
11,925167	0,5	1,195300
11,933500	0,5	1,192250
11,941833	0,5	1,187900
11,950167	0,5	1,190700
11,958500	0,5	1,191750
11,966833	0,5	1,197250
11,975167	0,5	1,192150
11,983500	0,5	1,195950
11,991833	0,5	1,197400
12,000167	0,5	1,200750
12,008500	0,5	1,204300
12,016833	0,5	1,203250
12,025167	0,5	1,203150
12,033500	0,5	1,211500
12,041833	0,5	1,210800
12,050167	0,5	1,204200
12,058500	0,5	1,206150
12,066833	0,5	1,207200
12,075167	0,5	1,200100
12,083500	0,5	1,193450
12,091833	0,5	1,186750
12,100167	0,5	1,189200
12,108500	0,5	1,191250
12,116833	0,5	1,190800
12,125167	0,5	1,188000
12,133500	0,5	1,190700
12,141833	0,5	1,199450
12,150167	0,5	1,196850
12,158500	0,5	1,204800
12,166833	0,5	1,203200
12,175167	0,5	1,207100
12,183500	0,5	1,212800
12,191833	0,5	1,208600
12,200167	0,5	1,203700
12,208500	0,5	1,210300
12,216833	0,5	1,200700
12,225167	0,5	1,196650
12,233500	0,5	1,186650
12,241833	0,5	1,179050
12,250167	0,5	1,177350
12,258500	0,5	1,177350
12,266833	0,5	1,169950
12,275167	0,5	1,168800
12,283500	0,5	1,168450
12,291833	0,5	1,168150
12,300167	0,5	1,167000
12,308500	0,5	1,169950
12,316833	0,5	1,167350
12,325167	0,5	1,165050
12,333500	0,5	1,165950
12,341833	0,5	1,162000
12,350167	0,5	1,162550
12,358500	0,5	1,163500
12,366833	0,5	1,160550
12,375167	0,5	1,156350
12,383500	0,5	1,150050
12,391833	0,5	1,144300
12,400167	0,5	1,152950
12,408500	0,5	1,151600
12,416833	0,5	1,154150
12,425167	0,5	1,156300
12,433500	0,5	1,155000
12,441833	0,5	1,154650
12,450167	0,5	1,161000
12,458500	0,5	1,158750
12,466833	0,5	1,160050
12,475167	0,5	1,168550
12,483500	0,5	1,169100
12,491833	0,5	1,164200
12,500167	0,5	1,162700
12,508500	0,5	1,170550
12,516833	0,5	1,165950
12,525167	0,5	1,164900
12,533500	0,5	1,160150
12,541833	0,5	1,161000
12,550167	0,5	1,162850
12,558500	0,5	1,167000
12,566833	0,5	1,165150
12,575167	0,5	1,169200
12,583500	0,5	1,166200
12,591833	0,5	1,167550
12,600167	0,5	1,167700
12,608500	0,5	1,162550
12,616833	0,5	1,157250
12,625167	0,5	1,160450
12,633500	0,5	1,150950
12,641833	0,5	1,142150
12,650167	0,5	1,139550
12,658500	0,5	1,133100
12,666833	0,5	1,126300
12,675167	0,5	1,116400
12,683500	0,5	1,107400
12,691833	0,5	1,102100
12,700167	0,5	1,100100
12,708500	0,5	1,096950
12,716833	0,5	1,093650
12,725167	0,5	1,089000
12,733500	0,5	1,085750
12,741833	0,5	1,081300
12,750167	0,5	1,078250
12,758500	0,5	1,071600
12,766833	0,5	1,073900
12,775167	0,5	1,071750
12,783500	0,5	1,062050
12,791833	0,5	1,058950
12,800167	0,5	1,061500
12,808500	0,5	1,057850
12,816833	0,5	1,052850
12,825167	0,5	1,039850
12,833500	0,5	1,041050
12,841833	0,5	1,038350
12,850167	0,5	1,037650
12,858500	0,5	1,034650
12,866833	0,5	1,033200
12,875167	0,5	1,034900
12,883500	0,5	1,030500
12,891833	0,5	1,031200
12,900167	0,5	1,031100
12,908500	0,5	1,030050
12,916833	0,5	1,023450
12,925167	0,5	1,028350
12,933500	0,5	1,014300
12,941833	0,5	1,020850
12,950167	0,5	1,019500
12,958500	0,5	1,018750
12,966833	0,5	1,012700
12,975167	0,5	1,000350
12,983500	0,5	1,000100
12,991833	0,5	1,004350
13,000167	0,5	1,000750
13,008500	0,5	0,999350
13,016833	0,5	0,994750
13,025167	0,5	0,993700
13,033500	0,5	0,993150
13,041833	0,5	0,988700
13,050167	0,5	0,982650
13,058500	0,5	0,979300
13,066833	0,5	0,983900
13,075167	0,5	0,980350
13,083500	0,5	0,969450
13,091833	0,5	0,971600
13,100167	0,5	0,970200
13,108500	0,5	0,963550
13,116833	0,5	0,955100
13,125167	0,5	0,940300
13,133500	0,5	0,945500
13,141833	0,5	0,941050
13,150167	0,5	0,940400
13,158500	0,5	0,934700
13,166833	0,5	0,936150
13,175167	0,5	0,932200
13,183500	0,5	0,930250
13,191833	0,5	0,929950
13,200167	0,5	0,926700
13,208500	0,5	0,925000
13,216833	0,5	0,925100
13,225167	0,5	0,920850
13,233500	0,5	0,913400
13,241833	0,5	0,922800
13,250167	0,5	0,917650
13,258500	0,5	0,914200
13,266833	0,5	0,906650
13,275167	0,5	0,898900
13,283500	0,5	0,901700
13,291833	0,5	0,906450
13,300167	0,5	0,901450
13,308500	0,5	0,905600
13,316833	0,5	0,899600
13,325167	0,5	0,904000
13,333500	0,5	0,903750
13,341833	0,5	0,906600
13,350167	0,5	0,901000
13,358500	0,5	0,901950
13,366833	0,5	0,900850
13,375167	0,5	0,900350
13,383500	0,5	0,899200
13,391833	0,5	0,904900
13,400167	0,5	0,901450
13,408500	0,5	0,897000
13,416833	0,5	0,888150
13,425167	0,5	0,883600
13,433500	0,5	0,883200
13,441833	0,5	0,884300
13,450167	0,5	0,887950
13,458500	0,5	0,884900
13,466833	0,5	0,884350
13,475167	0,5	0,881000
13,483500	0,5	0,886400
13,491833	0,5	0,880350
13,500167	0,5	0,880800
13,508500	0,5	0,881700
13,516833	0,5	0,882450
13,525167	0,5	0,870550
13,533500	0,5	0,876150
13,541833	0,5	0,876450
13,550167	0,5	0,871650
13,558500	0,5	0,862250
13,566833	0,5	0,854450
13,575167	0,5	0,855700
13,583500	0,5	0,852500
13,591833	0,5	0,855500
13,600167	0,5	0,848850
13,608500	0,5	0,851250
13,616833	0,5	0,845650
13,625167	0,5	0,847650
13,633500	0,5	0,847950
13,641833	0,5	0,844650
13,650167	0,5	0,840600
13,658500	0,5	0,844700
13,666833	0,5	0,833300
13,675167	0,5	0,833450
13,683500	0,5	0,833900
13,691833	0,5	0,835100
13,700167	0,5	0,827050
13,708500	0,5	0,819350
13,716833	0,5	0,809500
13,725167	0,5	0,810150
13,733500	0,5	0,809900
13,741833	0,5	0,807800
13,750167	0,5	0,806450
13,758500	0,5	0,805900
13,766833	0,5	0,800600
13,775167	0,5	0,800650
13,783500	0,5	0,797100
13,791833	0,5	0,791700
13,800167	0,5	0,788400
13,808500	0,5	0,786550
13,816833	0,5	0,775850
13,825167	0,5	0,775900
13,833500	0,5	0,776050
13,841833	0,5	0,772700
13,850167	0,5	0,764400
13,858500	0,5	0,748850
13,866833	0,5	0,747700
13,875167	0,5	0,747350
13,883500	0,5	0,750450
13,891833	0,5	0,736100
13,900167	0,5	0,736650
13,908500	0,5	0,734950
13,916833	0,5	0,731850
13,925167	0,5	0,730200
13,933500	0,5	0,724500
13,941833	0,5	0,723550
13,950167	0,5	0,713550
13,958500	0,5	0,715750
13,966833	0,5	0,696150
13,975167	0,5	0,709250
13,983500	0,5	0,704400
13,991833	0,5	0,702100
14,000167	0,5	0,692600
14,008500	0,5	0,681850
14,016833	0,5	0,679200
14,025167	0,5	0,680900
14,033500	0,5	0,673600
14,041833	0,5	0,668400
14,050167	0,5	0,664600
14,058500	0,5	0,663650
14,066833	0,5	0,658700
14,075167	0,5	0,655400
14,083500	0,5	0,652550
14,091833	0,5	0,645450
14,100167	0,5	0,642000
14,108500	0,5	0,639150
14,116833	0,5	0,628450
14,125167	0,5	0,636000
14,133500	0,5	0,632750
14,141833	0,5	0,621800
14,150167	0,5	0,616400
14,158500	0,5	0,598250
14,166833	0,5	0,607350
14,175167	0,5	0,600400
14,183500	0,5	0,602850
14,191833	0,5	0,598100
14,200167	0,5	0,598300
14,208500	0,5	0,593700
14,216833	0,5	0,593150
14,225167	0,5	0,595950
14,233500	0,5	0,587050
14,241833	0,5	0,585800
14,250167	0,5	0,585250
14,258500	0,5	0,575250
14,266833	0,5	0,574650
14,275167	0,5	0,577600
14,283500	0,5	0,568900
14,291833	0,5	0,563450
14,300167	0,5	0,549050
14,308500	0,5	0,541100
14,316833	0,5	0,540750
14,325167	0,5	0,539600
14,333500	0,5	0,534250
14,341833	0,5	0,539100
14,350167	0,5	0,534400
14,358500	0,5	0,534150
14,366833	0,5	0,533300
14,375167	0,5	0,532550
14,383500	0,5	0,526700
14,391833	0,5	0,526350
14,400167	0,5	0,526100
14,408500	0,5	0,518150
14,416833	0,5	0,519300
14,425167	0,5	0,520900
14,433500	0,5	0,514550
14,441833	0,5	0,501750
14,450167	0,5	0,488100
14,458500	0,5	0,479350
14,466833	0,5	0,478000
14,475167	0,5	0,477900
14,483500	0,5	0,476150
14,491833	0,5	0,471450
14,500167	0,5	0,470400
14,508500	0,5	0,463150
14,516833	0,5	0,464300
14,525167	0,5	0,458500
14,533500	0,5	0,454500
14,541833	0,5	0,455250
14,550167	0,5	0,447700
14,558500	0,5	0,427850
14,566833	0,5	0,425450
14,575167	0,5	0,414700
14,583500	0,5	0,395250
14,591833	0,5	0,372700
14,600167	0,5	0,358450
14,608500	0,5	0,356200
14,616833	0,5	0,359500
14,625167	0,5	0,361500
14,633500	0,5	0,369050
14,641833	0,5	0,374350
14,650167	0,5	0,380000
14,658500	0,5	0,384400
14,666833	0,5	0,386050
14,675167	0,5	0,388500
14,683500	0,5	0,384700
14,691833	0,5	0,395450
14,700167	0,5	0,373900
14,708500	0,5	0,378700
14,716833	0,5	0,382000
14,725167	0,5	0,379450
14,733500	0,5	0,371800
14,741833	0,5	0,357300
14,750167	0,5	0,350550
14,758500	0,5	0,352050
14,766833	0,5	0,348400
14,775167	0,5	0,342250
14,783500	0,5	0,341050
14,791833	0,5	0,339050
14,800167	0,5	0,339550
14,808500	0,5	0,331600
14,816833	0,5	0,335750
14,825167	0,5	0,326600
14,833500	0,5	0,330750
14,841833	0,5	0,324600
14,850167	0,5	0,309000
14,858500	0,5	0,315150
14,866833	0,5	0,315350
14,875167	0,5	0,303800
14,883500	0,5	0,300550
14,891833	0,5	0,280350
14,900167	0,5	0,284800
14,908500	0,5	0,284650
14,916833	0,5	0,285650
14,925167	0,5	0,280950
14,933500	0,5	0,282350
14,941833	0,5	0,281300
14,950167	0,5	0,275150
14,958500	0,5	0,279500
14,966833	0,5	0,274450
14,975167	0,5	0,273850
14,983500	0,5	0,274550
14,991833	0,5	0,273350
15,000167	0,5	0,256900
15,008500	0,5	0,272450
15,016833	0,5	0,265050
15,025167	0,5	0,259800
15,033500	0,5	0,247200
15,041833	0,5	0,236300
15,050167	0,5	0,237500
15,058500	0,5	0,239200
15,066833	0,5	0,229650
15,075167	0,5	0,231250
15,083500	0,5	0,227550
15,091833	0,5	0,225700
15,100167	0,5	0,226300
15,108500	0,5	0,223850
15,116833	0,5	0,221100
15,125167	0,5	0,218050
15,133500	0,5	0,225900
15,141833	0,5	0,217550
15,150167	0,5	0,209600
15,158500	0,5	0,219150
15,166833	0,5	0,215700
15,175167	0,5	0,206650
15,183500	0,5	0,195300
15,191833	0,5	0,177550
15,200167	0,5	0,187950
15,208500	0,5	0,179000
15,216833	0,5	0,183100
15,225167	0,5	0,179500
15,233500	0,5	0,179700
15,241833	0,5	0,178900
15,250167	0,5	0,182750
15,258500	0,5	0,182100
15,266833	0,5	0,182550
15,275167	0,5	0,186700
15,283500	0,5	0,187600
15,291833	0,5	0,168750
15,300167	0,5	0,171500
15,308500	0,5	0,165800
15,316833	0,5	0,160050
15,325167	0,5	0,144450
15,333500	0,5	0,126350
15,341833	0,5	0,122650
15,350167	0,5	0,115200
15,358500	0,5	0,116750
15,366833	0,5	0,110500
15,375167	0,5	0,107300
15,383500	0,5	0,101900
15,391833	0,5	0,105800
15,400167	0,5	0,098750
15,408500	0,5	0,101300
15,416833	0,5	0,092750
15,425167	0,5	0,099450
15,433500	0,5	0,092800
15,441833	0,5	0,082900
15,450167	0,5	0,087200
15,458500	0,5	0,085550
15,466833	0,5	0,079350
15,475167	0,5	0,062550
15,483500	0,5	0,054250
15,491833	0,5	0,047150
15,500167	0,5	0,048750
15,508500	0,5	0,050000
15,516833	0,5	0,048150
15,525167	0,5	0,048000
15,533500	0,5	0,046500
15,541833	0,5	0,042400
15,550167	0,5	0,043500
15,558500	0,5	0,036950
15,566833	0,5	0,038850
15,575167	0,5	0,042200
15,583500	0,5	0,034500
15,591833	0,5	0,024300
15,600167	0,5	0,033650
15,608500	0,5	0,028500
15,616833	0,5	0,023150
15,625167	0,5	0,000350
15,633500	0,5	-0,003200
15,641833	0,5	0,001150
15,650167	0,5	-0,000800
15,658500	0,5	-0,003250
15,666833	0,5	-0,005150
15,675167	0,5	-0,005000
15,683500	0,5	-0,010850
15,691833	0,5	-0,007700
15,700167	0,5	-0,017800
15,708500	0,5	-0,014300
15,716833	0,5	-0,019800
15,725167	0,5	-0,017550
15,733500	0,5	-0,039300
15,741833	0,5	-0,029800
15,750167	0,5	-0,028700
15,758500	0,5	-0,028900
15,766833	0,5	-0,037750
15,775167	0,5	-0,054450
15,783500	0,5	-0,056200
15,791833	0,5	-0,056500
15,800167	0,5	-0,061650
15,808500	0,5	-0,063350
15,816833	0,5	-0,067350
15,825167	0,5	-0,065050
15,833500	0,5	-0,063900
15,841833	0,5	-0,064950
15,850167	0,5	-0,063750
15,858500	0,5	-0,071100
15,866833	0,5	-0,061650
15,875167	0,5	-0,065300
15,883500	0,5	-0,081400
15,891833	0,5	-0,074350
15,900167	0,5	-0,077400
15,908500	0,5	-0,085250
15,916833	0,5	-0,094600
15,925167	0,5	-0,115650
15,933500	0,5	-0,108550
15,941833	0,5	-0,111650
15,950167	0,5	-0,109400
15,958500	0,5	-0,115500
15,966833	0,5	-0,113400
15,975167	0,5	-0,119600
15,983500	0,5	-0,120800
15,991833	0,5	-0,124550
16,000167	0,5	-0,131300
16,008500	0,5	-0,131550
16,016833	0,5	-0,134200
16,025167	0,5	-0,137800
16,033500	0,5	-0,145450
16,041833	0,5	-0,141650
16,050167	0,5	-0,145300
16,058500	0,5	-0,151700
16,066833	0,5	-0,166150
16,075167	0,5	-0,176300
16,083500	0,5	-0,173350
16,091833	0,5	-0,172250
16,100167	0,5	-0,182100
16,108500	0,5	-0,178350
16,116833	0,5	-0,184750
16,125167	0,5	-0,182950
16,133500	0,5	-0,185900
16,141833	0,5	-0,190650
16,150167	0,5	-0,190900
16,158500	0,5	-0,192550
16,166833	0,5	-0,189100
16,175167	0,5	-0,200950
16,183500	0,5	-0,199850
16,191833	0,5	-0,199100
16,200167	0,5	-0,205500
16,208500	0,5	-0,217450
16,216833	0,5	-0,229700
16,225167	0,5	-0,237600
16,233500	0,5	-0,231100
16,241833	0,5	-0,240900
16,250167	0,5	-0,235650
16,258500	0,5	-0,239950
16,266833	0,5	-0,238200
16,275167	0,5	-0,247100
16,283500	0,5	-0,250800
16,291833	0,5	-0,253450
16,300167	0,5	-0,251600
16,308500	0,5	-0,244600
16,316833	0,5	-0,246700
16,325167	0,5	-0,261100
16,333500	0,5	-0,254250
16,341833	0,5	-0,258550
16,350167	0,5	-0,262650
16,358500	0,5	-0,275900
16,366833	0,5	-0,296500
16,375167	0,5	-0,295400
16,383500	0,5	-0,296150
16,391833	0,5	-0,294400
16,400167	0,5	-0,299600
16,408500	0,5	-0,298400
16,416833	0,5	-0,304300
16,425167	0,5	-0,301650
16,433500	0,5	-0,304600
16,441833	0,5	-0,308450
16,450167	0,5	-0,312000
16,458500	0,5	-0,303750
16,466833	0,5	-0,315900
16,475167	0,5	-0,317750
16,483500	0,5	-0,318600
16,491833	0,5	-0,319150
16,500167	0,5	-0,324550
16,508500	0,5	-0,343300
16,516833	0,5	-0,355300
16,525167	0,5	-0,362450
16,533500	0,5	-0,358250
16,541833	0,5	-0,364550
16,550167	0,5	-0,361050
16,558500	0,5	-0,363150
16,566833	0,5	-0,366050
16,575167	0,5	-0,367450
16,583500	0,5	-0,369600
16,591833	0,5	-0,375400
16,600167	0,5	-0,370000
16,608500	0,5	-0,370800
16,616833	0,5	-0,382400
16,625167	0,5	-0,386550
16,633500	0,5	-0,375100
16,641833	0,5	-0,387100
16,650167	0,5	-0,390650
16,658500	0,5	-0,414750
16,666833	0,5	-0,415550
16,675167	0,5	-0,416800
16,683500	0,5	-0,416450
16,691833	0,5	-0,419150
16,700167	0,5	-0,420950
16,708500	0,5	-0,424800
16,716833	0,5	-0,427600
16,725167	0,5	-0,424150
16,733500	0,5	-0,429400
16,741833	0,5	-0,425600
16,750167	0,5	-0,430400
16,758500	0,5	-0,429650
16,766833	0,5	-0,450150
16,775167	0,5	-0,434600
16,783500	0,5	-0,436050
16,791833	0,5	-0,438250
16,800167	0,5	-0,447850
16,808500	0,5	-0,464200
16,816833	0,5	-0,461700
16,825167	0,5	-0,458050
16,833500	0,5	-0,459200
16,841833	0,5	-0,461600
16,850167	0,5	-0,462050
16,858500	0,5	-0,462100
16,866833	0,5	-0,464050
16,875167	0,5	-0,463200
16,883500	0,5	-0,464300
16,891833	0,5	-0,469050
16,900167	0,5	-0,458550
16,908500	0,5	-0,474400
16,916833	0,5	-0,477100
16,925167	0,5	-0,475050
16,933500	0,5	-0,474550
16,941833	0,5	-0,487050
16,950167	0,5	-0,500350
16,958500	0,5	-0,515750
16,966833	0,5	-0,503900
16,975167	0,5	-0,511750
16,983500	0,5	-0,506400
16,991833	0,5	-0,512100
17,000167	0,5	-0,515300
17,008500	0,5	-0,515950
17,016833	0,5	-0,516250
17,025167	0,5	-0,514900
17,033500	0,5	-0,519850
17,041833	0,5	-0,520450
17,050167	0,5	-0,517600
17,058500	0,5	-0,530650
17,066833	0,5	-0,526300
17,075167	0,5	-0,522150
17,083500	0,5	-0,527400
17,091833	0,5	-0,536050
17,100167	0,5	-0,551450
17,108500	0,5	-0,552800
17,116833	0,5	-0,552950
17,125167	0,5	-0,548450
17,133500	0,5	-0,557800
17,141833	0,5	-0,556300
17,150167	0,5	-0,561100
17,158500	0,5	-0,559800
17,166833	0,5	-0,555950
17,175167	0,5	-0,560850
17,183500	0,5	-0,560550
17,191833	0,5	-0,565700
17,200167	0,5	-0,559500
17,208500	0,5	-0,575300
17,216833	0,5	-0,558650
17,225167	0,5	-0,564100
17,233500	0,5	-0,565250
17,241833	0,5	-0,581300
17,250167	0,5	-0,592300
17,258500	0,5	-0,599250
17,266833	0,5	-0,589300
17,275167	0,5	-0,593200
17,283500	0,5	-0,588250
17,291833	0,5	-0,592100
17,300167	0,5	-0,586450
17,308500	0,5	-0,594650
17,316833	0,5	-0,590250
17,325167	0,5	-0,594050
17,333500	0,5	-0,593100
17,341833	0,5	-0,588400
17,350167	0,5	-0,590900
17,358500	0,5	-0,595050
17,366833	0,5	-0,584300
17,375167	0,5	-0,591750
17,383500	0,5	-0,596200
17,391833	0,5	-0,606800
17,400167	0,5	-0,620600
17,408500	0,5	-0,614250
17,416833	0,5	-0,617700
17,425167	0,5	-0,615950
17,433500	0,5	-0,616300
17,441833	0,5	-0,611050
17,450167	0,5	-0,614900
17,458500	0,5	-0,608150
17,466833	0,5	-0,608900
17,475167	0,5	-0,605850
17,483500	0,5	-0,596150
17,491833	0,5	-0,592700
17,500167	0,5	-0,606900
17,508500	0,5	-0,598350
17,516833	0,5	-0,594350
17,525167	0,5	-0,597400
17,533500	0,5	-0,603150
17,541833	0,5	-0,619550
17,550167	0,5	-0,618300
17,558500	0,5	-0,616500
17,566833	0,5	-0,615000
17,575167	0,5	-0,615250
17,583500	0,5	-0,610350
17,591833	0,5	-0,610700
17,600167	0,5	-0,606150
17,608500	0,5	-0,607850
17,616833	0,5	-0,605850
17,625167	0,5	-0,607100
17,633500	0,5	-0,593450
17,641833	0,5	-0,589100
17,650167	0,5	-0,596900
17,658500	0,5	-0,588050
17,666833	0,5	-0,582000
17,675167	0,5	-0,589150
17,683500	0,5	-0,590900
17,691833	0,5	-0,603300
17,700167	0,5	-0,597850
17,708500	0,5	-0,594600
17,716833	0,5	-0,591200
17,725167	0,5	-0,589300
17,733500	0,5	-0,587150
17,741833	0,5	-0,580050
17,750167	0,5	-0,578050
17,758500	0,5	-0,567800
17,766833	0,5	-0,571900
17,775167	0,5	-0,561850
17,783500	0,5	-0,555750
17,791833	0,5	-0,559350
17,800167	0,5	-0,561400
17,808500	0,5	-0,544300
17,816833	0,5	-0,544150
17,825167	0,5	-0,543650
17,833500	0,5	-0,553550
17,841833	0,5	-0,558850
17,850167	0,5	-0,545000
17,858500	0,5	-0,546000
17,866833	0,5	-0,543850
17,875167	0,5	-0,541850
17,883500	0,5	-0,538000
17,891833	0,5	-0,536700
17,900167	0,5	-0,533850
17,908500	0,5	-0,533950
17,916833	0,5	-0,528400
17,925167	0,5	-0,524900
17,933500	0,5	-0,513000
17,941833	0,5	-0,527800
17,950167	0,5	-0,515100
17,958500	0,5	-0,512550
17,966833	0,5	-0,510150
17,975167	0,5	-0,524850
17,983500	0,5	-0,538900
17,991833	0,5	-0,537250
18,000167	0,5	-0,529700
18,008500	0,5	-0,532550
18,016833	0,5	-0,528950
18,025167	0,5	-0,531750
18,033500	0,5	-0,529200
18,041833	0,5	-0,529500
18,050167	0,5	-0,528900
18,058500	0,5	-0,525900
18,066833	0,5	-0,529750
18,075167	0,5	-0,516750
18,083500	0,5	-0,514650
18,091833	0,5	-0,530750
18,100167	0,5	-0,521150
18,108500	0,5	-0,521000
18,116833	0,5	-0,529600
18,125167	0,5	-0,537150
18,133500	0,5	-0,563300
18,141833	0,5	-0,555450
18,150167	0,5	-0,557350
18,158500	0,5	-0,555850
18,166833	0,5	-0,566600
18,175167	0,5	-0,563850
18,183500	0,5	-0,569600
18,191833	0,5	-0,568300
18,200167	0,5	-0,565150
18,208500	0,5	-0,572900
18,216833	0,5	-0,566850
18,225167	0,5	-0,565250
18,233500	0,5	-0,570900
18,241833	0,5	-0,579050
18,250167	0,5	-0,572800
18,258500	0,5	-0,584350
18,266833	0,5	-0,586700
18,275167	0,5	-0,608650
18,283500	0,5	-0,622450
18,291833	0,5	-0,628700
18,300167	0,5	-0,627700
18,308500	0,5	-0,633650
18,316833	0,5	-0,628800
18,325167	0,5	-0,636700
18,333500	0,5	-0,637700
18,341833	0,5	-0,642000
18,350167	0,5	-0,645650
18,358500	0,5	-0,651050
18,366833	0,5	-0,646550
18,375167	0,5	-0,649200
18,383500	0,5	-0,661350
18,391833	0,5	-0,660800
18,400167	0,5	-0,658400
18,408500	0,5	-0,666900
18,416833	0,5	-0,681400
18,425167	0,5	-0,700700
18,433500	0,5	-0,710050
18,441833	0,5	-0,705550
18,450167	0,5	-0,712850
18,458500	0,5	-0,715850
18,466833	0,5	-0,723300
18,475167	0,5	-0,727150
18,483500	0,5	-0,730400
18,491833	0,5	-0,731150
18,500167	0,5	-0,737900
18,508500	0,5	-0,742000
18,516833	0,5	-0,737400
18,525167	0,5	-0,743150
18,533500	0,5	-0,760750
18,541833	0,5	-0,754050
18,550167	0,5	-0,754850
18,558500	0,5	-0,768550
18,566833	0,5	-0,783000
18,575167	0,5	-0,801850
18,583500	0,5	-0,801800
18,591833	0,5	-0,807350
18,600167	0,5	-0,807300
18,608500	0,5	-0,814900
18,616833	0,5	-0,811850
18,625167	0,5	-0,821350
18,633500	0,5	-0,817750
18,641833	0,5	-0,828400
18,650167	0,5	-0,831100
18,658500	0,5	-0,837200
18,666833	0,5	-0,832300
18,675167	0,5	-0,850900
18,683500	0,5	-0,844350
18,691833	0,5	-0,845200
18,700167	0,5	-0,851050
18,708500	0,5	-0,858750
18,716833	0,5	-0,884300
18,725167	0,5	-0,886450
18,733500	0,5	-0,891050
18,741833	0,5	-0,888250
18,750167	0,5	-0,896000
18,758500	0,5	-0,898450
18,766833	0,5	-0,904150
18,775167	0,5	-0,904750
18,783500	0,5	-0,908500
18,791833	0,5	-0,909900
18,800167	0,5	-0,916150
18,808500	0,5	-0,916250
18,816833	0,5	-0,915900
18,825167	0,5	-0,934800
18,833500	0,5	-0,924350
18,841833	0,5	-0,921900
18,850167	0,5	-0,929250
18,858500	0,5	-0,942300
18,866833	0,5	-0,962800
18,875167	0,5	-0,963250
18,883500	0,5	-0,961650
18,891833	0,5	-0,970300
18,900167	0,5	-0,973250
18,908500	0,5	-0,977000
18,916833	0,5	-0,975550
18,925167	0,5	-0,980050
18,933500	0,5	-0,975050
18,941833	0,5	-0,988600
18,950167	0,5	-0,985900
18,958500	0,5	-0,980400
18,966833	0,5	-0,979100
18,975167	0,5	-0,998400
18,983500	0,5	-0,980650
18,991833	0,5	-0,985000
19,000167	0,5	-0,992650
19,008500	0,5	-1,007000
19,016833	0,5	-1,025800
19,025167	0,5	-1,018800
19,033500	0,5	-1,018300
19,041833	0,5	-1,029450
19,050167	0,5	-1,028100
19,058500	0,5	-1,034100
19,066833	0,5	-1,040300
19,075167	0,5	-1,036000
19,083500	0,5	-1,046750
19,091833	0,5	-1,050550
19,100167	0,5	-1,053350
19,108500	0,5	-1,045750
19,116833	0,5	-1,059150
19,125167	0,5	-1,063500
19,133500	0,5	-1,060950
19,141833	0,5	-1,071900
19,150167	0,5	-1,085100
19,158500	0,5	-1,101850
19,166833	0,5	-1,115350
19,175167	0,5	-1,112750
19,183500	0,5	-1,118250
19,191833	0,5	-1,125800
19,200167	0,5	-1,130200
19,208500	0,5	-1,133400
19,216833	0,5	-1,139750
19,225167	0,5	-1,141300
19,233500	0,5	-1,147100
19,241833	0,5	-1,154050
19,250167	0,5	-1,148050
19,258500	0,5	-1,151150
19,266833	0,5	-1,165500
19,275167	0,5	-1,164500
19,283500	0,5	-1,162300
19,291833	0,5	-1,170250
19,300167	0,5	-1,181350
19,308500	0,5	-1,207650
19,316833	0,5	-1,209800
19,325167	0,5	-1,220000
19,333500	0,5	-1,214700
19,341833	0,5	-1,219750
19,350167	0,5	-1,219200
19,358500	0,5	-1,217700
19,366833	0,5	-1,219900
19,375167	0,5	-1,222250
19,383500	0,5	-1,230300
19,391833	0,5	-1,226750
19,400167	0,5	-1,220350
19,408500	0,5	-1,225700
19,416833	0,5	-1,234550
19,425167	0,5	-1,230000
19,433500	0,5	-1,233850
19,441833	0,5	-1,239650
19,450167	0,5	-1,261800
19,458500	0,5	-1,268100
19,466833	0,5	-1,273700
19,475167	0,5	-1,266350
19,483500	0,5	-1,274850
19,491833	0,5	-1,270200
19,500167	0,5	-1,277350
19,508500	0,5	-1,276400
19,516833	0,5	-1,276650
19,525167	0,5	-1,279200
19,533500	0,5	-1,282100
19,541833	0,5	-1,279200
19,550167	0,5	-1,273050
19,558500	0,5	-1,295250
19,566833	0,5	-1,289350
19,575167	0,5	-1,286450
19,583500	0,5	-1,292800
19,591833	0,5	-1,295900
19,600167	0,5	-1,320050
19,608500	0,5	-1,327100
19,616833	0,5	-1,322900
19,625167	0,5	-1,330250
19,633500	0,5	-1,326950
19,641833	0,5	-1,330600
19,650167	0,5	-1,325850
19,658500	0,5	-1,330800
19,666833	0,5	-1,334800
19,675167	0,5	-1,333800
19,683500	0,5	-1,340050
19,691833	0,5	-1,333450
19,700167	0,5	-1,333950
19,708500	0,5	-1,352250
19,716833	0,5	-1,339450
19,725167	0,5	-1,338800
19,733500	0,5	-1,348200
19,741833	0,5	-1,355200
19,750167	0,5	-1,374150
19,758500	0,5	-1,360950
19,766833	0,5	-1,365950
19,775167	0,5	-1,362500
19,783500	0,5	-1,370800
19,791833	0,5	-1,366050
19,800167	0,5	-1,377800
19,808500	0,5	-1,371200
19,816833	0,5	-1,375750
19,825167	0,5	-1,376700
19,833500	0,5	-1,377200
19,841833	0,5	-1,368000
19,850167	0,5	-1,382950
19,858500	0,5	-1,383800
19,866833	0,5	-1,375450
19,875167	0,5	-1,378300
19,883500	0,5	-1,386150
19,891833	0,5	-1,403800
19,900167	0,5	-1,411900
19,908500	0,5	-1,414200
19,916833	0,5	-1,413250
19,925167	0,5	-1,424750
19,933500	0,5	-1,420250
19,941833	0,5	-1,427200
19,950167	0,5	-1,424900
19,958500	0,5	-1,427800
19,966833	0,5	-1,425450
19,975167	0,5	-1,429550
19,983500	0,5	-1,432300
19,991833	0,5	-1,430200
20,000167	0,5	-1,444450
20,008500	0,5	-1,431050
20,016833	0,5	-1,429350
20,025167	0,5	-1,432050
20,033500	0,5	-1,446050
20,041833	0,5	-1,464400
20,050167	0,5	-1,468350
20,058500	0,5	-1,462450
20,066833	0,5	-1,469300
20,075167	0,5	-1,466950
20,083500	0,5	-1,472600
20,091833	0,5	-1,473850
20,100167	0,5	-1,480550
20,108500	0,5	-1,476650
20,116833	0,5	-1,481150
20,125167	0,5	-1,484300
20,133500	0,5	-1,479300
20,141833	0,5	-1,479350
20,150167	0,5	-1,497250
20,158500	0,5	-1,484700
20,166833	0,5	-1,491050
20,175167	0,5	-1,493050
20,183500	0,5	-1,510900
20,191833	0,5	-1,527900
20,200167	0,5	-1,516250
20,208500	0,5	-1,516900
20,216833	0,5	-1,516400
20,225167	0,5	-1,515000
20,233500	0,5	-1,511550
20,241833	0,5	-1,511600
20,250167	0,5	-1,500050
20,258500	0,5	-1,502400
20,266833	0,5	-1,498100
20,275167	0,5	-1,491900
20,283500	0,5	-1,477750
20,291833	0,5	-1,484900
20,300167	0,5	-1,479400
20,308500	0,5	-1,466450
20,316833	0,5	-1,467850
20,325167	0,5	-1,472350
20,333500	0,5	-1,488300
20,341833	0,5	-1,493200
20,350167	0,5	-1,491300
20,358500	0,5	-1,482250
20,366833	0,5	-1,478100
20,375167	0,5	-1,467950
20,383500	0,5	-1,469500
20,391833	0,5	-1,457400
20,400167	0,5	-1,457750
20,408500	0,5	-1,448450
20,416833	0,5	-1,449850
20,425167	0,5	-1,431650
20,433500	0,5	-1,427550
20,441833	0,5	-1,428550
20,450167	0,5	-1,421550
20,458500	0,5	-1,408800
20,466833	0,5	-1,415800
20,475167	0,5	-1,420700
20,483500	0,5	-1,430550
20,491833	0,5	-1,428600
20,500167	0,5	-1,420550
20,508500	0,5	-1,419550
20,516833	0,5	-1,414450
20,525167	0,5	-1,411350
20,533500	0,5	-1,408100
20,541833	0,5	-1,403450
20,550167	0,5	-1,393850
20,558500	0,5	-1,389500
20,566833	0,5	-1,375450
20,575167	0,5	-1,357850
20,583500	0,5	-1,354750
20,591833	0,5	-1,358100
20,600167	0,5	-1,351100
20,608500	0,5	-1,347400
20,616833	0,5	-1,351250
20,625167	0,5	-1,373100
20,633500	0,5	-1,377800
20,641833	0,5	-1,373800
20,650167	0,5	-1,374800
20,658500	0,5	-1,380700
20,666833	0,5	-1,384950
20,675167	0,5	-1,381850
20,683500	0,5	-1,383950
20,691833	0,5	-1,373000
20,700167	0,5	-1,382050
20,708500	0,5	-1,379700
20,716833	0,5	-1,363700
20,725167	0,5	-1,350800
20,733500	0,5	-1,361650
20,741833	0,5	-1,357250
20,750167	0,5	-1,360600
20,758500	0,5	-1,364050
20,766833	0,5	-1,370850
20,775167	0,5	-1,389400
20,783500	0,5	-1,380600
20,791833	0,5	-1,378050
20,800167	0,5	-1,377200
20,808500	0,5	-1,377450
20,816833	0,5	-1,369100
20,825167	0,5	-1,371450
20,833500	0,5	-1,366850
20,841833	0,5	-1,363950
20,850167	0,5	-1,360850
20,858500	0,5	-1,357200
20,866833	0,5	-1,324850
20,875167	0,5	-1,314850
20,883500	0,5	-1,320300
20,891833	0,5	-1,314450
20,900167	0,5	-1,310100
20,908500	0,5	-1,319300
20,916833	0,5	-1,318800
20,925167	0,5	-1,328650
20,933500	0,5	-1,314150
20,941833	0,5	-1,319250
20,950167	0,5	-1,307200
20,958500	0,5	-1,304600
20,966833	0,5	-1,297200
20,975167	0,5	-1,286700
20,983500	0,5	-1,283950
20,991833	0,5	-1,273200
21,000167	0,5	-1,270650
21,008500	0,5	-1,248450
21,016833	0,5	-1,227800
21,025167	0,5	-1,217200
21,033500	0,5	-1,216650
21,041833	0,5	-1,209000
21,050167	0,5	-1,209450
21,058500	0,5	-1,213600
21,066833	0,5	-1,232750
21,075167	0,5	-1,228550
21,083500	0,5	-1,221300
21,091833	0,5	-1,215900
21,100167	0,5	-1,210800
21,108500	0,5	-1,204800
21,116833	0,5	-1,199050
21,125167	0,5	-1,194500
21,133500	0,5	-1,189200
21,141833	0,5	-1,187200
21,150167	0,5	-1,179250
21,158500	0,5	-1,149150
21,166833	0,5	-1,134150
21,175167	0,5	-1,135050
21,183500	0,5	-1,131450
21,191833	0,5	-1,134250
21,200167	0,5	-1,130900
21,208500	0,5	-1,148150
21,216833	0,5	-1,155300
21,225167	0,5	-1,151850
21,233500	0,5	-1,138250
21,241833	0,5	-1,134300
21,250167	0,5	-1,118700
21,258500	0,5	-1,111600
21,266833	0,5	-1,103850
21,275167	0,5	-1,092350
21,283500	0,5	-1,083900
21,291833	0,5	-1,071300
21,300167	0,5	-1,056000
21,308500	0,5	-1,021250
21,316833	0,5	-1,012400
21,325167	0,5	-1,009350
21,333500	0,5	-0,997650
21,341833	0,5	-0,994500
21,350167	0,5	-0,999200
21,358500	0,5	-1,000100
21,366833	0,5	-0,999950
21,375167	0,5	-0,986200
21,383500	0,5	-0,979500
21,391833	0,5	-0,961850
21,400167	0,5	-0,953100
21,408500	0,5	-0,939050
21,416833	0,5	-0,926350
21,425167	0,5	-0,915800
21,433500	0,5	-0,897300
21,441833	0,5	-0,888200
21,450167	0,5	-0,847550
21,458500	0,5	-0,821050
21,466833	0,5	-0,816850
21,475167	0,5	-0,807150
21,483500	0,5	-0,793600
21,491833	0,5	-0,795850
21,500167	0,5	-0,793400
21,508500	0,5	-0,792350
21,516833	0,5	-0,772200
21,525167	0,5	-0,756100
21,533500	0,5	-0,741250
21,541833	0,5	-0,718700
21,550167	0,5	-0,703600
21,558500	0,5	-0,684250
21,566833	0,5	-0,667500
21,575167	0,5	-0,638550
21,583500	0,5	-0,622200
21,591833	0,5	-0,586100
21,600167	0,5	-0,540350
21,608500	0,5	-0,509900
21,616833	0,5	-0,479850
21,625167	0,5	-0,448600
21,633500	0,5	-0,425750
21,641833	0,5	-0,415650
21,650167	0,5	-0,428500
21,658500	0,5	-0,426400
21,666833	0,5	-0,423650
21,675167	0,5	-0,415700
21,683500	0,5	-0,408950
21,691833	0,5	-0,395550
21,700167	0,5	-0,382050
21,708500	0,5	-0,366100
21,716833	0,5	-0,348950
21,725167	0,5	-0,332500
21,733500	0,5	-0,314000
21,741833	0,5	-0,279400
21,750167	0,5	-0,249350
21,758500	0,5	-0,241550
21,766833	0,5	-0,216000
21,775167	0,5	-0,196750
21,783500	0,5	-0,176450
21,791833	0,5	-0,165800
21,800167	0,5	-0,153400
21,808500	0,5	-0,110850
21,816833	0,5	-0,078100
21,825167	0,5	-0,051350
21,833500	0,5	-0,020400
21,841833	0,5	0,008900
21,850167	0,5	0,041550
21,858500	0,5	0,075850
21,866833	0,5	0,103850
21,875167	0,5	0,137950
21,883500	0,5	0,167200
21,891833	0,5	0,218600
21,900167	0,5	0,232450
21,908500	0,5	0,251800
21,916833	0,5	0,275200
21,925167	0,5	0,301050
21,933500	0,5	0,316700
21,941833	0,5	0,334300
21,950167	0,5	0,361050
21,958500	0,5	0,399000
21,966833	0,5	0,423400
21,975167	0,5	0,458650
21,983500	0,5	0,487750
21,991833	0,5	0,519400
22,000167	0,5	0,555350
22,008500	0,5	0,593850
22,016833	0,5	0,630750
22,025167	0,5	0,668150
22,033500	0,5	0,714400
22,041833	0,5	0,757350
22,050167	0,5	0,790150
22,058500	0,5	0,834050
22,066833	0,5	0,875850
22,075167	0,5	0,907700
22,083500	0,5	0,936550
22,091833	0,5	0,960600
22,100167	0,5	1,003900
22,108500	0,5	1,049750
22,116833	0,5	1,097200
22,125167	0,5	1,143500
22,133500	0,5	1,194300
22,141833	0,5	1,243600
22,150167	0,5	1,293550
22,158500	0,5	1,346800
22,166833	0,5	1,388750
22,175167	0,5	1,441950
22,183500	0,5	1,481300
22,191833	0,5	1,535450
22,200167	0,5	1,585950
22,208500	0,5	1,652750
22,216833	0,5	1,690900
22,225167	0,5	1,736500
22,233500	0,5	1,772000
22,241833	0,5	1,817450
22,250167	0,5	1,872950
22,258500	0,5	1,931750
22,266833	0,5	1,979350
22,275167	0,5	2,037150
22,283500	0,5	2,089500
22,291833	0,5	2,144900
22,300167	0,5	2,205650
22,308500	0,5	2,254150
22,316833	0,5	2,311050
22,325167	0,5	2,351850
22,333500	0,5	2,402000
22,341833	0,5	2,447350
22,350167	0,5	2,525300
22,358500	0,5	2,588300
22,366833	0,5	2,639900
22,375167	0,5	2,690750
22,383500	0,5	2,740850
22,391833	0,5	2,798050
22,400167	0,5	2,865650
22,408500	0,5	2,931750
22,416833	0,5	2,998700
22,425167	0,5	3,068050
22,433500	0,5	3,140200
22,441833	0,5	3,214400
22,450167	0,5	3,277150
22,458500	0,5	3,348000
22,466833	0,5	3,415000
22,475167	0,5	3,466850
22,483500	0,5	3,530650
22,491833	0,5	3,625500
22,500167	0,5	3,704250
22,508500	0,5	3,770000
22,516833	0,5	3,834600
22,525167	0,5	3,887350
22,533500	0,5	3,946650
22,541833	0,5	4,018000
22,550167	0,5	4,080400
22,558500	0,5	4,145700
22,566833	0,5	4,201650
22,575167	0,5	4,257800
22,583500	0,5	4,310700
22,591833	0,5	4,354300
22,600167	0,5	4,392900
22,608500	0,5	4,421050
22,616833	0,5	4,432550
22,625167	0,5	4,436150
22,633500	0,5	4,457600
22,641833	0,5	4,492150
22,650167	0,5	4,497650
22,658500	0,5	4,489650
22,666833	0,5	4,471700
22,675167	0,5	4,433400
22,683500	0,5	4,417800
22,691833	0,5	4,387550
22,700167	0,5	4,352500
22,708500	0,5	4,308600
22,716833	0,5	4,266700
22,725167	0,5	4,212100
22,733500	0,5	4,158150
22,741833	0,5	4,091150
22,750167	0,5	4,016100
22,758500	0,5	3,933500
22,766833	0,5	3,791900
22,775167	0,5	3,709950
22,783500	0,5	3,612500
22,791833	0,5	3,520850
22,800167	0,5	3,395750
22,808500	0,5	3,267300
22,816833	0,5	3,127750
22,825167	0,5	2,988150
22,833500	0,5	2,853050
22,841833	0,5	2,709450
22,850167	0,5	2,572000
22,858500	0,5	2,429100
22,866833	0,5	2,282650
22,875167	0,5	2,137750
22,883500	0,5	1,990750
22,891833	0,5	1,838300
22,900167	0,5	1,681050
22,908500	0,5	1,525250
22,916833	0,5	1,342850
22,925167	0,5	1,194450
22,933500	0,5	1,042000
22,941833	0,5	0,869000
22,950167	0,5	0,698900
22,958500	0,5	0,550600
22,966833	0,5	0,405000
22,975167	0,5	0,257200
22,983500	0,5	0,109200
22,991833	0,5	-0,024250
23,000167	0,5	-0,155150
23,008500	0,5	-0,280000
23,016833	0,5	-0,404300
23,025167	0,5	-0,520050
23,033500	0,5	-0,643750
23,041833	0,5	-0,761300
23,050167	0,5	-0,869450
23,058500	0,5	-0,960800
23,066833	0,5	-1,073150
23,075167	0,5	-1,179250
23,083500	0,5	-1,309550
23,091833	0,5	-1,413350
23,100167	0,5	-1,493250
23,108500	0,5	-1,567000
23,116833	0,5	-1,626900
23,125167	0,5	-1,703150
23,133500	0,5	-1,764800
23,141833	0,5	-1,820900
23,150167	0,5	-1,863650
23,158500	0,5	-1,914400
23,166833	0,5	-1,956350
23,175167	0,5	-1,999200
23,183500	0,5	-2,039950
23,191833	0,5	-2,078350
23,200167	0,5	-2,110650
23,208500	0,5	-2,163700
23,216833	0,5	-2,172350
23,225167	0,5	-2,206850
23,233500	0,5	-2,266900
23,241833	0,5	-2,290250
23,250167	0,5	-2,314500
23,258500	0,5	-2,312050
23,266833	0,5	-2,318950
23,275167	0,5	-2,319150
23,283500	0,5	-2,323300
23,291833	0,5	-2,309900
23,300167	0,5	-2,302350
23,308500	0,5	-2,286300
23,316833	0,5	-2,274550
23,325167	0,5	-2,262900
23,333500	0,5	-2,255850
23,341833	0,5	-2,243950
23,350167	0,5	-2,234000
23,358500	0,5	-2,254350
23,366833	0,5	-2,214700
23,375167	0,5	-2,197350
23,383500	0,5	-2,216900
23,391833	0,5	-2,211500
23,400167	0,5	-2,200700
23,408500	0,5	-2,176850
23,416833	0,5	-2,161350
23,425167	0,5	-2,141450
23,433500	0,5	-2,118050
23,441833	0,5	-2,095300
23,450167	0,5	-2,066500
23,458500	0,5	-2,042250
23,466833	0,5	-2,013550
23,475167	0,5	-1,988700
23,483500	0,5	-1,961250
23,491833	0,5	-1,937750
23,500167	0,5	-1,978200
23,508500	0,5	-1,938600
23,516833	0,5	-1,892550
23,525167	0,5	-1,846800
23,533500	0,5	-1,847500
23,541833	0,5	-1,840100
23,550167	0,5	-1,826450
23,558500	0,5	-1,815150
23,566833	0,5	-1,802150
23,575167	0,5	-1,790900
23,583500	0,5	-1,775850
23,591833	0,5	-1,761500
23,600167	0,5	-1,746950
23,608500	0,5	-1,732000
23,616833	0,5	-1,719000
23,625167	0,5	-1,702600
23,633500	0,5	-1,690850
23,641833	0,5	-1,694750
23,650167	0,5	-1,772950
23,658500	0,5	-1,742900
23,666833	0,5	-1,677200
23,675167	0,5	-1,649300
23,683500	0,5	-1,642200
23,691833	0,5	-1,640400
23,700167	0,5	-1,637950
23,708500	0,5	-1,631300
23,716833	0,5	-1,622300
23,725167	0,5	-1,615400
23,733500	0,5	-1,611000
23,741833	0,5	-1,602700
23,750167	0,5	-1,597800
23,758500	0,5	-1,590800
23,766833	0,5	-1,587550
23,775167	0,5	-1,585350
23,783500	0,5	-1,588300
23,791833	0,5	-1,688350
23,800167	0,5	-1,715450
23,808500	0,5	-1,685700
23,816833	0,5	-1,634100
23,825167	0,5	-1,610500
23,833500	0,5	-1,612200
23,841833	0,5	-1,614350
23,850167	0,5	-1,627650
23,858500	0,5	-1,621500
23,866833	0,5	-1,617750
23,875167	0,5	-1,607300
23,883500	0,5	-1,603650
23,891833	0,5	-1,590550
23,900167	0,5	-1,584400
23,908500	0,5	-1,577850
23,916833	0,5	-1,567900
23,925167	0,5	-1,565300
23,933500	0,5	-1,561350
23,941833	0,5	-1,709700
23,950167	0,5	-1,656100
23,958500	0,5	-1,639900
23,966833	0,5	-1,579450
23,975167	0,5	-1,566800
23,983500	0,5	-1,561950
23,991833	0,5	-1,568500
24,000167	0,5	-1,576950
24,008500	0,5	-1,572700
24,016833	0,5	-1,558350
24,025167	0,5	-1,558900
24,033500	0,5	-1,551600
24,041833	0,5	-1,546250
24,050167	0,5	-1,534200
24,058500	0,5	-1,527250
24,066833	0,5	-1,515100
24,075167	0,5	-1,508650
24,083500	0,5	-1,539550
24,091833	0,5	-1,627450
24,100167	0,5	-1,589400
24,108500	0,5	-1,549200
24,116833	0,5	-1,497200
24,125167	0,5	-1,478750
24,133500	0,5	-1,467850
24,141833	0,5	-1,464000
24,150167	0,5	-1,473150
24,158500	0,5	-1,450700
24,166833	0,5	-1,439700
24,175167	0,5	-1,417850
24,183500	0,5	-1,406650
24,191833	0,5	-1,384650
24,200167	0,5	-1,371600
24,208500	0,5	-1,352800
24,216833	0,5	-1,340200
24,225167	0,5	-1,335500
24,233500	0,5	-1,404250
24,241833	0,5	-1,424750
24,250167	0,5	-1,395250
24,258500	0,5	-1,347400
24,266833	0,5	-1,313300
24,275167	0,5	-1,304500
24,283500	0,5	-1,296750
24,291833	0,5	-1,299700
24,300167	0,5	-1,294600
24,308500	0,5	-1,286650
24,316833	0,5	-1,260250
24,325167	0,5	-1,246850
24,333500	0,5	-1,225650
24,341833	0,5	-1,212800
24,350167	0,5	-1,190750
24,358500	0,5	-1,175200
24,366833	0,5	-1,155200
24,375167	0,5	-1,141550
24,383500	0,5	-1,212800
24,391833	0,5	-1,194000
24,400167	0,5	-1,161500
24,408500	0,5	-1,120200
24,416833	0,5	-1,089750
24,425167	0,5	-1,079650
24,433500	0,5	-1,070350
24,441833	0,5	-1,074200
24,450167	0,5	-1,064850
24,458500	0,5	-1,047850
24,466833	0,5	-1,040650
24,475167	0,5	-1,027700
24,483500	0,5	-1,017650
24,491833	0,5	-0,998850
24,500167	0,5	-0,985250
24,508500	0,5	-0,971600
24,516833	0,5	-0,962850
24,525167	0,5	-0,972300
24,533500	0,5	-1,011700
24,541833	0,5	-0,988750
24,550167	0,5	-0,964950
24,558500	0,5	-0,929950
24,566833	0,5	-0,908650
24,575167	0,5	-0,897150
24,583500	0,5	-0,892150
24,591833	0,5	-0,892450
24,600167	0,5	-0,871100
24,608500	0,5	-0,859650
24,616833	0,5	-0,842150
24,625167	0,5	-0,827650
24,633500	0,5	-0,815200
24,641833	0,5	-0,805750
24,650167	0,5	-0,788750
24,658500	0,5	-0,777950
24,666833	0,5	-0,767800
24,675167	0,5	-0,802850
24,683500	0,5	-0,791600
24,691833	0,5	-0,787200
24,700167	0,5	-0,759000
24,708500	0,5	-0,742000
24,716833	0,5	-0,728050
24,725167	0,5	-0,726850
24,733500	0,5	-0,729400
24,741833	0,5	-0,722850
24,750167	0,5	-0,710050
24,758500	0,5	-0,701350
24,766833	0,5	-0,694450
24,775167	0,5	-0,683800
24,783500	0,5	-0,671950
24,791833	0,5	-0,658300
24,800167	0,5	-0,647450
24,808500	0,5	-0,635050
24,816833	0,5	-0,629850
24,825167	0,5	-0,652550
24,833500	0,5	-0,639150
24,841833	0,5	-0,627400
24,850167	0,5	-0,603050
24,858500	0,5	-0,587700
24,866833	0,5	-0,580100
24,875167	0,5	-0,575500
24,883500	0,5	-0,578500
24,891833	0,5	-0,571200
24,900167	0,5	-0,561100
24,908500	0,5	-0,551150
24,916833	0,5	-0,547550
24,925167	0,5	-0,535950
24,933500	0,5	-0,530800
24,941833	0,5	-0,524550
24,950167	0,5	-0,514600
24,958500	0,5	-0,513700
24,966833	0,5	-0,508350
24,975167	0,5	-0,524900
24,983500	0,5	-0,509500
24,991833	0,5	-0,500500
25,000167	0,5	-0,485250
25,008500	0,5	-0,475900
25,016833	0,5	-0,469300
25,025167	0,5	-0,468850
25,033500	0,5	-0,469000
25,041833	0,5	-0,461450
25,050167	0,5	-0,446600
25,058500	0,5	-0,441400
25,066833	0,5	-0,435600
25,075167	0,5	-0,426800
25,083500	0,5	-0,417700
25,091833	0,5	-0,412350
25,100167	0,5	-0,402450
25,108500	0,5	-0,396400
25,116833	0,5	-0,404250
25,125167	0,5	-0,398250
25,133500	0,5	-0,394550
25,141833	0,5	-0,388450
25,150167	0,5	-0,380850
25,158500	0,5	-0,376250
25,166833	0,5	-0,374250
25,175167	0,5	-0,378150
25,183500	0,5	-0,374700
25,191833	0,5	-0,371150
25,200167	0,5	-0,367950
25,208500	0,5	-0,361750
25,216833	0,5	-0,358000
25,225167	0,5	-0,349450
25,233500	0,5	-0,348300
25,241833	0,5	-0,339500
25,250167	0,5	-0,333950
25,258500	0,5	-0,328100
25,266833	0,5	-0,323700
25,275167	0,5	-0,322350
25,283500	0,5	-0,318300
25,291833	0,5	-0,313700
25,300167	0,5	-0,306800
25,308500	0,5	-0,304200
25,316833	0,5	-0,303550
25,325167	0,5	-0,303750
25,333500	0,5	-0,301900
25,341833	0,5	-0,299000
25,350167	0,5	-0,297050
25,358500	0,5	-0,292800
25,366833	0,5	-0,292350
25,375167	0,5	-0,293150
25,383500	0,5	-0,288850
25,391833	0,5	-0,286100
25,400167	0,5	-0,283200
25,408500	0,5	-0,283200
25,416833	0,5	-0,279000
25,425167	0,5	-0,274450
25,433500	0,5	-0,273800
25,441833	0,5	-0,271700
25,450167	0,5	-0,270950
25,458500	0,5	-0,266650
25,466833	0,5	-0,263150
25,475167	0,5	-0,262000
25,483500	0,5	-0,261150
25,491833	0,5	-0,254750
25,500167	0,5	-0,251850
25,508500	0,5	-0,252450
25,516833	0,5	-0,248000
25,525167	0,5	-0,246100
25,533500	0,5	-0,244650
25,541833	0,5	-0,245100
25,550167	0,5	-0,242900
25,558500	0,5	-0,238350
25,566833	0,5	-0,235350
25,575167	0,5	-0,237150
25,583500	0,5	-0,234000
25,591833	0,5	-0,238450
25,600167	0,5	-0,235550
25,608500	0,5	-0,235150
25,616833	0,5	-0,231600
25,625167	0,5	-0,229950
25,633500	0,5	-0,229750
25,641833	0,5	-0,227250
25,650167	0,5	-0,225850
25,658500	0,5	-0,224350
25,666833	0,5	-0,220300
25,675167	0,5	-0,221300
25,683500	0,5	-0,216950
25,691833	0,5	-0,212950
25,700167	0,5	-0,210350
25,708500	0,5	-0,203500
25,716833	0,5	-0,205800
25,725167	0,5	-0,199450
25,733500	0,5	-0,202250
25,741833	0,5	-0,202700
25,750167	0,5	-0,202050
25,758500	0,5	-0,198400
25,766833	0,5	-0,191300
25,775167	0,5	-0,190650
25,783500	0,5	-0,191650
25,791833	0,5	-0,186850
25,800167	0,5	-0,184900
25,808500	0,5	-0,182800
25,816833	0,5	-0,182800
25,825167	0,5	-0,181850
25,833500	0,5	-0,179050
25,841833	0,5	-0,176550
25,850167	0,5	-0,170850
25,858500	0,5	-0,161600
25,866833	0,5	-0,162750
25,875167	0,5	-0,153600
25,883500	0,5	-0,163400
25,891833	0,5	-0,161750
25,900167	0,5	-0,159650
25,908500	0,5	-0,153900
25,916833	0,5	-0,141700
25,925167	0,5	-0,145050
25,933500	0,5	-0,142500
25,941833	0,5	-0,145150
25,950167	0,5	-0,143650
25,958500	0,5	-0,144550
25,966833	0,5	-0,142000
25,975167	0,5	-0,142100
25,983500	0,5	-0,142600
25,991833	0,5	-0,140050
26,000167	0,5	-0,138150
