File Path	chrom://chromeleon01/ikbm_chromeleon/2022/ICS-5000/ED1/Esteban/20220612_Cell_7_4_eg.seq/898.smp/ED_1.channel/ED_1.chm
Channel	ED_1

Injection Information:
Data Vault	ikbm_chromeleon
Injection	Std_C1ox-0.00125_3
Injection Number	155
Position	RA5
Comment	
Processing Method	Stop sequence after Cell Death
Instrument Method	ICS5000_PA200_FullNative_Ox_26min_ED1
Type	Unknown
Status	Finished
Injection Date	15.06.2022
Injection Time	17:28:24
Injection Volume (µl)	5,0
Dilution Factor	1,0000
Weight	1,0000

Chromatogram Data Information:
Time Min. (min)	0,000333
Time Max. (min)	26,000333
Data Points	3121
Detector	EDet1
Generating Data System	Chromeleon 7.2.9.11323
Exporting Data System	Chromeleon 7.2.9.0
Operator	Instrument Controller
Signal Quantity	
Signal Unit	nC
Signal Min.	-2,323350
Signal Max.	13,385250
Channel	ED_1
Driver Name	DC-5000
Channel Type	Evaluation
Min. Step (s)	0,5
Max. Step (s)	0,5
Average Step (s)	0,5

Signal Parameter Information:
Signal Info	

Chromatogram Data:
Time (min)	Step (s)	Value (nC)
0,000333	n.a.	-0,050550
0,008667	0,5	-0,083700
0,017000	0,5	-0,068450
0,025333	0,5	-0,055950
0,033667	0,5	-0,054950
0,042000	0,5	-0,036000
0,050333	0,5	-0,039300
0,058667	0,5	-0,054700
0,067000	0,5	-0,045250
0,075333	0,5	-0,030000
0,083667	0,5	0,009750
0,092000	0,5	0,012700
0,100333	0,5	0,004800
0,108667	0,5	-0,002400
0,117000	0,5	0,005500
0,125333	0,5	0,005200
0,133667	0,5	0,001200
0,142000	0,5	0,001550
0,150333	0,5	-0,013300
0,158667	0,5	-0,008350
0,167000	0,5	-0,016050
0,175333	0,5	-0,028450
0,183667	0,5	-0,038350
0,192000	0,5	-0,013500
0,200333	0,5	-0,036350
0,208667	0,5	-0,041050
0,217000	0,5	-0,040400
0,225333	0,5	-0,015100
0,233667	0,5	0,005000
0,242000	0,5	0,014050
0,250333	0,5	-0,001000
0,258667	0,5	0,006850
0,267000	0,5	-0,000200
0,275333	0,5	-0,002900
0,283667	0,5	-0,008300
0,292000	0,5	-0,014000
0,300333	0,5	-0,009950
0,308667	0,5	-0,007400
0,317000	0,5	-0,014250
0,325333	0,5	-0,039100
0,333667	0,5	-0,036850
0,342000	0,5	-0,027150
0,350333	0,5	-0,045200
0,358667	0,5	-0,041950
0,367000	0,5	-0,033850
0,375333	0,5	-0,011350
0,383667	0,5	0,016600
0,392000	0,5	0,011300
0,400333	0,5	0,013500
0,408667	0,5	0,000050
0,417000	0,5	0,010200
0,425333	0,5	-0,002050
0,433667	0,5	0,006600
0,442000	0,5	-0,003600
0,450333	0,5	0,007000
0,458667	0,5	0,002300
0,467000	0,5	-0,017150
0,475333	0,5	-0,027250
0,483667	0,5	-0,000350
0,492000	0,5	-0,005050
0,500333	0,5	-0,014400
0,508667	0,5	-0,009700
0,517000	0,5	-0,007750
0,525333	0,5	0,033250
0,533667	0,5	0,034900
0,542000	0,5	0,048100
0,550333	0,5	0,039600
0,558667	0,5	0,045050
0,567000	0,5	0,043350
0,575333	0,5	0,046700
0,583667	0,5	0,036200
0,592000	0,5	0,040650
0,600333	0,5	0,038300
0,608667	0,5	0,045050
0,617000	0,5	0,027400
0,625333	0,5	0,027200
0,633667	0,5	0,052950
0,642000	0,5	0,043300
0,650333	0,5	0,035700
0,658667	0,5	0,042800
0,667000	0,5	0,055650
0,675333	0,5	0,092400
0,683667	0,5	0,097150
0,692000	0,5	0,088500
0,700333	0,5	0,097300
0,708667	0,5	0,093200
0,717000	0,5	0,094750
0,725333	0,5	0,099000
0,733667	0,5	0,105400
0,742000	0,5	0,098650
0,750333	0,5	0,113450
0,758667	0,5	0,107450
0,767000	0,5	0,102800
0,775333	0,5	0,096850
0,783667	0,5	0,132050
0,792000	0,5	0,102400
0,800333	0,5	0,106650
0,808667	0,5	0,113400
0,817000	0,5	0,136500
0,825333	0,5	0,165900
0,833667	0,5	0,151350
0,842000	0,5	0,147900
0,850333	0,5	0,162000
0,858667	0,5	0,164700
0,867000	0,5	0,165550
0,875333	0,5	0,170600
0,883667	0,5	0,160600
0,892000	0,5	0,171850
0,900333	0,5	0,165600
0,908667	0,5	0,178950
0,917000	0,5	0,157200
0,925333	0,5	0,167500
0,933667	0,5	0,187850
0,942000	0,5	0,172450
0,950333	0,5	0,169400
0,958667	0,5	0,181150
0,967000	0,5	0,197750
0,975333	0,5	0,230950
0,983667	0,5	0,218050
0,992000	0,5	0,227000
1,000333	0,5	0,221150
1,008667	0,5	0,229550
1,017000	0,5	0,220300
1,025333	0,5	0,231500
1,033667	0,5	0,227900
1,042000	0,5	0,226500
1,050333	0,5	0,235800
1,058667	0,5	0,218200
1,067000	0,5	0,210350
1,075333	0,5	0,223850
1,083667	0,5	0,225050
1,092000	0,5	0,210700
1,100333	0,5	0,218250
1,108667	0,5	0,230550
1,117000	0,5	0,266300
1,125333	0,5	0,279800
1,133667	0,5	0,282450
1,142000	0,5	0,271250
1,150333	0,5	0,278600
1,158667	0,5	0,270750
1,167000	0,5	0,279650
1,175333	0,5	0,275350
1,183667	0,5	0,273000
1,192000	0,5	0,273200
1,200333	0,5	0,266600
1,208667	0,5	0,262550
1,217000	0,5	0,265350
1,225333	0,5	0,281250
1,233667	0,5	0,270600
1,242000	0,5	0,263850
1,250333	0,5	0,265300
1,258667	0,5	0,284800
1,267000	0,5	0,312000
1,275333	0,5	0,326350
1,283667	0,5	0,309600
1,292000	0,5	0,319300
1,300333	0,5	0,313000
1,308667	0,5	0,320150
1,317000	0,5	0,312850
1,325333	0,5	0,312100
1,333667	0,5	0,309750
1,342000	0,5	0,314900
1,350333	0,5	0,314850
1,358667	0,5	0,303350
1,367000	0,5	0,310450
1,375333	0,5	0,326400
1,383667	0,5	0,304800
1,392000	0,5	0,304500
1,400333	0,5	0,309400
1,408667	0,5	0,334150
1,417000	0,5	0,359100
1,425333	0,5	0,355550
1,433667	0,5	0,359150
1,442000	0,5	0,350800
1,450333	0,5	0,356100
1,458667	0,5	0,351900
1,467000	0,5	0,358300
1,475333	0,5	0,349550
1,483667	0,5	0,353850
1,492000	0,5	0,349450
1,500333	0,5	0,344250
1,508667	0,5	0,330800
1,517000	0,5	0,354650
1,525333	0,5	0,346800
1,533667	0,5	0,334850
1,542000	0,5	0,332550
1,550333	0,5	0,333000
1,558667	0,5	0,329700
1,567000	0,5	0,190450
1,575333	0,5	-0,225800
1,583667	0,5	-0,941500
1,592000	0,5	-1,563950
1,600333	0,5	-1,490600
1,608667	0,5	-0,292050
1,617000	0,5	2,352100
1,625333	0,5	6,440550
1,633667	0,5	10,774000
1,642000	0,5	13,385250
1,650333	0,5	13,339000
1,658667	0,5	11,452350
1,667000	0,5	9,126550
1,675333	0,5	7,167200
1,683667	0,5	5,840000
1,692000	0,5	5,065100
1,700333	0,5	4,643400
1,708667	0,5	4,475750
1,717000	0,5	4,380350
1,725333	0,5	4,295500
1,733667	0,5	4,167500
1,742000	0,5	4,020850
1,750333	0,5	3,870300
1,758667	0,5	3,731650
1,767000	0,5	3,580650
1,775333	0,5	3,453000
1,783667	0,5	3,447250
1,792000	0,5	3,637650
1,800333	0,5	4,015450
1,808667	0,5	4,436100
1,817000	0,5	4,797700
1,825333	0,5	4,929050
1,833667	0,5	4,927900
1,842000	0,5	4,808500
1,850333	0,5	4,629600
1,858667	0,5	4,418750
1,867000	0,5	4,163650
1,875333	0,5	3,921100
1,883667	0,5	3,730900
1,892000	0,5	3,543750
1,900333	0,5	3,375400
1,908667	0,5	3,198850
1,917000	0,5	3,043250
1,925333	0,5	2,903000
1,933667	0,5	2,778650
1,942000	0,5	2,667600
1,950333	0,5	2,538800
1,958667	0,5	2,440350
1,967000	0,5	2,370800
1,975333	0,5	2,277750
1,983667	0,5	2,214850
1,992000	0,5	2,163150
2,000333	0,5	2,119650
2,008667	0,5	2,095800
2,017000	0,5	2,046450
2,025333	0,5	2,033400
2,033667	0,5	2,026250
2,042000	0,5	2,064400
2,050333	0,5	2,141300
2,058667	0,5	2,321200
2,067000	0,5	2,556950
2,075333	0,5	2,766750
2,083667	0,5	2,828050
2,092000	0,5	2,735000
2,100333	0,5	2,607350
2,108667	0,5	2,571800
2,117000	0,5	2,642350
2,125333	0,5	2,890150
2,133667	0,5	3,470000
2,142000	0,5	4,509150
2,150333	0,5	5,833150
2,158667	0,5	6,801600
2,167000	0,5	6,965800
2,175333	0,5	6,466350
2,183667	0,5	5,780800
2,192000	0,5	5,242700
2,200333	0,5	5,027200
2,208667	0,5	5,245200
2,217000	0,5	6,037000
2,225333	0,5	7,260200
2,233667	0,5	8,351050
2,242000	0,5	8,670250
2,250333	0,5	8,171900
2,258667	0,5	7,296800
2,267000	0,5	6,461900
2,275333	0,5	5,864000
2,283667	0,5	5,509300
2,292000	0,5	5,328700
2,300333	0,5	5,270500
2,308667	0,5	5,270350
2,317000	0,5	5,299900
2,325333	0,5	5,374950
2,333667	0,5	5,471500
2,342000	0,5	5,588100
2,350333	0,5	5,686500
2,358667	0,5	5,774900
2,367000	0,5	5,840400
2,375333	0,5	5,909500
2,383667	0,5	5,958700
2,392000	0,5	6,007000
2,400333	0,5	6,056700
2,408667	0,5	6,116000
2,417000	0,5	6,146500
2,425333	0,5	6,197050
2,433667	0,5	6,246850
2,442000	0,5	6,321400
2,450333	0,5	6,378600
2,458667	0,5	6,430400
2,467000	0,5	6,471100
2,475333	0,5	6,511450
2,483667	0,5	6,544150
2,492000	0,5	6,572200
2,500333	0,5	6,602550
2,508667	0,5	6,621400
2,517000	0,5	6,642350
2,525333	0,5	6,652550
2,533667	0,5	6,663750
2,542000	0,5	6,657500
2,550333	0,5	6,686450
2,558667	0,5	6,675250
2,567000	0,5	6,657750
2,575333	0,5	6,640000
2,583667	0,5	6,632250
2,592000	0,5	6,634650
2,600333	0,5	6,619900
2,608667	0,5	6,586650
2,617000	0,5	6,563600
2,625333	0,5	6,523150
2,633667	0,5	6,496500
2,642000	0,5	6,450300
2,650333	0,5	6,411300
2,658667	0,5	6,357750
2,667000	0,5	6,305500
2,675333	0,5	6,252100
2,683667	0,5	6,182100
2,692000	0,5	6,110250
2,700333	0,5	6,066750
2,708667	0,5	5,987550
2,717000	0,5	5,906050
2,725333	0,5	5,834700
2,733667	0,5	5,762000
2,742000	0,5	5,718400
2,750333	0,5	5,631350
2,758667	0,5	5,553000
2,767000	0,5	5,462000
2,775333	0,5	5,382050
2,783667	0,5	5,291750
2,792000	0,5	5,213250
2,800333	0,5	5,122250
2,808667	0,5	5,037500
2,817000	0,5	4,951550
2,825333	0,5	4,866600
2,833667	0,5	4,777700
2,842000	0,5	4,697000
2,850333	0,5	4,638550
2,858667	0,5	4,547800
2,867000	0,5	4,494800
2,875333	0,5	4,467500
2,883667	0,5	4,464750
2,892000	0,5	4,482650
2,900333	0,5	4,449450
2,908667	0,5	4,379500
2,917000	0,5	4,287850
2,925333	0,5	4,160700
2,933667	0,5	4,040700
2,942000	0,5	3,936350
2,950333	0,5	3,888400
2,958667	0,5	3,888550
2,967000	0,5	3,970450
2,975333	0,5	4,102350
2,983667	0,5	4,233600
2,992000	0,5	4,299250
3,000333	0,5	4,266500
3,008667	0,5	4,067050
3,017000	0,5	3,808850
3,025333	0,5	3,520300
3,033667	0,5	3,270150
3,042000	0,5	3,068400
3,050333	0,5	2,880550
3,058667	0,5	2,746950
3,067000	0,5	2,644400
3,075333	0,5	2,568250
3,083667	0,5	2,494800
3,092000	0,5	2,433750
3,100333	0,5	2,360000
3,108667	0,5	2,298850
3,117000	0,5	2,221800
3,125333	0,5	2,150050
3,133667	0,5	2,064400
3,142000	0,5	2,003950
3,150333	0,5	1,925050
3,158667	0,5	1,851550
3,167000	0,5	1,790900
3,175333	0,5	1,741650
3,183667	0,5	1,707450
3,192000	0,5	1,670150
3,200333	0,5	1,615450
3,208667	0,5	1,562600
3,217000	0,5	1,509850
3,225333	0,5	1,467300
3,233667	0,5	1,422900
3,242000	0,5	1,375600
3,250333	0,5	1,331600
3,258667	0,5	1,283800
3,267000	0,5	1,248550
3,275333	0,5	1,193650
3,283667	0,5	1,159100
3,292000	0,5	1,130750
3,300333	0,5	1,086850
3,308667	0,5	1,041900
3,317000	0,5	1,016150
3,325333	0,5	0,997000
3,333667	0,5	0,995500
3,342000	0,5	0,975500
3,350333	0,5	0,960100
3,358667	0,5	0,944400
3,367000	0,5	0,942750
3,375333	0,5	0,936100
3,383667	0,5	0,942350
3,392000	0,5	0,959900
3,400333	0,5	1,001250
3,408667	0,5	1,090700
3,417000	0,5	1,232400
3,425333	0,5	1,447800
3,433667	0,5	1,755150
3,442000	0,5	2,083300
3,450333	0,5	2,358200
3,458667	0,5	2,516500
3,467000	0,5	2,513050
3,475333	0,5	2,367350
3,483667	0,5	2,094150
3,492000	0,5	1,775700
3,500333	0,5	1,457450
3,508667	0,5	1,203500
3,517000	0,5	0,994400
3,525333	0,5	0,848650
3,533667	0,5	0,738150
3,542000	0,5	0,657050
3,550333	0,5	0,595550
3,558667	0,5	0,549400
3,567000	0,5	0,517250
3,575333	0,5	0,471800
3,583667	0,5	0,462000
3,592000	0,5	0,436850
3,600333	0,5	0,407650
3,608667	0,5	0,394250
3,617000	0,5	0,385250
3,625333	0,5	0,394900
3,633667	0,5	0,392200
3,642000	0,5	0,368350
3,650333	0,5	0,370250
3,658667	0,5	0,359200
3,667000	0,5	0,356850
3,675333	0,5	0,342250
3,683667	0,5	0,340850
3,692000	0,5	0,321900
3,700333	0,5	0,319950
3,708667	0,5	0,311800
3,717000	0,5	0,305750
3,725333	0,5	0,284600
3,733667	0,5	0,299000
3,742000	0,5	0,269100
3,750333	0,5	0,253700
3,758667	0,5	0,245300
3,767000	0,5	0,240850
3,775333	0,5	0,260800
3,783667	0,5	0,245550
3,792000	0,5	0,238100
3,800333	0,5	0,233500
3,808667	0,5	0,234150
3,817000	0,5	0,226500
3,825333	0,5	0,218300
3,833667	0,5	0,211500
3,842000	0,5	0,211650
3,850333	0,5	0,204200
3,858667	0,5	0,201550
3,867000	0,5	0,190400
3,875333	0,5	0,189000
3,883667	0,5	0,198500
3,892000	0,5	0,181150
3,900333	0,5	0,173200
3,908667	0,5	0,171100
3,917000	0,5	0,176850
3,925333	0,5	0,195500
3,933667	0,5	0,178500
3,942000	0,5	0,168700
3,950333	0,5	0,162700
3,958667	0,5	0,157700
3,967000	0,5	0,154800
3,975333	0,5	0,146400
3,983667	0,5	0,144050
3,992000	0,5	0,136700
4,000333	0,5	0,139500
4,008667	0,5	0,136250
4,017000	0,5	0,135450
4,025333	0,5	0,128200
4,033667	0,5	0,141750
4,042000	0,5	0,119550
4,050333	0,5	0,124700
4,058667	0,5	0,123650
4,067000	0,5	0,144400
4,075333	0,5	0,172950
4,083667	0,5	0,184550
4,092000	0,5	0,187250
4,100333	0,5	0,202500
4,108667	0,5	0,213100
4,117000	0,5	0,221100
4,125333	0,5	0,224800
4,133667	0,5	0,219850
4,142000	0,5	0,213650
4,150333	0,5	0,197800
4,158667	0,5	0,186600
4,167000	0,5	0,162000
4,175333	0,5	0,161700
4,183667	0,5	0,148850
4,192000	0,5	0,128600
4,200333	0,5	0,123900
4,208667	0,5	0,129150
4,217000	0,5	0,140950
4,225333	0,5	0,153750
4,233667	0,5	0,146700
4,242000	0,5	0,145200
4,250333	0,5	0,133650
4,258667	0,5	0,138250
4,267000	0,5	0,127300
4,275333	0,5	0,129950
4,283667	0,5	0,125800
4,292000	0,5	0,124200
4,300333	0,5	0,122500
4,308667	0,5	0,101200
4,317000	0,5	0,097100
4,325333	0,5	0,114800
4,333667	0,5	0,105150
4,342000	0,5	0,095700
4,350333	0,5	0,101800
4,358667	0,5	0,111000
4,367000	0,5	0,133850
4,375333	0,5	0,131800
4,383667	0,5	0,134450
4,392000	0,5	0,128700
4,400333	0,5	0,134700
4,408667	0,5	0,126900
4,417000	0,5	0,133500
4,425333	0,5	0,124700
4,433667	0,5	0,126150
4,442000	0,5	0,128950
4,450333	0,5	0,128150
4,458667	0,5	0,114850
4,467000	0,5	0,128650
4,475333	0,5	0,130850
4,483667	0,5	0,116750
4,492000	0,5	0,110200
4,500333	0,5	0,115100
4,508667	0,5	0,130900
4,517000	0,5	0,141600
4,525333	0,5	0,145950
4,533667	0,5	0,138700
4,542000	0,5	0,145100
4,550333	0,5	0,137750
4,558667	0,5	0,144500
4,567000	0,5	0,145850
4,575333	0,5	0,149050
4,583667	0,5	0,145750
4,592000	0,5	0,147450
4,600333	0,5	0,150800
4,608667	0,5	0,145600
4,617000	0,5	0,161300
4,625333	0,5	0,166000
4,633667	0,5	0,160150
4,642000	0,5	0,166100
4,650333	0,5	0,180500
4,658667	0,5	0,213950
4,667000	0,5	0,230950
4,675333	0,5	0,234950
4,683667	0,5	0,256000
4,692000	0,5	0,278850
4,700333	0,5	0,303800
4,708667	0,5	0,324450
4,717000	0,5	0,357300
4,725333	0,5	0,376750
4,733667	0,5	0,414200
4,742000	0,5	0,445050
4,750333	0,5	0,478150
4,758667	0,5	0,493650
4,767000	0,5	0,542850
4,775333	0,5	0,542150
4,783667	0,5	0,543300
4,792000	0,5	0,531800
4,800333	0,5	0,525550
4,808667	0,5	0,525200
4,817000	0,5	0,497300
4,825333	0,5	0,461350
4,833667	0,5	0,436650
4,842000	0,5	0,410250
4,850333	0,5	0,393700
4,858667	0,5	0,375250
4,867000	0,5	0,365450
4,875333	0,5	0,359800
4,883667	0,5	0,359500
4,892000	0,5	0,368300
4,900333	0,5	0,359050
4,908667	0,5	0,367750
4,917000	0,5	0,391600
4,925333	0,5	0,395300
4,933667	0,5	0,414400
4,942000	0,5	0,445200
4,950333	0,5	0,487500
4,958667	0,5	0,556950
4,967000	0,5	0,596900
4,975333	0,5	0,649950
4,983667	0,5	0,703150
4,992000	0,5	0,763000
5,000333	0,5	0,809550
5,008667	0,5	0,852600
5,017000	0,5	0,877600
5,025333	0,5	0,884000
5,033667	0,5	0,877200
5,042000	0,5	0,845450
5,050333	0,5	0,799300
5,058667	0,5	0,750500
5,067000	0,5	0,704450
5,075333	0,5	0,627300
5,083667	0,5	0,571600
5,092000	0,5	0,520400
5,100333	0,5	0,495350
5,108667	0,5	0,470550
5,117000	0,5	0,444850
5,125333	0,5	0,415550
5,133667	0,5	0,408100
5,142000	0,5	0,391550
5,150333	0,5	0,386900
5,158667	0,5	0,377400
5,167000	0,5	0,374100
5,175333	0,5	0,367950
5,183667	0,5	0,369000
5,192000	0,5	0,364800
5,200333	0,5	0,362150
5,208667	0,5	0,369700
5,217000	0,5	0,370800
5,225333	0,5	0,357250
5,233667	0,5	0,362550
5,242000	0,5	0,369500
5,250333	0,5	0,391750
5,258667	0,5	0,410050
5,267000	0,5	0,402350
5,275333	0,5	0,408050
5,283667	0,5	0,401400
5,292000	0,5	0,408400
5,300333	0,5	0,402800
5,308667	0,5	0,406300
5,317000	0,5	0,400850
5,325333	0,5	0,406900
5,333667	0,5	0,405850
5,342000	0,5	0,397200
5,350333	0,5	0,393350
5,358667	0,5	0,416250
5,367000	0,5	0,406950
5,375333	0,5	0,403300
5,383667	0,5	0,409000
5,392000	0,5	0,422700
5,400333	0,5	0,443850
5,408667	0,5	0,449450
5,417000	0,5	0,454150
5,425333	0,5	0,456750
5,433667	0,5	0,465700
5,442000	0,5	0,466000
5,450333	0,5	0,473100
5,458667	0,5	0,470150
5,467000	0,5	0,475750
5,475333	0,5	0,478150
5,483667	0,5	0,484750
5,492000	0,5	0,479050
5,500333	0,5	0,498800
5,508667	0,5	0,505100
5,517000	0,5	0,500050
5,525333	0,5	0,496550
5,533667	0,5	0,510700
5,542000	0,5	0,525550
5,550333	0,5	0,547200
5,558667	0,5	0,550300
5,567000	0,5	0,558600
5,575333	0,5	0,564350
5,583667	0,5	0,571650
5,592000	0,5	0,578500
5,600333	0,5	0,586450
5,608667	0,5	0,600250
5,617000	0,5	0,613050
5,625333	0,5	0,637200
5,633667	0,5	0,662700
5,642000	0,5	0,683900
5,650333	0,5	0,730800
5,658667	0,5	0,776500
5,667000	0,5	0,818600
5,675333	0,5	0,881500
5,683667	0,5	0,950000
5,692000	0,5	1,042450
5,700333	0,5	1,113400
5,708667	0,5	1,171750
5,717000	0,5	1,214450
5,725333	0,5	1,247250
5,733667	0,5	1,254450
5,742000	0,5	1,238500
5,750333	0,5	1,202850
5,758667	0,5	1,149350
5,767000	0,5	1,092100
5,775333	0,5	1,025650
5,783667	0,5	0,969800
5,792000	0,5	0,897550
5,800333	0,5	0,861450
5,808667	0,5	0,806650
5,817000	0,5	0,766350
5,825333	0,5	0,733900
5,833667	0,5	0,718100
5,842000	0,5	0,712400
5,850333	0,5	0,705300
5,858667	0,5	0,689950
5,867000	0,5	0,689450
5,875333	0,5	0,682600
5,883667	0,5	0,679550
5,892000	0,5	0,673150
5,900333	0,5	0,676650
5,908667	0,5	0,671950
5,917000	0,5	0,671650
5,925333	0,5	0,674850
5,933667	0,5	0,669450
5,942000	0,5	0,665200
5,950333	0,5	0,678850
5,958667	0,5	0,668250
5,967000	0,5	0,669250
5,975333	0,5	0,673850
5,983667	0,5	0,686050
5,992000	0,5	0,714450
6,000333	0,5	0,710900
6,008667	0,5	0,713250
6,017000	0,5	0,712900
6,025333	0,5	0,715650
6,033667	0,5	0,712750
6,042000	0,5	0,717950
6,050333	0,5	0,715200
6,058667	0,5	0,721150
6,067000	0,5	0,720500
6,075333	0,5	0,718900
6,083667	0,5	0,708050
6,092000	0,5	0,715300
6,100333	0,5	0,723400
6,108667	0,5	0,717600
6,117000	0,5	0,721150
6,125333	0,5	0,726250
6,133667	0,5	0,743150
6,142000	0,5	0,761750
6,150333	0,5	0,771900
6,158667	0,5	0,768850
6,167000	0,5	0,773600
6,175333	0,5	0,776100
6,183667	0,5	0,780950
6,192000	0,5	0,780400
6,200333	0,5	0,784500
6,208667	0,5	0,783000
6,217000	0,5	0,788900
6,225333	0,5	0,779600
6,233667	0,5	0,782900
6,242000	0,5	0,788650
6,250333	0,5	0,788900
6,258667	0,5	0,779850
6,267000	0,5	0,779500
6,275333	0,5	0,782400
6,283667	0,5	0,804850
6,292000	0,5	0,816750
6,300333	0,5	0,818950
6,308667	0,5	0,820050
6,317000	0,5	0,822550
6,325333	0,5	0,822350
6,333667	0,5	0,821800
6,342000	0,5	0,822500
6,350333	0,5	0,823600
6,358667	0,5	0,829400
6,367000	0,5	0,824750
6,375333	0,5	0,826200
6,383667	0,5	0,825400
6,392000	0,5	0,841700
6,400333	0,5	0,831300
6,408667	0,5	0,831250
6,417000	0,5	0,834100
6,425333	0,5	0,845150
6,433667	0,5	0,863850
6,442000	0,5	0,864500
6,450333	0,5	0,863450
6,458667	0,5	0,868900
6,467000	0,5	0,872800
6,475333	0,5	0,878050
6,483667	0,5	0,877700
6,492000	0,5	0,879700
6,500333	0,5	0,879700
6,508667	0,5	0,880700
6,517000	0,5	0,884800
6,525333	0,5	0,875000
6,533667	0,5	0,878650
6,542000	0,5	0,888750
6,550333	0,5	0,883150
6,558667	0,5	0,881350
6,567000	0,5	0,887500
6,575333	0,5	0,897850
6,583667	0,5	0,915800
6,592000	0,5	0,910650
6,600333	0,5	0,920850
6,608667	0,5	0,921050
6,617000	0,5	0,928500
6,625333	0,5	0,927650
6,633667	0,5	0,932950
6,642000	0,5	0,930900
6,650333	0,5	0,932600
6,658667	0,5	0,936350
6,667000	0,5	0,936800
6,675333	0,5	0,931700
6,683667	0,5	0,940200
6,692000	0,5	0,941650
6,700333	0,5	0,934550
6,708667	0,5	0,933400
6,717000	0,5	0,938250
6,725333	0,5	0,955000
6,733667	0,5	0,960050
6,742000	0,5	0,962050
6,750333	0,5	0,954350
6,758667	0,5	0,961450
6,767000	0,5	0,957850
6,775333	0,5	0,960200
6,783667	0,5	0,958850
6,792000	0,5	0,957850
6,800333	0,5	0,954250
6,808667	0,5	0,954700
6,817000	0,5	0,960650
6,825333	0,5	0,953200
6,833667	0,5	0,959750
6,842000	0,5	0,955750
6,850333	0,5	0,947300
6,858667	0,5	0,945250
6,867000	0,5	0,947200
6,875333	0,5	0,956750
6,883667	0,5	0,965650
6,892000	0,5	0,957100
6,900333	0,5	0,959750
6,908667	0,5	0,956450
6,917000	0,5	0,955800
6,925333	0,5	0,949500
6,933667	0,5	0,948050
6,942000	0,5	0,944000
6,950333	0,5	0,945800
6,958667	0,5	0,945200
6,967000	0,5	0,944550
6,975333	0,5	0,935900
6,983667	0,5	0,945100
6,992000	0,5	0,935350
7,000333	0,5	0,931000
7,008667	0,5	0,927050
7,017000	0,5	0,932950
7,025333	0,5	0,943300
7,033667	0,5	0,940000
7,042000	0,5	0,939700
7,050333	0,5	0,941700
7,058667	0,5	0,941900
7,067000	0,5	0,941050
7,075333	0,5	0,944200
7,083667	0,5	0,939000
7,092000	0,5	0,938500
7,100333	0,5	0,935700
7,108667	0,5	0,933200
7,117000	0,5	0,924450
7,125333	0,5	0,921300
7,133667	0,5	0,922550
7,142000	0,5	0,915250
7,150333	0,5	0,912800
7,158667	0,5	0,912500
7,167000	0,5	0,919150
7,175333	0,5	0,929250
7,183667	0,5	0,935450
7,192000	0,5	0,935950
7,200333	0,5	0,938800
7,208667	0,5	0,944000
7,217000	0,5	0,950450
7,225333	0,5	0,958200
7,233667	0,5	0,959900
7,242000	0,5	0,957550
7,250333	0,5	0,955050
7,258667	0,5	0,943900
7,267000	0,5	0,933000
7,275333	0,5	0,923350
7,283667	0,5	0,907950
7,292000	0,5	0,887650
7,300333	0,5	0,876850
7,308667	0,5	0,866650
7,317000	0,5	0,873550
7,325333	0,5	0,877800
7,333667	0,5	0,881750
7,342000	0,5	0,878450
7,350333	0,5	0,878250
7,358667	0,5	0,869150
7,367000	0,5	0,859300
7,375333	0,5	0,846400
7,383667	0,5	0,837350
7,392000	0,5	0,825750
7,400333	0,5	0,818000
7,408667	0,5	0,810750
7,417000	0,5	0,801050
7,425333	0,5	0,805350
7,433667	0,5	0,801500
7,442000	0,5	0,799200
7,450333	0,5	0,801800
7,458667	0,5	0,807550
7,467000	0,5	0,819950
7,475333	0,5	0,827350
7,483667	0,5	0,826600
7,492000	0,5	0,832200
7,500333	0,5	0,826250
7,508667	0,5	0,829100
7,517000	0,5	0,818800
7,525333	0,5	0,814150
7,533667	0,5	0,803800
7,542000	0,5	0,796250
7,550333	0,5	0,786200
7,558667	0,5	0,770200
7,567000	0,5	0,757600
7,575333	0,5	0,759000
7,583667	0,5	0,746800
7,592000	0,5	0,741250
7,600333	0,5	0,737450
7,608667	0,5	0,737650
7,617000	0,5	0,743650
7,625333	0,5	0,738750
7,633667	0,5	0,737350
7,642000	0,5	0,733350
7,650333	0,5	0,729950
7,658667	0,5	0,726150
7,667000	0,5	0,725750
7,675333	0,5	0,729450
7,683667	0,5	0,743000
7,692000	0,5	0,767050
7,700333	0,5	0,806900
7,708667	0,5	0,849450
7,717000	0,5	0,910100
7,725333	0,5	0,978550
7,733667	0,5	1,042700
7,742000	0,5	1,110650
7,750333	0,5	1,200550
7,758667	0,5	1,333300
7,767000	0,5	1,552850
7,775333	0,5	1,953250
7,783667	0,5	2,664450
7,792000	0,5	3,812350
7,800333	0,5	5,370350
7,808667	0,5	7,057900
7,817000	0,5	8,365100
7,825333	0,5	8,811250
7,833667	0,5	8,257850
7,842000	0,5	6,953050
7,850333	0,5	5,357900
7,858667	0,5	3,885150
7,867000	0,5	2,756700
7,875333	0,5	1,992050
7,883667	0,5	1,511150
7,892000	0,5	1,225850
7,900333	0,5	1,060500
7,908667	0,5	0,967600
7,917000	0,5	0,911250
7,925333	0,5	0,871300
7,933667	0,5	0,839600
7,942000	0,5	0,814350
7,950333	0,5	0,791400
7,958667	0,5	0,775500
7,967000	0,5	0,763550
7,975333	0,5	0,749550
7,983667	0,5	0,742500
7,992000	0,5	0,735400
8,000333	0,5	0,730350
8,008667	0,5	0,730550
8,017000	0,5	0,730100
8,025333	0,5	0,722450
8,033667	0,5	0,713700
8,042000	0,5	0,705750
8,050333	0,5	0,700200
8,058667	0,5	0,700800
8,067000	0,5	0,696000
8,075333	0,5	0,693200
8,083667	0,5	0,687900
8,092000	0,5	0,681800
8,100333	0,5	0,677200
8,108667	0,5	0,671700
8,117000	0,5	0,670400
8,125333	0,5	0,669650
8,133667	0,5	0,668300
8,142000	0,5	0,669350
8,150333	0,5	0,665450
8,158667	0,5	0,663400
8,167000	0,5	0,665150
8,175333	0,5	0,661550
8,183667	0,5	0,662600
8,192000	0,5	0,660700
8,200333	0,5	0,665300
8,208667	0,5	0,673750
8,217000	0,5	0,673200
8,225333	0,5	0,672600
8,233667	0,5	0,669950
8,242000	0,5	0,670450
8,250333	0,5	0,667800
8,258667	0,5	0,665250
8,267000	0,5	0,656250
8,275333	0,5	0,651000
8,283667	0,5	0,646850
8,292000	0,5	0,642800
8,300333	0,5	0,639900
8,308667	0,5	0,639900
8,317000	0,5	0,631200
8,325333	0,5	0,627550
8,333667	0,5	0,624400
8,342000	0,5	0,623750
8,350333	0,5	0,626650
8,358667	0,5	0,626750
8,367000	0,5	0,627900
8,375333	0,5	0,628750
8,383667	0,5	0,629750
8,392000	0,5	0,630000
8,400333	0,5	0,628850
8,408667	0,5	0,634250
8,417000	0,5	0,641300
8,425333	0,5	0,658150
8,433667	0,5	0,697300
8,442000	0,5	0,759700
8,450333	0,5	0,854950
8,458667	0,5	0,970450
8,467000	0,5	1,079450
8,475333	0,5	1,178550
8,483667	0,5	1,259600
8,492000	0,5	1,355400
8,500333	0,5	1,497700
8,508667	0,5	1,748000
8,517000	0,5	2,249850
8,525333	0,5	3,239300
8,533667	0,5	4,957550
8,542000	0,5	7,379000
8,550333	0,5	9,914900
8,558667	0,5	11,618150
8,567000	0,5	11,735450
8,575333	0,5	10,296350
8,583667	0,5	7,989500
8,592000	0,5	5,662250
8,600333	0,5	3,831500
8,608667	0,5	2,621800
8,617000	0,5	1,896500
8,625333	0,5	1,489050
8,633667	0,5	1,265400
8,642000	0,5	1,138600
8,650333	0,5	1,068700
8,658667	0,5	1,024250
8,667000	0,5	0,994650
8,675333	0,5	0,986700
8,683667	0,5	0,991900
8,692000	0,5	1,007950
8,700333	0,5	1,038450
8,708667	0,5	1,058850
8,717000	0,5	1,053450
8,725333	0,5	1,020650
8,733667	0,5	0,965850
8,742000	0,5	0,914650
8,750333	0,5	0,871500
8,758667	0,5	0,843750
8,767000	0,5	0,822600
8,775333	0,5	0,803900
8,783667	0,5	0,794700
8,792000	0,5	0,790250
8,800333	0,5	0,788850
8,808667	0,5	0,787400
8,817000	0,5	0,788300
8,825333	0,5	0,789250
8,833667	0,5	0,791450
8,842000	0,5	0,790900
8,850333	0,5	0,794900
8,858667	0,5	0,798400
8,867000	0,5	0,796750
8,875333	0,5	0,801750
8,883667	0,5	0,802200
8,892000	0,5	0,804850
8,900333	0,5	0,810200
8,908667	0,5	0,814550
8,917000	0,5	0,814350
8,925333	0,5	0,818400
8,933667	0,5	0,822900
8,942000	0,5	0,827400
8,950333	0,5	0,836650
8,958667	0,5	0,844000
8,967000	0,5	0,851500
8,975333	0,5	0,860800
8,983667	0,5	0,873850
8,992000	0,5	0,882050
9,000333	0,5	0,893200
9,008667	0,5	0,906150
9,017000	0,5	0,916250
9,025333	0,5	0,933300
9,033667	0,5	0,948900
9,042000	0,5	0,967200
9,050333	0,5	0,983000
9,058667	0,5	1,002300
9,067000	0,5	1,018400
9,075333	0,5	1,033250
9,083667	0,5	1,047700
9,092000	0,5	1,068100
9,100333	0,5	1,087300
9,108667	0,5	1,104750
9,117000	0,5	1,120700
9,125333	0,5	1,133750
9,133667	0,5	1,148250
9,142000	0,5	1,164950
9,150333	0,5	1,175500
9,158667	0,5	1,187350
9,167000	0,5	1,201450
9,175333	0,5	1,212700
9,183667	0,5	1,223200
9,192000	0,5	1,231900
9,200333	0,5	1,247400
9,208667	0,5	1,258300
9,217000	0,5	1,266450
9,225333	0,5	1,276800
9,233667	0,5	1,285550
9,242000	0,5	1,296100
9,250333	0,5	1,302250
9,258667	0,5	1,312050
9,267000	0,5	1,318850
9,275333	0,5	1,323900
9,283667	0,5	1,328400
9,292000	0,5	1,335250
9,300333	0,5	1,343100
9,308667	0,5	1,350700
9,317000	0,5	1,355700
9,325333	0,5	1,360300
9,333667	0,5	1,363500
9,342000	0,5	1,368400
9,350333	0,5	1,375900
9,358667	0,5	1,377950
9,367000	0,5	1,383600
9,375333	0,5	1,391650
9,383667	0,5	1,393700
9,392000	0,5	1,402700
9,400333	0,5	1,406150
9,408667	0,5	1,416650
9,417000	0,5	1,422100
9,425333	0,5	1,427450
9,433667	0,5	1,432500
9,442000	0,5	1,438750
9,450333	0,5	1,444050
9,458667	0,5	1,446450
9,467000	0,5	1,454000
9,475333	0,5	1,454650
9,483667	0,5	1,458650
9,492000	0,5	1,461300
9,500333	0,5	1,471050
9,508667	0,5	1,472850
9,517000	0,5	1,476050
9,525333	0,5	1,479600
9,533667	0,5	1,487000
9,542000	0,5	1,493200
9,550333	0,5	1,496800
9,558667	0,5	1,499050
9,567000	0,5	1,506600
9,575333	0,5	1,508850
9,583667	0,5	1,516700
9,592000	0,5	1,518500
9,600333	0,5	1,523900
9,608667	0,5	1,528200
9,617000	0,5	1,532050
9,625333	0,5	1,536800
9,633667	0,5	1,538200
9,642000	0,5	1,543500
9,650333	0,5	1,549850
9,658667	0,5	1,552950
9,667000	0,5	1,553500
9,675333	0,5	1,558250
9,683667	0,5	1,563300
9,692000	0,5	1,572100
9,700333	0,5	1,577150
9,708667	0,5	1,584150
9,717000	0,5	1,588450
9,725333	0,5	1,592150
9,733667	0,5	1,595100
9,742000	0,5	1,600800
9,750333	0,5	1,598950
9,758667	0,5	1,602400
9,767000	0,5	1,599050
9,775333	0,5	1,604050
9,783667	0,5	1,602550
9,792000	0,5	1,605800
9,800333	0,5	1,608150
9,808667	0,5	1,607500
9,817000	0,5	1,608550
9,825333	0,5	1,612050
9,833667	0,5	1,616050
9,842000	0,5	1,621000
9,850333	0,5	1,621600
9,858667	0,5	1,626150
9,867000	0,5	1,630250
9,875333	0,5	1,632400
9,883667	0,5	1,634700
9,892000	0,5	1,635550
9,900333	0,5	1,638450
9,908667	0,5	1,637350
9,917000	0,5	1,641650
9,925333	0,5	1,639850
9,933667	0,5	1,637850
9,942000	0,5	1,641450
9,950333	0,5	1,641200
9,958667	0,5	1,640450
9,967000	0,5	1,641600
9,975333	0,5	1,642000
9,983667	0,5	1,642000
9,992000	0,5	1,645500
10,000333	0,5	1,648050
10,008667	0,5	1,648500
10,017000	0,5	1,650350
10,025333	0,5	1,651650
10,033667	0,5	1,652750
10,042000	0,5	1,649000
10,050333	0,5	1,648400
10,058667	0,5	1,650700
10,067000	0,5	1,649300
10,075333	0,5	1,648500
10,083667	0,5	1,644400
10,092000	0,5	1,645550
10,100333	0,5	1,641450
10,108667	0,5	1,639250
10,117000	0,5	1,637550
10,125333	0,5	1,635750
10,133667	0,5	1,635250
10,142000	0,5	1,633800
10,150333	0,5	1,633050
10,158667	0,5	1,633700
10,167000	0,5	1,630450
10,175333	0,5	1,630150
10,183667	0,5	1,625200
10,192000	0,5	1,620950
10,200333	0,5	1,618000
10,208667	0,5	1,614750
10,217000	0,5	1,609750
10,225333	0,5	1,605300
10,233667	0,5	1,600950
10,242000	0,5	1,600850
10,250333	0,5	1,595000
10,258667	0,5	1,588100
10,267000	0,5	1,580200
10,275333	0,5	1,578450
10,283667	0,5	1,572500
10,292000	0,5	1,570050
10,300333	0,5	1,566950
10,308667	0,5	1,559150
10,317000	0,5	1,551250
10,325333	0,5	1,544650
10,333667	0,5	1,537950
10,342000	0,5	1,529950
10,350333	0,5	1,521300
10,358667	0,5	1,511450
10,367000	0,5	1,503800
10,375333	0,5	1,489900
10,383667	0,5	1,487000
10,392000	0,5	1,476350
10,400333	0,5	1,467850
10,408667	0,5	1,458600
10,417000	0,5	1,448000
10,425333	0,5	1,441150
10,433667	0,5	1,434400
10,442000	0,5	1,427850
10,450333	0,5	1,421600
10,458667	0,5	1,415500
10,467000	0,5	1,404850
10,475333	0,5	1,401200
10,483667	0,5	1,392150
10,492000	0,5	1,383300
10,500333	0,5	1,376750
10,508667	0,5	1,373000
10,517000	0,5	1,365300
10,525333	0,5	1,357750
10,533667	0,5	1,354050
10,542000	0,5	1,350250
10,550333	0,5	1,343750
10,558667	0,5	1,336850
10,567000	0,5	1,327250
10,575333	0,5	1,327550
10,583667	0,5	1,323350
10,592000	0,5	1,323150
10,600333	0,5	1,319550
10,608667	0,5	1,315700
10,617000	0,5	1,315500
10,625333	0,5	1,311050
10,633667	0,5	1,309650
10,642000	0,5	1,306500
10,650333	0,5	1,304550
10,658667	0,5	1,300850
10,667000	0,5	1,295250
10,675333	0,5	1,293000
10,683667	0,5	1,292100
10,692000	0,5	1,291250
10,700333	0,5	1,284450
10,708667	0,5	1,278550
10,717000	0,5	1,279300
10,725333	0,5	1,278650
10,733667	0,5	1,278450
10,742000	0,5	1,275000
10,750333	0,5	1,272600
10,758667	0,5	1,269950
10,767000	0,5	1,273700
10,775333	0,5	1,269250
10,783667	0,5	1,271250
10,792000	0,5	1,269350
10,800333	0,5	1,264400
10,808667	0,5	1,265550
10,817000	0,5	1,262000
10,825333	0,5	1,261800
10,833667	0,5	1,262050
10,842000	0,5	1,262000
10,850333	0,5	1,257150
10,858667	0,5	1,251750
10,867000	0,5	1,247550
10,875333	0,5	1,249650
10,883667	0,5	1,252650
10,892000	0,5	1,250400
10,900333	0,5	1,245800
10,908667	0,5	1,247750
10,917000	0,5	1,245100
10,925333	0,5	1,245450
10,933667	0,5	1,242750
10,942000	0,5	1,241150
10,950333	0,5	1,244800
10,958667	0,5	1,244100
10,967000	0,5	1,239900
10,975333	0,5	1,242750
10,983667	0,5	1,244950
10,992000	0,5	1,246350
11,000333	0,5	1,243450
11,008667	0,5	1,239300
11,017000	0,5	1,246250
11,025333	0,5	1,248600
11,033667	0,5	1,252650
11,042000	0,5	1,257100
11,050333	0,5	1,255600
11,058667	0,5	1,258450
11,067000	0,5	1,261750
11,075333	0,5	1,257250
11,083667	0,5	1,260050
11,092000	0,5	1,258950
11,100333	0,5	1,255900
11,108667	0,5	1,250950
11,117000	0,5	1,251300
11,125333	0,5	1,253000
11,133667	0,5	1,250650
11,142000	0,5	1,246750
11,150333	0,5	1,239950
11,158667	0,5	1,236150
11,167000	0,5	1,233900
11,175333	0,5	1,231750
11,183667	0,5	1,229800
11,192000	0,5	1,231200
11,200333	0,5	1,227950
11,208667	0,5	1,225900
11,217000	0,5	1,222500
11,225333	0,5	1,220250
11,233667	0,5	1,214950
11,242000	0,5	1,210300
11,250333	0,5	1,208600
11,258667	0,5	1,201800
11,267000	0,5	1,200400
11,275333	0,5	1,202650
11,283667	0,5	1,196800
11,292000	0,5	1,192600
11,300333	0,5	1,181250
11,308667	0,5	1,178200
11,317000	0,5	1,179700
11,325333	0,5	1,176800
11,333667	0,5	1,176750
11,342000	0,5	1,172600
11,350333	0,5	1,168500
11,358667	0,5	1,164600
11,367000	0,5	1,163400
11,375333	0,5	1,160600
11,383667	0,5	1,157950
11,392000	0,5	1,154250
11,400333	0,5	1,154800
11,408667	0,5	1,144950
11,417000	0,5	1,145400
11,425333	0,5	1,144200
11,433667	0,5	1,141400
11,442000	0,5	1,132750
11,450333	0,5	1,127000
11,458667	0,5	1,125800
11,467000	0,5	1,127450
11,475333	0,5	1,126350
11,483667	0,5	1,127150
11,492000	0,5	1,125500
11,500333	0,5	1,125950
11,508667	0,5	1,129100
11,517000	0,5	1,129900
11,525333	0,5	1,133950
11,533667	0,5	1,134500
11,542000	0,5	1,139950
11,550333	0,5	1,140200
11,558667	0,5	1,141200
11,567000	0,5	1,147800
11,575333	0,5	1,152200
11,583667	0,5	1,152350
11,592000	0,5	1,147600
11,600333	0,5	1,143400
11,608667	0,5	1,147950
11,617000	0,5	1,145550
11,625333	0,5	1,146650
11,633667	0,5	1,141050
11,642000	0,5	1,145250
11,650333	0,5	1,147050
11,658667	0,5	1,149000
11,667000	0,5	1,151250
11,675333	0,5	1,155000
11,683667	0,5	1,157650
11,692000	0,5	1,162950
11,700333	0,5	1,163750
11,708667	0,5	1,167550
11,717000	0,5	1,177400
11,725333	0,5	1,178200
11,733667	0,5	1,183550
11,742000	0,5	1,183650
11,750333	0,5	1,186350
11,758667	0,5	1,194650
11,767000	0,5	1,202350
11,775333	0,5	1,207700
11,783667	0,5	1,211200
11,792000	0,5	1,211050
11,800333	0,5	1,214650
11,808667	0,5	1,215400
11,817000	0,5	1,216050
11,825333	0,5	1,215200
11,833667	0,5	1,214450
11,842000	0,5	1,217750
11,850333	0,5	1,214200
11,858667	0,5	1,219750
11,867000	0,5	1,222650
11,875333	0,5	1,221250
11,883667	0,5	1,215050
11,892000	0,5	1,216850
11,900333	0,5	1,218700
11,908667	0,5	1,219200
11,917000	0,5	1,219600
11,925333	0,5	1,221250
11,933667	0,5	1,221550
11,942000	0,5	1,221100
11,950333	0,5	1,221800
11,958667	0,5	1,223400
11,967000	0,5	1,222050
11,975333	0,5	1,221450
11,983667	0,5	1,222250
11,992000	0,5	1,225400
12,000333	0,5	1,220650
12,008667	0,5	1,226950
12,017000	0,5	1,224800
12,025333	0,5	1,224100
12,033667	0,5	1,217650
12,042000	0,5	1,212500
12,050333	0,5	1,217700
12,058667	0,5	1,212300
12,067000	0,5	1,214100
12,075333	0,5	1,210150
12,083667	0,5	1,215350
12,092000	0,5	1,212750
12,100333	0,5	1,216750
12,108667	0,5	1,214350
12,117000	0,5	1,219950
12,125333	0,5	1,218700
12,133667	0,5	1,226400
12,142000	0,5	1,221600
12,150333	0,5	1,223750
12,158667	0,5	1,226300
12,167000	0,5	1,229500
12,175333	0,5	1,230100
12,183667	0,5	1,221850
12,192000	0,5	1,215750
12,200333	0,5	1,215550
12,208667	0,5	1,216050
12,217000	0,5	1,216500
12,225333	0,5	1,217200
12,233667	0,5	1,216550
12,242000	0,5	1,215550
12,250333	0,5	1,214750
12,258667	0,5	1,217200
12,267000	0,5	1,210700
12,275333	0,5	1,217400
12,283667	0,5	1,214250
12,292000	0,5	1,209150
12,300333	0,5	1,213400
12,308667	0,5	1,214400
12,317000	0,5	1,211450
12,325333	0,5	1,208600
12,333667	0,5	1,198650
12,342000	0,5	1,201000
12,350333	0,5	1,201200
12,358667	0,5	1,204500
12,367000	0,5	1,203650
12,375333	0,5	1,203300
12,383667	0,5	1,205100
12,392000	0,5	1,206750
12,400333	0,5	1,206450
12,408667	0,5	1,206900
12,417000	0,5	1,208450
12,425333	0,5	1,209800
12,433667	0,5	1,213300
12,442000	0,5	1,203500
12,450333	0,5	1,212100
12,458667	0,5	1,214950
12,467000	0,5	1,214350
12,475333	0,5	1,209500
12,483667	0,5	1,206850
12,492000	0,5	1,209700
12,500333	0,5	1,213150
12,508667	0,5	1,212100
12,517000	0,5	1,217450
12,525333	0,5	1,219650
12,533667	0,5	1,218400
12,542000	0,5	1,219950
12,550333	0,5	1,219800
12,558667	0,5	1,218650
12,567000	0,5	1,215250
12,575333	0,5	1,221200
12,583667	0,5	1,212100
12,592000	0,5	1,199900
12,600333	0,5	1,200400
12,608667	0,5	1,198050
12,617000	0,5	1,185600
12,625333	0,5	1,173650
12,633667	0,5	1,162550
12,642000	0,5	1,164850
12,650333	0,5	1,156200
12,658667	0,5	1,154800
12,667000	0,5	1,144650
12,675333	0,5	1,141200
12,683667	0,5	1,135450
12,692000	0,5	1,133650
12,700333	0,5	1,127250
12,708667	0,5	1,120700
12,717000	0,5	1,120350
12,725333	0,5	1,116600
12,733667	0,5	1,107450
12,742000	0,5	1,104100
12,750333	0,5	1,103650
12,758667	0,5	1,099300
12,767000	0,5	1,090950
12,775333	0,5	1,083550
12,783667	0,5	1,078850
12,792000	0,5	1,077200
12,800333	0,5	1,077800
12,808667	0,5	1,071100
12,817000	0,5	1,069950
12,825333	0,5	1,070150
12,833667	0,5	1,069950
12,842000	0,5	1,065700
12,850333	0,5	1,065100
12,858667	0,5	1,065350
12,867000	0,5	1,065150
12,875333	0,5	1,060650
12,883667	0,5	1,052200
12,892000	0,5	1,053150
12,900333	0,5	1,053550
12,908667	0,5	1,046150
12,917000	0,5	1,038650
12,925333	0,5	1,028800
12,933667	0,5	1,027100
12,942000	0,5	1,028050
12,950333	0,5	1,028200
12,958667	0,5	1,028150
12,967000	0,5	1,026150
12,975333	0,5	1,025700
12,983667	0,5	1,022150
12,992000	0,5	1,021550
13,000333	0,5	1,016450
13,008667	0,5	1,017800
13,017000	0,5	1,014000
13,025333	0,5	1,015450
13,033667	0,5	1,007550
13,042000	0,5	1,012650
13,050333	0,5	1,007850
13,058667	0,5	1,007050
13,067000	0,5	0,994500
13,075333	0,5	0,990000
13,083667	0,5	0,989200
13,092000	0,5	0,990250
13,100333	0,5	0,991550
13,108667	0,5	0,989550
13,117000	0,5	0,987800
13,125333	0,5	0,984450
13,133667	0,5	0,988950
13,142000	0,5	0,984400
13,150333	0,5	0,984150
13,158667	0,5	0,983800
13,167000	0,5	0,984350
13,175333	0,5	0,978250
13,183667	0,5	0,980600
13,192000	0,5	0,980950
13,200333	0,5	0,979150
13,208667	0,5	0,970600
13,217000	0,5	0,962400
13,225333	0,5	0,960200
13,233667	0,5	0,962150
13,242000	0,5	0,957500
13,250333	0,5	0,960550
13,258667	0,5	0,959400
13,267000	0,5	0,963000
13,275333	0,5	0,960400
13,283667	0,5	0,959600
13,292000	0,5	0,957000
13,300333	0,5	0,956350
13,308667	0,5	0,961000
13,317000	0,5	0,959400
13,325333	0,5	0,943800
13,333667	0,5	0,952800
13,342000	0,5	0,951450
13,350333	0,5	0,945900
13,358667	0,5	0,942100
13,367000	0,5	0,928800
13,375333	0,5	0,935300
13,383667	0,5	0,934500
13,392000	0,5	0,934350
13,400333	0,5	0,929200
13,408667	0,5	0,927350
13,417000	0,5	0,923950
13,425333	0,5	0,926350
13,433667	0,5	0,922200
13,442000	0,5	0,920350
13,450333	0,5	0,917050
13,458667	0,5	0,917050
13,467000	0,5	0,917450
13,475333	0,5	0,905400
13,483667	0,5	0,911000
13,492000	0,5	0,909200
13,500333	0,5	0,905600
13,508667	0,5	0,898650
13,517000	0,5	0,885700
13,525333	0,5	0,888350
13,533667	0,5	0,889950
13,542000	0,5	0,883450
13,550333	0,5	0,884900
13,558667	0,5	0,878100
13,567000	0,5	0,880950
13,575333	0,5	0,878050
13,583667	0,5	0,875200
13,592000	0,5	0,871350
13,600333	0,5	0,868200
13,608667	0,5	0,870650
13,617000	0,5	0,865000
13,625333	0,5	0,858500
13,633667	0,5	0,861300
13,642000	0,5	0,854250
13,650333	0,5	0,848850
13,658667	0,5	0,832450
13,667000	0,5	0,831000
13,675333	0,5	0,834650
13,683667	0,5	0,834600
13,692000	0,5	0,832400
13,700333	0,5	0,825100
13,708667	0,5	0,825850
13,717000	0,5	0,820450
13,725333	0,5	0,821850
13,733667	0,5	0,815950
13,742000	0,5	0,814300
13,750333	0,5	0,814150
13,758667	0,5	0,817700
13,767000	0,5	0,802700
13,775333	0,5	0,807650
13,783667	0,5	0,804050
13,792000	0,5	0,796200
13,800333	0,5	0,788200
13,808667	0,5	0,773200
13,817000	0,5	0,772050
13,825333	0,5	0,769900
13,833667	0,5	0,766500
13,842000	0,5	0,761800
13,850333	0,5	0,758550
13,858667	0,5	0,755700
13,867000	0,5	0,755150
13,875333	0,5	0,751450
13,883667	0,5	0,748250
13,892000	0,5	0,740900
13,900333	0,5	0,743100
13,908667	0,5	0,736650
13,917000	0,5	0,730200
13,925333	0,5	0,730150
13,933667	0,5	0,729950
13,942000	0,5	0,724850
13,950333	0,5	0,716250
13,958667	0,5	0,701450
13,967000	0,5	0,700350
13,975333	0,5	0,697200
13,983667	0,5	0,699650
13,992000	0,5	0,699300
14,000333	0,5	0,694950
14,008667	0,5	0,693650
14,017000	0,5	0,691500
14,025333	0,5	0,689000
14,033667	0,5	0,681650
14,042000	0,5	0,683000
14,050333	0,5	0,678850
14,058667	0,5	0,672400
14,067000	0,5	0,667150
14,075333	0,5	0,672200
14,083667	0,5	0,666850
14,092000	0,5	0,659950
14,100333	0,5	0,646500
14,108667	0,5	0,639300
14,117000	0,5	0,635150
14,125333	0,5	0,636700
14,133667	0,5	0,633150
14,142000	0,5	0,631400
14,150333	0,5	0,628550
14,158667	0,5	0,626100
14,167000	0,5	0,628150
14,175333	0,5	0,621050
14,183667	0,5	0,623100
14,192000	0,5	0,619000
14,200333	0,5	0,618050
14,208667	0,5	0,604950
14,217000	0,5	0,606900
14,225333	0,5	0,609100
14,233667	0,5	0,606000
14,242000	0,5	0,597500
14,250333	0,5	0,582950
14,258667	0,5	0,578600
14,267000	0,5	0,580050
14,275333	0,5	0,573600
14,283667	0,5	0,575100
14,292000	0,5	0,566350
14,300333	0,5	0,572550
14,308667	0,5	0,564800
14,317000	0,5	0,565950
14,325333	0,5	0,561400
14,333667	0,5	0,560050
14,342000	0,5	0,561700
14,350333	0,5	0,557800
14,358667	0,5	0,544750
14,367000	0,5	0,553450
14,375333	0,5	0,552150
14,383667	0,5	0,540400
14,392000	0,5	0,536300
14,400333	0,5	0,517400
14,408667	0,5	0,522250
14,417000	0,5	0,518000
14,425333	0,5	0,519050
14,433667	0,5	0,512550
14,442000	0,5	0,510900
14,450333	0,5	0,505500
14,458667	0,5	0,504350
14,467000	0,5	0,502400
14,475333	0,5	0,498800
14,483667	0,5	0,491850
14,492000	0,5	0,490400
14,500333	0,5	0,484400
14,508667	0,5	0,478150
14,517000	0,5	0,480300
14,525333	0,5	0,476650
14,533667	0,5	0,463300
14,542000	0,5	0,448200
14,550333	0,5	0,430200
14,558667	0,5	0,421200
14,567000	0,5	0,412950
14,575333	0,5	0,395550
14,583667	0,5	0,387400
14,592000	0,5	0,380200
14,600333	0,5	0,380150
14,608667	0,5	0,380900
14,617000	0,5	0,391200
14,625333	0,5	0,394950
14,633667	0,5	0,396950
14,642000	0,5	0,407550
14,650333	0,5	0,401000
14,658667	0,5	0,405350
14,667000	0,5	0,413050
14,675333	0,5	0,410050
14,683667	0,5	0,405900
14,692000	0,5	0,390950
14,700333	0,5	0,382850
14,708667	0,5	0,388650
14,717000	0,5	0,382900
14,725333	0,5	0,380550
14,733667	0,5	0,375050
14,742000	0,5	0,375600
14,750333	0,5	0,371850
14,758667	0,5	0,370350
14,767000	0,5	0,358950
14,775333	0,5	0,359900
14,783667	0,5	0,350950
14,792000	0,5	0,357050
14,800333	0,5	0,337750
14,808667	0,5	0,345800
14,817000	0,5	0,342200
14,825333	0,5	0,338850
14,833667	0,5	0,323950
14,842000	0,5	0,309850
14,850333	0,5	0,311100
14,858667	0,5	0,308050
14,867000	0,5	0,304450
14,875333	0,5	0,302350
14,883667	0,5	0,298400
14,892000	0,5	0,296700
14,900333	0,5	0,296550
14,908667	0,5	0,298900
14,917000	0,5	0,295500
14,925333	0,5	0,288100
14,933667	0,5	0,296250
14,942000	0,5	0,286300
14,950333	0,5	0,284900
14,958667	0,5	0,288550
14,967000	0,5	0,285800
14,975333	0,5	0,275250
14,983667	0,5	0,264250
14,992000	0,5	0,252800
15,000333	0,5	0,250600
15,008667	0,5	0,250100
15,017000	0,5	0,250750
15,025333	0,5	0,248750
15,033667	0,5	0,250600
15,042000	0,5	0,246200
15,050333	0,5	0,242350
15,058667	0,5	0,242850
15,067000	0,5	0,233400
15,075333	0,5	0,236750
15,083667	0,5	0,232150
15,092000	0,5	0,227050
15,100333	0,5	0,226300
15,108667	0,5	0,233150
15,117000	0,5	0,225550
15,125333	0,5	0,224200
15,133667	0,5	0,206100
15,142000	0,5	0,203600
15,150333	0,5	0,199150
15,158667	0,5	0,208550
15,167000	0,5	0,199200
15,175333	0,5	0,196250
15,183667	0,5	0,194750
15,192000	0,5	0,194050
15,200333	0,5	0,196650
15,208667	0,5	0,189400
15,217000	0,5	0,192900
15,225333	0,5	0,191000
15,233667	0,5	0,191600
15,242000	0,5	0,176800
15,250333	0,5	0,185350
15,258667	0,5	0,186900
15,267000	0,5	0,180050
15,275333	0,5	0,173750
15,283667	0,5	0,156850
15,292000	0,5	0,151450
15,300333	0,5	0,152950
15,308667	0,5	0,145550
15,317000	0,5	0,144400
15,325333	0,5	0,138300
15,333667	0,5	0,140550
15,342000	0,5	0,133900
15,350333	0,5	0,131950
15,358667	0,5	0,124650
15,367000	0,5	0,122300
15,375333	0,5	0,123750
15,383667	0,5	0,115200
15,392000	0,5	0,103950
15,400333	0,5	0,114600
15,408667	0,5	0,110200
15,417000	0,5	0,098350
15,425333	0,5	0,090500
15,433667	0,5	0,076350
15,442000	0,5	0,085250
15,450333	0,5	0,076650
15,458667	0,5	0,078050
15,467000	0,5	0,070350
15,475333	0,5	0,071150
15,483667	0,5	0,065300
15,492000	0,5	0,069500
15,500333	0,5	0,064550
15,508667	0,5	0,058500
15,517000	0,5	0,062800
15,525333	0,5	0,063900
15,533667	0,5	0,050600
15,542000	0,5	0,049700
15,550333	0,5	0,048750
15,558667	0,5	0,045000
15,567000	0,5	0,034600
15,575333	0,5	0,018900
15,583667	0,5	0,015050
15,592000	0,5	0,015700
15,600333	0,5	0,017050
15,608667	0,5	0,008800
15,617000	0,5	0,010400
15,625333	0,5	0,002050
15,633667	0,5	0,005450
15,642000	0,5	-0,001300
15,650333	0,5	0,001100
15,658667	0,5	-0,007300
15,667000	0,5	-0,004600
15,675333	0,5	-0,001750
15,683667	0,5	-0,016950
15,692000	0,5	-0,012150
15,700333	0,5	-0,016150
15,708667	0,5	-0,020300
15,717000	0,5	-0,030400
15,725333	0,5	-0,049950
15,733667	0,5	-0,051950
15,742000	0,5	-0,049300
15,750333	0,5	-0,052600
15,758667	0,5	-0,055900
15,767000	0,5	-0,059450
15,775333	0,5	-0,058550
15,783667	0,5	-0,062600
15,792000	0,5	-0,065550
15,800333	0,5	-0,068900
15,808667	0,5	-0,070100
15,817000	0,5	-0,074300
15,825333	0,5	-0,070000
15,833667	0,5	-0,083450
15,842000	0,5	-0,068850
15,850333	0,5	-0,075250
15,858667	0,5	-0,082250
15,867000	0,5	-0,095600
15,875333	0,5	-0,108800
15,883667	0,5	-0,104600
15,892000	0,5	-0,108050
15,900333	0,5	-0,112050
15,908667	0,5	-0,114200
15,917000	0,5	-0,114400
15,925333	0,5	-0,117750
15,933667	0,5	-0,117400
15,942000	0,5	-0,119100
15,950333	0,5	-0,119650
15,958667	0,5	-0,120200
15,967000	0,5	-0,118900
15,975333	0,5	-0,130950
15,983667	0,5	-0,131700
15,992000	0,5	-0,126900
16,000333	0,5	-0,132350
16,008667	0,5	-0,143100
16,017000	0,5	-0,158650
16,025333	0,5	-0,168750
16,033667	0,5	-0,165650
16,042000	0,5	-0,170700
16,050333	0,5	-0,169150
16,058667	0,5	-0,170850
16,067000	0,5	-0,166800
16,075333	0,5	-0,167150
16,083667	0,5	-0,171350
16,092000	0,5	-0,169450
16,100333	0,5	-0,177450
16,108667	0,5	-0,171150
16,117000	0,5	-0,177850
16,125333	0,5	-0,187500
16,133667	0,5	-0,183150
16,142000	0,5	-0,180150
16,150333	0,5	-0,189500
16,158667	0,5	-0,195300
16,167000	0,5	-0,212550
16,175333	0,5	-0,218550
16,183667	0,5	-0,218000
16,192000	0,5	-0,214000
16,200333	0,5	-0,220950
16,208667	0,5	-0,221000
16,217000	0,5	-0,230700
16,225333	0,5	-0,230350
16,233667	0,5	-0,233250
16,242000	0,5	-0,237200
16,250333	0,5	-0,238300
16,258667	0,5	-0,238700
16,267000	0,5	-0,245800
16,275333	0,5	-0,256650
16,283667	0,5	-0,246100
16,292000	0,5	-0,246100
16,300333	0,5	-0,253400
16,308667	0,5	-0,268050
16,317000	0,5	-0,281300
16,325333	0,5	-0,280200
16,333667	0,5	-0,277300
16,342000	0,5	-0,282750
16,350333	0,5	-0,282150
16,358667	0,5	-0,286300
16,367000	0,5	-0,286350
16,375333	0,5	-0,290200
16,383667	0,5	-0,290850
16,392000	0,5	-0,297300
16,400333	0,5	-0,301100
16,408667	0,5	-0,294100
16,417000	0,5	-0,312250
16,425333	0,5	-0,309500
16,433667	0,5	-0,306200
16,442000	0,5	-0,306400
16,450333	0,5	-0,319550
16,458667	0,5	-0,336100
16,467000	0,5	-0,341450
16,475333	0,5	-0,330600
16,483667	0,5	-0,340400
16,492000	0,5	-0,338650
16,500333	0,5	-0,349050
16,508667	0,5	-0,349250
16,517000	0,5	-0,357400
16,525333	0,5	-0,353550
16,533667	0,5	-0,361800
16,542000	0,5	-0,362500
16,550333	0,5	-0,360200
16,558667	0,5	-0,354550
16,567000	0,5	-0,377750
16,575333	0,5	-0,364900
16,583667	0,5	-0,368950
16,592000	0,5	-0,373500
16,600333	0,5	-0,385350
16,608667	0,5	-0,407950
16,617000	0,5	-0,402750
16,625333	0,5	-0,406300
16,633667	0,5	-0,406350
16,642000	0,5	-0,412950
16,650333	0,5	-0,410400
16,658667	0,5	-0,416750
16,667000	0,5	-0,414250
16,675333	0,5	-0,416500
16,683667	0,5	-0,415650
16,692000	0,5	-0,422900
16,700333	0,5	-0,422250
16,708667	0,5	-0,425950
16,717000	0,5	-0,437800
16,725333	0,5	-0,428650
16,733667	0,5	-0,427850
16,742000	0,5	-0,433800
16,750333	0,5	-0,453300
16,758667	0,5	-0,465950
16,767000	0,5	-0,465250
16,775333	0,5	-0,463700
16,783667	0,5	-0,466550
16,792000	0,5	-0,465800
16,800333	0,5	-0,465400
16,808667	0,5	-0,465950
16,817000	0,5	-0,470200
16,825333	0,5	-0,466300
16,833667	0,5	-0,471500
16,842000	0,5	-0,467400
16,850333	0,5	-0,470000
16,858667	0,5	-0,472400
16,867000	0,5	-0,475500
16,875333	0,5	-0,467150
16,883667	0,5	-0,474000
16,892000	0,5	-0,484000
16,900333	0,5	-0,502500
16,908667	0,5	-0,513800
16,917000	0,5	-0,509250
16,925333	0,5	-0,512750
16,933667	0,5	-0,515050
16,942000	0,5	-0,521850
16,950333	0,5	-0,520900
16,958667	0,5	-0,521850
16,967000	0,5	-0,521650
16,975333	0,5	-0,526500
16,983667	0,5	-0,529650
16,992000	0,5	-0,525150
17,000333	0,5	-0,524200
17,008667	0,5	-0,539350
17,017000	0,5	-0,532750
17,025333	0,5	-0,534050
17,033667	0,5	-0,536000
17,042000	0,5	-0,545350
17,050333	0,5	-0,561800
17,058667	0,5	-0,568000
17,067000	0,5	-0,569450
17,075333	0,5	-0,572250
17,083667	0,5	-0,567150
17,092000	0,5	-0,569600
17,100333	0,5	-0,572150
17,108667	0,5	-0,566700
17,117000	0,5	-0,569850
17,125333	0,5	-0,570150
17,133667	0,5	-0,576350
17,142000	0,5	-0,563450
17,150333	0,5	-0,576700
17,158667	0,5	-0,579750
17,167000	0,5	-0,574750
17,175333	0,5	-0,569850
17,183667	0,5	-0,578950
17,192000	0,5	-0,587750
17,200333	0,5	-0,601650
17,208667	0,5	-0,598050
17,217000	0,5	-0,598000
17,225333	0,5	-0,596950
17,233667	0,5	-0,604100
17,242000	0,5	-0,599750
17,250333	0,5	-0,602350
17,258667	0,5	-0,599750
17,267000	0,5	-0,604100
17,275333	0,5	-0,604300
17,283667	0,5	-0,600300
17,292000	0,5	-0,594850
17,300333	0,5	-0,611700
17,308667	0,5	-0,606200
17,317000	0,5	-0,596650
17,325333	0,5	-0,600000
17,333667	0,5	-0,601700
17,342000	0,5	-0,626500
17,350333	0,5	-0,623350
17,358667	0,5	-0,626700
17,367000	0,5	-0,623800
17,375333	0,5	-0,630700
17,383667	0,5	-0,626050
17,392000	0,5	-0,623450
17,400333	0,5	-0,620250
17,408667	0,5	-0,619850
17,417000	0,5	-0,620000
17,425333	0,5	-0,620700
17,433667	0,5	-0,627950
17,442000	0,5	-0,618150
17,450333	0,5	-0,636150
17,458667	0,5	-0,621850
17,467000	0,5	-0,615350
17,475333	0,5	-0,619400
17,483667	0,5	-0,625700
17,492000	0,5	-0,639200
17,500333	0,5	-0,634200
17,508667	0,5	-0,625950
17,517000	0,5	-0,629850
17,525333	0,5	-0,625700
17,533667	0,5	-0,630900
17,542000	0,5	-0,628750
17,550333	0,5	-0,631150
17,558667	0,5	-0,624300
17,567000	0,5	-0,626950
17,575333	0,5	-0,628200
17,583667	0,5	-0,621700
17,592000	0,5	-0,617350
17,600333	0,5	-0,632900
17,608667	0,5	-0,614150
17,617000	0,5	-0,613150
17,625333	0,5	-0,616050
17,633667	0,5	-0,621150
17,642000	0,5	-0,637450
17,650333	0,5	-0,625000
17,658667	0,5	-0,628850
17,667000	0,5	-0,622850
17,675333	0,5	-0,625150
17,683667	0,5	-0,619850
17,692000	0,5	-0,615700
17,700333	0,5	-0,604750
17,708667	0,5	-0,604150
17,717000	0,5	-0,600350
17,725333	0,5	-0,594250
17,733667	0,5	-0,584500
17,742000	0,5	-0,591200
17,750333	0,5	-0,594500
17,758667	0,5	-0,579850
17,767000	0,5	-0,576800
17,775333	0,5	-0,579450
17,783667	0,5	-0,593450
17,792000	0,5	-0,596050
17,800333	0,5	-0,590800
17,808667	0,5	-0,580750
17,817000	0,5	-0,579150
17,825333	0,5	-0,571800
17,833667	0,5	-0,574900
17,842000	0,5	-0,566050
17,850333	0,5	-0,565700
17,858667	0,5	-0,562450
17,867000	0,5	-0,564000
17,875333	0,5	-0,554700
17,883667	0,5	-0,552150
17,892000	0,5	-0,555550
17,900333	0,5	-0,549100
17,908667	0,5	-0,542350
17,917000	0,5	-0,548050
17,925333	0,5	-0,553450
17,933667	0,5	-0,567100
17,942000	0,5	-0,573550
17,950333	0,5	-0,563900
17,958667	0,5	-0,559000
17,967000	0,5	-0,558000
17,975333	0,5	-0,559500
17,983667	0,5	-0,559800
17,992000	0,5	-0,558200
18,000333	0,5	-0,551500
18,008667	0,5	-0,555000
18,017000	0,5	-0,551200
18,025333	0,5	-0,551400
18,033667	0,5	-0,553400
18,042000	0,5	-0,557200
18,050333	0,5	-0,543200
18,058667	0,5	-0,544250
18,067000	0,5	-0,546150
18,075333	0,5	-0,562700
18,083667	0,5	-0,568350
18,092000	0,5	-0,568700
18,100333	0,5	-0,567250
18,108667	0,5	-0,567950
18,117000	0,5	-0,572450
18,125333	0,5	-0,570950
18,133667	0,5	-0,575000
18,142000	0,5	-0,569650
18,150333	0,5	-0,577100
18,158667	0,5	-0,576200
18,167000	0,5	-0,577550
18,175333	0,5	-0,567850
18,183667	0,5	-0,587650
18,192000	0,5	-0,583850
18,200333	0,5	-0,581650
18,208667	0,5	-0,582150
18,217000	0,5	-0,592250
18,225333	0,5	-0,614050
18,233667	0,5	-0,613800
18,242000	0,5	-0,614000
18,250333	0,5	-0,616150
18,258667	0,5	-0,617100
18,267000	0,5	-0,624650
18,275333	0,5	-0,631500
18,283667	0,5	-0,629350
18,292000	0,5	-0,632350
18,300333	0,5	-0,635700
18,308667	0,5	-0,642150
18,317000	0,5	-0,636200
18,325333	0,5	-0,641150
18,333667	0,5	-0,657450
18,342000	0,5	-0,650850
18,350333	0,5	-0,653150
18,358667	0,5	-0,661800
18,367000	0,5	-0,669850
18,375333	0,5	-0,691150
18,383667	0,5	-0,690250
18,392000	0,5	-0,698300
18,400333	0,5	-0,699950
18,408667	0,5	-0,711850
18,417000	0,5	-0,707750
18,425333	0,5	-0,716050
18,433667	0,5	-0,720050
18,442000	0,5	-0,719850
18,450333	0,5	-0,727950
18,458667	0,5	-0,734200
18,467000	0,5	-0,741300
18,475333	0,5	-0,745950
18,483667	0,5	-0,759350
18,492000	0,5	-0,748800
18,500333	0,5	-0,755750
18,508667	0,5	-0,767800
18,517000	0,5	-0,784050
18,525333	0,5	-0,796700
18,533667	0,5	-0,793950
18,542000	0,5	-0,793850
18,550333	0,5	-0,804900
18,558667	0,5	-0,806150
18,567000	0,5	-0,814600
18,575333	0,5	-0,817550
18,583667	0,5	-0,823400
18,592000	0,5	-0,829600
18,600333	0,5	-0,835050
18,608667	0,5	-0,839400
18,617000	0,5	-0,832400
18,625333	0,5	-0,847950
18,633667	0,5	-0,850800
18,642000	0,5	-0,851450
18,650333	0,5	-0,857800
18,658667	0,5	-0,870650
18,667000	0,5	-0,887500
18,675333	0,5	-0,899600
18,683667	0,5	-0,891050
18,692000	0,5	-0,902150
18,700333	0,5	-0,905000
18,708667	0,5	-0,910700
18,717000	0,5	-0,911450
18,725333	0,5	-0,917050
18,733667	0,5	-0,916050
18,742000	0,5	-0,920800
18,750333	0,5	-0,925800
18,758667	0,5	-0,919000
18,767000	0,5	-0,919050
18,775333	0,5	-0,937700
18,783667	0,5	-0,932450
18,792000	0,5	-0,933900
18,800333	0,5	-0,940000
18,808667	0,5	-0,953950
18,817000	0,5	-0,978150
18,825333	0,5	-0,977750
18,833667	0,5	-0,982550
18,842000	0,5	-0,980550
18,850333	0,5	-0,989100
18,858667	0,5	-0,984550
18,867000	0,5	-0,990200
18,875333	0,5	-0,991000
18,883667	0,5	-0,999750
18,892000	0,5	-0,999900
18,900333	0,5	-0,999400
18,908667	0,5	-0,989350
18,917000	0,5	-1,002700
18,925333	0,5	-1,005950
18,933667	0,5	-1,000100
18,942000	0,5	-1,004700
18,950333	0,5	-1,011100
18,958667	0,5	-1,029750
18,967000	0,5	-1,042200
18,975333	0,5	-1,045650
18,983667	0,5	-1,042200
18,992000	0,5	-1,048400
19,000333	0,5	-1,045600
19,008667	0,5	-1,049600
19,017000	0,5	-1,048000
19,025333	0,5	-1,056300
19,033667	0,5	-1,054250
19,042000	0,5	-1,058900
19,050333	0,5	-1,053300
19,058667	0,5	-1,054250
19,067000	0,5	-1,071500
19,075333	0,5	-1,073950
19,083667	0,5	-1,072200
19,092000	0,5	-1,079400
19,100333	0,5	-1,087750
19,108667	0,5	-1,110350
19,117000	0,5	-1,121050
19,125333	0,5	-1,121550
19,133667	0,5	-1,126500
19,142000	0,5	-1,127000
19,150333	0,5	-1,133700
19,158667	0,5	-1,135450
19,167000	0,5	-1,139400
19,175333	0,5	-1,139200
19,183667	0,5	-1,152000
19,192000	0,5	-1,158750
19,200333	0,5	-1,155350
19,208667	0,5	-1,157050
19,217000	0,5	-1,179850
19,225333	0,5	-1,168550
19,233667	0,5	-1,171550
19,242000	0,5	-1,179400
19,250333	0,5	-1,192850
19,258667	0,5	-1,212950
19,267000	0,5	-1,214150
19,275333	0,5	-1,218150
19,283667	0,5	-1,221650
19,292000	0,5	-1,229000
19,300333	0,5	-1,228700
19,308667	0,5	-1,237550
19,317000	0,5	-1,235950
19,325333	0,5	-1,242100
19,333667	0,5	-1,242650
19,342000	0,5	-1,242200
19,350333	0,5	-1,237300
19,358667	0,5	-1,250600
19,367000	0,5	-1,253000
19,375333	0,5	-1,251250
19,383667	0,5	-1,251400
19,392000	0,5	-1,267400
19,400333	0,5	-1,283550
19,408667	0,5	-1,292500
19,417000	0,5	-1,285500
19,425333	0,5	-1,292050
19,433667	0,5	-1,298950
19,442000	0,5	-1,297750
19,450333	0,5	-1,300750
19,458667	0,5	-1,301550
19,467000	0,5	-1,300650
19,475333	0,5	-1,304750
19,483667	0,5	-1,309650
19,492000	0,5	-1,307050
19,500333	0,5	-1,301900
19,508667	0,5	-1,317550
19,517000	0,5	-1,314350
19,525333	0,5	-1,310200
19,533667	0,5	-1,317150
19,542000	0,5	-1,326350
19,550333	0,5	-1,354600
19,558667	0,5	-1,350800
19,567000	0,5	-1,352550
19,575333	0,5	-1,354150
19,583667	0,5	-1,358950
19,592000	0,5	-1,359950
19,600333	0,5	-1,360550
19,608667	0,5	-1,366200
19,617000	0,5	-1,363050
19,625333	0,5	-1,370850
19,633667	0,5	-1,369000
19,642000	0,5	-1,368750
19,650333	0,5	-1,365650
19,658667	0,5	-1,382100
19,667000	0,5	-1,369000
19,675333	0,5	-1,379100
19,683667	0,5	-1,381500
19,692000	0,5	-1,401650
19,700333	0,5	-1,413250
19,708667	0,5	-1,413100
19,717000	0,5	-1,411150
19,725333	0,5	-1,420000
19,733667	0,5	-1,416200
19,742000	0,5	-1,418500
19,750333	0,5	-1,419550
19,758667	0,5	-1,418600
19,767000	0,5	-1,422150
19,775333	0,5	-1,419450
19,783667	0,5	-1,417500
19,792000	0,5	-1,410700
19,800333	0,5	-1,421100
19,808667	0,5	-1,421450
19,817000	0,5	-1,417050
19,825333	0,5	-1,420450
19,833667	0,5	-1,433550
19,842000	0,5	-1,449700
19,850333	0,5	-1,461350
19,858667	0,5	-1,456850
19,867000	0,5	-1,459800
19,875333	0,5	-1,459400
19,883667	0,5	-1,461250
19,892000	0,5	-1,463250
19,900333	0,5	-1,458450
19,908667	0,5	-1,466300
19,917000	0,5	-1,465500
19,925333	0,5	-1,470200
19,933667	0,5	-1,460350
19,942000	0,5	-1,454600
19,950333	0,5	-1,467000
19,958667	0,5	-1,464150
19,967000	0,5	-1,458450
19,975333	0,5	-1,468300
19,983667	0,5	-1,478150
19,992000	0,5	-1,499300
20,000333	0,5	-1,494800
20,008667	0,5	-1,502550
20,017000	0,5	-1,492900
20,025333	0,5	-1,501900
20,033667	0,5	-1,500300
20,042000	0,5	-1,506100
20,050333	0,5	-1,503700
20,058667	0,5	-1,500600
20,067000	0,5	-1,502200
20,075333	0,5	-1,503850
20,083667	0,5	-1,495550
20,092000	0,5	-1,503700
20,100333	0,5	-1,511100
20,108667	0,5	-1,505900
20,117000	0,5	-1,512550
20,125333	0,5	-1,518800
20,133667	0,5	-1,543600
20,142000	0,5	-1,550550
20,150333	0,5	-1,553450
20,158667	0,5	-1,550150
20,167000	0,5	-1,557950
20,175333	0,5	-1,553650
20,183667	0,5	-1,557850
20,192000	0,5	-1,552650
20,200333	0,5	-1,551700
20,208667	0,5	-1,551600
20,217000	0,5	-1,553200
20,225333	0,5	-1,545800
20,233667	0,5	-1,536150
20,242000	0,5	-1,551600
20,250333	0,5	-1,538250
20,258667	0,5	-1,532600
20,267000	0,5	-1,528750
20,275333	0,5	-1,539350
20,283667	0,5	-1,554050
20,292000	0,5	-1,548850
20,300333	0,5	-1,539000
20,308667	0,5	-1,540450
20,317000	0,5	-1,537300
20,325333	0,5	-1,542400
20,333667	0,5	-1,535200
20,342000	0,5	-1,532200
20,350333	0,5	-1,526900
20,358667	0,5	-1,526300
20,367000	0,5	-1,525450
20,375333	0,5	-1,503850
20,383667	0,5	-1,496550
20,392000	0,5	-1,514100
20,400333	0,5	-1,495600
20,408667	0,5	-1,492350
20,417000	0,5	-1,497900
20,425333	0,5	-1,501250
20,433667	0,5	-1,520100
20,442000	0,5	-1,499600
20,450333	0,5	-1,501700
20,458667	0,5	-1,494600
20,467000	0,5	-1,499100
20,475333	0,5	-1,487100
20,483667	0,5	-1,487350
20,492000	0,5	-1,476150
20,500333	0,5	-1,480250
20,508667	0,5	-1,473650
20,517000	0,5	-1,467200
20,525333	0,5	-1,445650
20,533667	0,5	-1,450600
20,542000	0,5	-1,447550
20,550333	0,5	-1,437150
20,558667	0,5	-1,436950
20,567000	0,5	-1,436550
20,575333	0,5	-1,452650
20,583667	0,5	-1,449650
20,592000	0,5	-1,447800
20,600333	0,5	-1,440900
20,608667	0,5	-1,444100
20,617000	0,5	-1,437400
20,625333	0,5	-1,438950
20,633667	0,5	-1,432950
20,642000	0,5	-1,443750
20,650333	0,5	-1,439550
20,658667	0,5	-1,442850
20,667000	0,5	-1,426100
20,675333	0,5	-1,421850
20,683667	0,5	-1,424600
20,692000	0,5	-1,425450
20,700333	0,5	-1,428500
20,708667	0,5	-1,434800
20,717000	0,5	-1,456150
20,725333	0,5	-1,464600
20,733667	0,5	-1,470650
20,742000	0,5	-1,459650
20,750333	0,5	-1,463900
20,758667	0,5	-1,456350
20,767000	0,5	-1,459100
20,775333	0,5	-1,452350
20,783667	0,5	-1,451300
20,792000	0,5	-1,446200
20,800333	0,5	-1,446000
20,808667	0,5	-1,439000
20,817000	0,5	-1,413200
20,825333	0,5	-1,406150
20,833667	0,5	-1,410600
20,842000	0,5	-1,405750
20,850333	0,5	-1,410700
20,858667	0,5	-1,409000
20,867000	0,5	-1,427150
20,875333	0,5	-1,439300
20,883667	0,5	-1,429900
20,892000	0,5	-1,426650
20,900333	0,5	-1,415850
20,908667	0,5	-1,412300
20,917000	0,5	-1,401750
20,925333	0,5	-1,396050
20,933667	0,5	-1,389200
20,942000	0,5	-1,382400
20,950333	0,5	-1,379350
20,958667	0,5	-1,358100
20,967000	0,5	-1,336500
20,975333	0,5	-1,342800
20,983667	0,5	-1,334600
20,992000	0,5	-1,331500
21,000333	0,5	-1,332500
21,008667	0,5	-1,336400
21,017000	0,5	-1,351750
21,025333	0,5	-1,343500
21,033667	0,5	-1,336350
21,042000	0,5	-1,331100
21,050333	0,5	-1,322900
21,058667	0,5	-1,315100
21,067000	0,5	-1,310900
21,075333	0,5	-1,303900
21,083667	0,5	-1,299000
21,092000	0,5	-1,289150
21,100333	0,5	-1,281800
21,108667	0,5	-1,254350
21,117000	0,5	-1,237450
21,125333	0,5	-1,238600
21,133667	0,5	-1,239400
21,142000	0,5	-1,233650
21,150333	0,5	-1,242900
21,158667	0,5	-1,255700
21,167000	0,5	-1,255000
21,175333	0,5	-1,252750
21,183667	0,5	-1,246400
21,192000	0,5	-1,241400
21,200333	0,5	-1,231550
21,208667	0,5	-1,227350
21,217000	0,5	-1,213750
21,225333	0,5	-1,209600
21,233667	0,5	-1,190950
21,242000	0,5	-1,188000
21,250333	0,5	-1,161300
21,258667	0,5	-1,133550
21,267000	0,5	-1,122500
21,275333	0,5	-1,121000
21,283667	0,5	-1,115000
21,292000	0,5	-1,113300
21,300333	0,5	-1,110400
21,308667	0,5	-1,124250
21,317000	0,5	-1,118050
21,325333	0,5	-1,097050
21,333667	0,5	-1,091800
21,342000	0,5	-1,075800
21,350333	0,5	-1,068350
21,358667	0,5	-1,057650
21,367000	0,5	-1,050650
21,375333	0,5	-1,035650
21,383667	0,5	-1,030950
21,392000	0,5	-1,016750
21,400333	0,5	-0,977000
21,408667	0,5	-0,953100
21,417000	0,5	-0,952350
21,425333	0,5	-0,942200
21,433667	0,5	-0,939600
21,442000	0,5	-0,936100
21,450333	0,5	-0,942050
21,458667	0,5	-0,946000
21,467000	0,5	-0,918050
21,475333	0,5	-0,912050
21,483667	0,5	-0,900250
21,492000	0,5	-0,894350
21,500333	0,5	-0,876550
21,508667	0,5	-0,864000
21,517000	0,5	-0,843400
21,525333	0,5	-0,828500
21,533667	0,5	-0,813150
21,542000	0,5	-0,791900
21,550333	0,5	-0,752300
21,558667	0,5	-0,731250
21,567000	0,5	-0,717600
21,575333	0,5	-0,700700
21,583667	0,5	-0,680450
21,592000	0,5	-0,668000
21,600333	0,5	-0,653550
21,608667	0,5	-0,623350
21,617000	0,5	-0,585300
21,625333	0,5	-0,553000
21,633667	0,5	-0,533600
21,642000	0,5	-0,524500
21,650333	0,5	-0,524550
21,658667	0,5	-0,516500
21,667000	0,5	-0,516050
21,675333	0,5	-0,501800
21,683667	0,5	-0,495000
21,692000	0,5	-0,457800
21,700333	0,5	-0,433600
21,708667	0,5	-0,419000
21,717000	0,5	-0,404150
21,725333	0,5	-0,394900
21,733667	0,5	-0,385900
21,742000	0,5	-0,384100
21,750333	0,5	-0,374450
21,758667	0,5	-0,352850
21,767000	0,5	-0,318050
21,775333	0,5	-0,296100
21,783667	0,5	-0,267500
21,792000	0,5	-0,241900
21,800333	0,5	-0,211000
21,808667	0,5	-0,179800
21,817000	0,5	-0,142450
21,825333	0,5	-0,117350
21,833667	0,5	-0,079650
21,842000	0,5	-0,032300
21,850333	0,5	-0,001400
21,858667	0,5	0,023850
21,867000	0,5	0,056500
21,875333	0,5	0,072900
21,883667	0,5	0,096800
21,892000	0,5	0,105050
21,900333	0,5	0,121700
21,908667	0,5	0,150300
21,917000	0,5	0,178250
21,925333	0,5	0,198450
21,933667	0,5	0,231950
21,942000	0,5	0,266500
21,950333	0,5	0,293350
21,958667	0,5	0,331250
21,967000	0,5	0,357250
21,975333	0,5	0,392100
21,983667	0,5	0,430500
21,992000	0,5	0,469700
22,000333	0,5	0,488550
22,008667	0,5	0,530100
22,017000	0,5	0,568700
22,025333	0,5	0,597800
22,033667	0,5	0,623550
22,042000	0,5	0,650300
22,050333	0,5	0,691550
22,058667	0,5	0,726800
22,067000	0,5	0,766400
22,075333	0,5	0,795650
22,083667	0,5	0,841400
22,092000	0,5	0,872250
22,100333	0,5	0,914050
22,108667	0,5	0,950200
22,117000	0,5	0,995400
22,125333	0,5	1,038600
22,133667	0,5	1,097250
22,142000	0,5	1,126400
22,150333	0,5	1,186950
22,158667	0,5	1,238650
22,167000	0,5	1,285450
22,175333	0,5	1,326950
22,183667	0,5	1,358850
22,192000	0,5	1,412900
22,200333	0,5	1,464400
22,208667	0,5	1,510400
22,217000	0,5	1,555350
22,225333	0,5	1,610800
22,233667	0,5	1,658400
22,242000	0,5	1,716650
22,250333	0,5	1,768150
22,258667	0,5	1,825450
22,267000	0,5	1,872200
22,275333	0,5	1,920350
22,283667	0,5	1,968450
22,292000	0,5	2,017600
22,300333	0,5	2,093350
22,308667	0,5	2,152850
22,317000	0,5	2,200950
22,325333	0,5	2,248950
22,333667	0,5	2,282250
22,342000	0,5	2,347050
22,350333	0,5	2,409900
22,358667	0,5	2,466100
22,367000	0,5	2,537550
22,375333	0,5	2,591200
22,383667	0,5	2,655700
22,392000	0,5	2,713400
22,400333	0,5	2,779400
22,408667	0,5	2,850500
22,417000	0,5	2,918600
22,425333	0,5	2,971650
22,433667	0,5	3,045250
22,442000	0,5	3,130900
22,450333	0,5	3,221850
22,458667	0,5	3,296250
22,467000	0,5	3,373050
22,475333	0,5	3,440200
22,483667	0,5	3,517800
22,492000	0,5	3,612450
22,500333	0,5	3,697250
22,508667	0,5	3,782300
22,517000	0,5	3,867800
22,525333	0,5	3,962850
22,533667	0,5	4,048450
22,542000	0,5	4,153400
22,550333	0,5	4,238350
22,558667	0,5	4,334700
22,567000	0,5	4,393000
22,575333	0,5	4,482600
22,583667	0,5	4,565300
22,592000	0,5	4,673500
22,600333	0,5	4,750700
22,608667	0,5	4,828550
22,617000	0,5	4,891850
22,625333	0,5	4,944850
22,633667	0,5	5,017050
22,642000	0,5	5,084600
22,650333	0,5	5,150400
22,658667	0,5	5,201800
22,667000	0,5	5,251350
22,675333	0,5	5,291400
22,683667	0,5	5,330200
22,692000	0,5	5,355350
22,700333	0,5	5,376600
22,708667	0,5	5,373250
22,717000	0,5	5,322700
22,725333	0,5	5,325900
22,733667	0,5	5,315250
22,742000	0,5	5,287400
22,750333	0,5	5,225500
22,758667	0,5	5,149350
22,767000	0,5	5,056750
22,775333	0,5	4,950500
22,783667	0,5	4,855350
22,792000	0,5	4,752950
22,800333	0,5	4,639150
22,808667	0,5	4,525750
22,817000	0,5	4,402200
22,825333	0,5	4,274100
22,833667	0,5	4,134950
22,842000	0,5	3,992100
22,850333	0,5	3,834550
22,858667	0,5	3,654800
22,867000	0,5	3,445200
22,875333	0,5	3,291800
22,883667	0,5	3,124850
22,892000	0,5	2,934500
22,900333	0,5	2,736700
22,908667	0,5	2,537250
22,917000	0,5	2,341800
22,925333	0,5	2,145250
22,933667	0,5	1,945350
22,942000	0,5	1,756650
22,950333	0,5	1,568600
22,958667	0,5	1,385700
22,967000	0,5	1,204050
22,975333	0,5	1,022150
22,983667	0,5	0,840650
22,992000	0,5	0,671050
23,000333	0,5	0,491000
23,008667	0,5	0,331500
23,017000	0,5	0,165750
23,025333	0,5	-0,004550
23,033667	0,5	-0,195950
23,042000	0,5	-0,351050
23,050333	0,5	-0,495000
23,058667	0,5	-0,622350
23,067000	0,5	-0,754400
23,075333	0,5	-0,881050
23,083667	0,5	-0,995100
23,092000	0,5	-1,100550
23,100333	0,5	-1,201650
23,108667	0,5	-1,295800
23,117000	0,5	-1,388200
23,125333	0,5	-1,477200
23,133667	0,5	-1,557550
23,142000	0,5	-1,645650
23,150333	0,5	-1,698550
23,158667	0,5	-1,778050
23,167000	0,5	-1,844600
23,175333	0,5	-1,930050
23,183667	0,5	-2,006750
23,192000	0,5	-2,066600
23,200333	0,5	-2,101100
23,208667	0,5	-2,136950
23,217000	0,5	-2,174050
23,225333	0,5	-2,204800
23,233667	0,5	-2,215600
23,242000	0,5	-2,233950
23,250333	0,5	-2,238450
23,258667	0,5	-2,252800
23,267000	0,5	-2,258500
23,275333	0,5	-2,264850
23,283667	0,5	-2,276900
23,292000	0,5	-2,280750
23,300333	0,5	-2,283850
23,308667	0,5	-2,299900
23,317000	0,5	-2,283100
23,325333	0,5	-2,294050
23,333667	0,5	-2,321200
23,342000	0,5	-2,323350
23,350333	0,5	-2,315850
23,358667	0,5	-2,290900
23,367000	0,5	-2,282900
23,375333	0,5	-2,268250
23,383667	0,5	-2,247550
23,392000	0,5	-2,215050
23,400333	0,5	-2,192050
23,408667	0,5	-2,163900
23,417000	0,5	-2,139900
23,425333	0,5	-2,112700
23,433667	0,5	-2,085800
23,442000	0,5	-2,062100
23,450333	0,5	-2,112450
23,458667	0,5	-2,039800
23,467000	0,5	-1,996100
23,475333	0,5	-1,984900
23,483667	0,5	-1,982200
23,492000	0,5	-1,971500
23,500333	0,5	-1,954550
23,508667	0,5	-1,934450
23,517000	0,5	-1,915800
23,525333	0,5	-1,901050
23,533667	0,5	-1,879150
23,542000	0,5	-1,857850
23,550333	0,5	-1,834200
23,558667	0,5	-1,812100
23,567000	0,5	-1,789200
23,575333	0,5	-1,771350
23,583667	0,5	-1,752050
23,592000	0,5	-1,758000
23,600333	0,5	-1,809700
23,608667	0,5	-1,749800
23,617000	0,5	-1,694350
23,625333	0,5	-1,665900
23,633667	0,5	-1,663850
23,642000	0,5	-1,653050
23,650333	0,5	-1,647500
23,658667	0,5	-1,637150
23,667000	0,5	-1,622200
23,675333	0,5	-1,615300
23,683667	0,5	-1,603800
23,692000	0,5	-1,595250
23,700333	0,5	-1,584850
23,708667	0,5	-1,575100
23,717000	0,5	-1,568050
23,725333	0,5	-1,561300
23,733667	0,5	-1,559800
23,742000	0,5	-1,685150
23,750333	0,5	-1,669000
23,758667	0,5	-1,635050
23,767000	0,5	-1,575750
23,775333	0,5	-1,554500
23,783667	0,5	-1,550950
23,792000	0,5	-1,550050
23,800333	0,5	-1,550800
23,808667	0,5	-1,544200
23,817000	0,5	-1,537100
23,825333	0,5	-1,521350
23,833667	0,5	-1,514750
23,842000	0,5	-1,499700
23,850333	0,5	-1,487600
23,858667	0,5	-1,475150
23,867000	0,5	-1,465650
23,875333	0,5	-1,460200
23,883667	0,5	-1,465650
23,892000	0,5	-1,600700
23,900333	0,5	-1,580300
23,908667	0,5	-1,522400
23,917000	0,5	-1,481850
23,925333	0,5	-1,463400
23,933667	0,5	-1,467050
23,942000	0,5	-1,469700
23,950333	0,5	-1,471700
23,958667	0,5	-1,473450
23,967000	0,5	-1,462200
23,975333	0,5	-1,452200
23,983667	0,5	-1,439700
23,992000	0,5	-1,429450
24,000333	0,5	-1,419150
24,008667	0,5	-1,405350
24,017000	0,5	-1,389850
24,025333	0,5	-1,385700
24,033667	0,5	-1,445650
24,042000	0,5	-1,507300
24,050333	0,5	-1,468150
24,058667	0,5	-1,412900
24,067000	0,5	-1,363550
24,075333	0,5	-1,341000
24,083667	0,5	-1,330250
24,092000	0,5	-1,339450
24,100333	0,5	-1,327350
24,108667	0,5	-1,313900
24,117000	0,5	-1,302150
24,125333	0,5	-1,290550
24,133667	0,5	-1,273150
24,142000	0,5	-1,257100
24,150333	0,5	-1,248050
24,158667	0,5	-1,234550
24,167000	0,5	-1,228000
24,175333	0,5	-1,213350
24,183667	0,5	-1,334050
24,192000	0,5	-1,303450
24,200333	0,5	-1,297550
24,208667	0,5	-1,235700
24,217000	0,5	-1,209150
24,225333	0,5	-1,189450
24,233667	0,5	-1,183550
24,242000	0,5	-1,191650
24,250333	0,5	-1,170100
24,258667	0,5	-1,144350
24,267000	0,5	-1,131700
24,275333	0,5	-1,114950
24,283667	0,5	-1,099250
24,292000	0,5	-1,077750
24,300333	0,5	-1,062000
24,308667	0,5	-1,042700
24,317000	0,5	-1,027450
24,325333	0,5	-1,036100
24,333667	0,5	-1,116350
24,342000	0,5	-1,084500
24,350333	0,5	-1,057850
24,358667	0,5	-1,009750
24,367000	0,5	-0,989000
24,375333	0,5	-0,981000
24,383667	0,5	-0,974900
24,392000	0,5	-0,987950
24,400333	0,5	-0,967150
24,408667	0,5	-0,962000
24,417000	0,5	-0,947700
24,425333	0,5	-0,940300
24,433667	0,5	-0,923150
24,442000	0,5	-0,912200
24,450333	0,5	-0,897850
24,458667	0,5	-0,883600
24,467000	0,5	-0,874150
24,475333	0,5	-0,911750
24,483667	0,5	-0,933950
24,492000	0,5	-0,903400
24,500333	0,5	-0,870850
24,508667	0,5	-0,835350
24,517000	0,5	-0,818200
24,525333	0,5	-0,809500
24,533667	0,5	-0,810150
24,542000	0,5	-0,806850
24,550333	0,5	-0,794200
24,558667	0,5	-0,774550
24,567000	0,5	-0,768850
24,575333	0,5	-0,751300
24,583667	0,5	-0,746300
24,592000	0,5	-0,733950
24,600333	0,5	-0,723900
24,608667	0,5	-0,711450
24,617000	0,5	-0,706150
24,625333	0,5	-0,759050
24,633667	0,5	-0,747500
24,642000	0,5	-0,734250
24,650333	0,5	-0,711150
24,658667	0,5	-0,685700
24,667000	0,5	-0,676950
24,675333	0,5	-0,675500
24,683667	0,5	-0,675200
24,692000	0,5	-0,675350
24,700333	0,5	-0,659650
24,708667	0,5	-0,649400
24,717000	0,5	-0,634200
24,725333	0,5	-0,625250
24,733667	0,5	-0,609450
24,742000	0,5	-0,602000
24,750333	0,5	-0,584250
24,758667	0,5	-0,578000
24,767000	0,5	-0,574650
24,775333	0,5	-0,611000
24,783667	0,5	-0,591100
24,792000	0,5	-0,577150
24,800333	0,5	-0,555100
24,808667	0,5	-0,544150
24,817000	0,5	-0,538950
24,825333	0,5	-0,540700
24,833667	0,5	-0,546400
24,842000	0,5	-0,538800
24,850333	0,5	-0,533600
24,858667	0,5	-0,524200
24,867000	0,5	-0,519350
24,875333	0,5	-0,511650
24,883667	0,5	-0,505000
24,892000	0,5	-0,493650
24,900333	0,5	-0,489850
24,908667	0,5	-0,479650
24,917000	0,5	-0,487700
24,925333	0,5	-0,492800
24,933667	0,5	-0,485500
24,942000	0,5	-0,468900
24,950333	0,5	-0,455750
24,958667	0,5	-0,442400
24,967000	0,5	-0,440150
24,975333	0,5	-0,440450
24,983667	0,5	-0,436650
24,992000	0,5	-0,427350
25,000333	0,5	-0,419550
25,008667	0,5	-0,415650
25,017000	0,5	-0,409550
25,025333	0,5	-0,403700
25,033667	0,5	-0,397500
25,042000	0,5	-0,391700
25,050333	0,5	-0,384150
25,058667	0,5	-0,384500
25,067000	0,5	-0,395650
25,075333	0,5	-0,393850
25,083667	0,5	-0,387500
25,092000	0,5	-0,376500
25,100333	0,5	-0,368550
25,108667	0,5	-0,362700
25,117000	0,5	-0,362000
25,125333	0,5	-0,364900
25,133667	0,5	-0,356500
25,142000	0,5	-0,352000
25,150333	0,5	-0,346700
25,158667	0,5	-0,343250
25,167000	0,5	-0,336700
25,175333	0,5	-0,330450
25,183667	0,5	-0,325000
25,192000	0,5	-0,317250
25,200333	0,5	-0,312950
25,208667	0,5	-0,307000
25,217000	0,5	-0,312250
25,225333	0,5	-0,304600
25,233667	0,5	-0,301900
25,242000	0,5	-0,294850
25,250333	0,5	-0,295100
25,258667	0,5	-0,293450
25,267000	0,5	-0,295500
25,275333	0,5	-0,295850
25,283667	0,5	-0,292100
25,292000	0,5	-0,291000
25,300333	0,5	-0,290100
25,308667	0,5	-0,286450
25,317000	0,5	-0,285000
25,325333	0,5	-0,281150
25,333667	0,5	-0,278850
25,342000	0,5	-0,273250
25,350333	0,5	-0,269050
25,358667	0,5	-0,267200
25,367000	0,5	-0,263100
25,375333	0,5	-0,258000
25,383667	0,5	-0,252750
25,392000	0,5	-0,252900
25,400333	0,5	-0,248450
25,408667	0,5	-0,247350
25,417000	0,5	-0,244500
25,425333	0,5	-0,244850
25,433667	0,5	-0,244350
25,442000	0,5	-0,242350
25,450333	0,5	-0,240750
25,458667	0,5	-0,241050
25,467000	0,5	-0,240600
25,475333	0,5	-0,239050
25,483667	0,5	-0,236700
25,492000	0,5	-0,235400
25,500333	0,5	-0,234300
25,508667	0,5	-0,231550
25,517000	0,5	-0,228900
25,525333	0,5	-0,226250
25,533667	0,5	-0,228850
25,542000	0,5	-0,228950
25,550333	0,5	-0,229350
25,558667	0,5	-0,223500
25,567000	0,5	-0,222150
25,575333	0,5	-0,220000
25,583667	0,5	-0,217000
25,592000	0,5	-0,218450
25,600333	0,5	-0,212100
25,608667	0,5	-0,211350
25,617000	0,5	-0,211050
25,625333	0,5	-0,210100
25,633667	0,5	-0,206650
25,642000	0,5	-0,206100
25,650333	0,5	-0,203350
25,658667	0,5	-0,196600
25,667000	0,5	-0,198050
25,675333	0,5	-0,199750
25,683667	0,5	-0,203050
25,692000	0,5	-0,206600
25,700333	0,5	-0,205950
25,708667	0,5	-0,202000
25,717000	0,5	-0,201250
25,725333	0,5	-0,198050
25,733667	0,5	-0,198250
25,742000	0,5	-0,197650
25,750333	0,5	-0,197150
25,758667	0,5	-0,195150
25,767000	0,5	-0,195150
25,775333	0,5	-0,192750
25,783667	0,5	-0,191400
25,792000	0,5	-0,186150
25,800333	0,5	-0,185650
25,808667	0,5	-0,178600
25,817000	0,5	-0,175700
25,825333	0,5	-0,174600
25,833667	0,5	-0,177100
25,842000	0,5	-0,173750
25,850333	0,5	-0,171000
25,858667	0,5	-0,165250
25,867000	0,5	-0,159950
25,875333	0,5	-0,158800
25,883667	0,5	-0,160050
25,892000	0,5	-0,157100
25,900333	0,5	-0,161000
25,908667	0,5	-0,157500
25,917000	0,5	-0,158800
25,925333	0,5	-0,154900
25,933667	0,5	-0,152850
25,942000	0,5	-0,152100
25,950333	0,5	-0,146500
25,958667	0,5	-0,149150
25,967000	0,5	-0,136550
25,975333	0,5	-0,142500
25,983667	0,5	-0,143050
25,992000	0,5	-0,145350
26,000333	0,5	-0,142550
