File Path	chrom://chromeleon01/ikbm_chromeleon/2022/ICS-5000/ED1/Esteban/20220612_Cell_7_4_eg.seq/656.smp/ED_1.channel/ED_1.chm
Channel	ED_1

Injection Information:
Data Vault	ikbm_chromeleon
Injection	Std_C1ox-0.005_3
Injection Number	153
Position	RA3
Comment	
Processing Method	Stop sequence after Cell Death
Instrument Method	ICS5000_PA200_FullNative_Ox_26min_ED1
Type	Unknown
Status	Finished
Injection Date	15.06.2022
Injection Time	16:30:51
Injection Volume (µl)	5,0
Dilution Factor	1,0000
Weight	1,0000

Chromatogram Data Information:
Time Min. (min)	0,000167
Time Max. (min)	26,000167
Data Points	3121
Detector	EDet1
Generating Data System	Chromeleon 7.2.9.11323
Exporting Data System	Chromeleon 7.2.9.0
Operator	Instrument Controller
Signal Quantity	
Signal Unit	nC
Signal Min.	-2,333800
Signal Max.	39,072151
Channel	ED_1
Driver Name	DC-5000
Channel Type	Evaluation
Min. Step (s)	0,5
Max. Step (s)	0,5
Average Step (s)	0,5

Signal Parameter Information:
Signal Info	

Chromatogram Data:
Time (min)	Step (s)	Value (nC)
0,000167	n.a.	-0,047100
0,008500	0,5	-0,070150
0,016833	0,5	-0,060950
0,025167	0,5	-0,014500
0,033500	0,5	-0,018850
0,041833	0,5	-0,002050
0,050167	0,5	-0,007800
0,058500	0,5	0,009300
0,066833	0,5	0,000950
0,075167	0,5	0,006800
0,083500	0,5	-0,002100
0,091833	0,5	-0,004350
0,100167	0,5	-0,002050
0,108500	0,5	-0,006450
0,116833	0,5	-0,019800
0,125167	0,5	-0,013500
0,133500	0,5	0,004050
0,141833	0,5	-0,030500
0,150167	0,5	-0,027250
0,158500	0,5	-0,022800
0,166833	0,5	0,002550
0,175167	0,5	0,023550
0,183500	0,5	0,024750
0,191833	0,5	0,008700
0,200167	0,5	0,017000
0,208500	0,5	0,008350
0,216833	0,5	0,007900
0,225167	0,5	-0,001600
0,233500	0,5	-0,002550
0,241833	0,5	-0,010050
0,250167	0,5	-0,006650
0,258500	0,5	-0,012150
0,266833	0,5	-0,019900
0,275167	0,5	-0,020450
0,283500	0,5	-0,018700
0,291833	0,5	-0,038250
0,300167	0,5	-0,027100
0,308500	0,5	-0,009600
0,316833	0,5	0,008500
0,325167	0,5	0,018800
0,333500	0,5	-0,005700
0,341833	0,5	-0,001100
0,350167	0,5	-0,009550
0,358500	0,5	-0,002250
0,366833	0,5	-0,013550
0,375167	0,5	-0,007400
0,383500	0,5	-0,023400
0,391833	0,5	-0,019200
0,400167	0,5	-0,021550
0,408500	0,5	-0,037300
0,416833	0,5	-0,042500
0,425167	0,5	-0,016450
0,433500	0,5	-0,036700
0,441833	0,5	-0,045100
0,450167	0,5	-0,042800
0,458500	0,5	-0,026950
0,466833	0,5	-0,003150
0,475167	0,5	0,007050
0,483500	0,5	0,006200
0,491833	0,5	0,003650
0,500167	0,5	0,004500
0,508500	0,5	-0,004950
0,516833	0,5	-0,004450
0,525167	0,5	-0,015300
0,533500	0,5	-0,008550
0,541833	0,5	-0,015350
0,550167	0,5	-0,010700
0,558500	0,5	-0,029750
0,566833	0,5	-0,011350
0,575167	0,5	-0,006500
0,583500	0,5	-0,018950
0,591833	0,5	-0,026300
0,600167	0,5	-0,013700
0,608500	0,5	0,006750
0,616833	0,5	0,035700
0,625167	0,5	0,026250
0,633500	0,5	0,028200
0,641833	0,5	0,028150
0,650167	0,5	0,030600
0,658500	0,5	0,028300
0,666833	0,5	0,033150
0,675167	0,5	0,027900
0,683500	0,5	0,028100
0,691833	0,5	0,036500
0,700167	0,5	0,033750
0,708500	0,5	0,029500
0,716833	0,5	0,050250
0,725167	0,5	0,047950
0,733500	0,5	0,034350
0,741833	0,5	0,035400
0,750167	0,5	0,039000
0,758500	0,5	0,074050
0,766833	0,5	0,081150
0,775167	0,5	0,081400
0,783500	0,5	0,073200
0,791833	0,5	0,084250
0,800167	0,5	0,079200
0,808500	0,5	0,089350
0,816833	0,5	0,083650
0,825167	0,5	0,081950
0,833500	0,5	0,085450
0,841833	0,5	0,087650
0,850167	0,5	0,116900
0,858500	0,5	0,094900
0,866833	0,5	0,128350
0,875167	0,5	0,105250
0,883500	0,5	0,092900
0,891833	0,5	0,095050
0,900167	0,5	0,112000
0,908500	0,5	0,143800
0,916833	0,5	0,144700
0,925167	0,5	0,131350
0,933500	0,5	0,148250
0,941833	0,5	0,140000
0,950167	0,5	0,151100
0,958500	0,5	0,144350
0,966833	0,5	0,154500
0,975167	0,5	0,151800
0,983500	0,5	0,158050
0,991833	0,5	0,161500
1,000167	0,5	0,163450
1,008500	0,5	0,149850
1,016833	0,5	0,186100
1,025167	0,5	0,155200
1,033500	0,5	0,153650
1,041833	0,5	0,160500
1,050167	0,5	0,178000
1,058500	0,5	0,219250
1,066833	0,5	0,200550
1,075167	0,5	0,199650
1,083500	0,5	0,198700
1,091833	0,5	0,207500
1,100167	0,5	0,201050
1,108500	0,5	0,208900
1,116833	0,5	0,198750
1,125167	0,5	0,203550
1,133500	0,5	0,202850
1,141833	0,5	0,212200
1,150167	0,5	0,203450
1,158500	0,5	0,216900
1,166833	0,5	0,221600
1,175167	0,5	0,201500
1,183500	0,5	0,202200
1,191833	0,5	0,208250
1,200167	0,5	0,224100
1,208500	0,5	0,257800
1,216833	0,5	0,260100
1,225167	0,5	0,252300
1,233500	0,5	0,253750
1,241833	0,5	0,247900
1,250167	0,5	0,251950
1,258500	0,5	0,251700
1,266833	0,5	0,254900
1,275167	0,5	0,247800
1,283500	0,5	0,251400
1,291833	0,5	0,249750
1,300167	0,5	0,253850
1,308500	0,5	0,263150
1,316833	0,5	0,262400
1,325167	0,5	0,239750
1,333500	0,5	0,249500
1,341833	0,5	0,256150
1,350167	0,5	0,291550
1,358500	0,5	0,303500
1,366833	0,5	0,300400
1,375167	0,5	0,294550
1,383500	0,5	0,296600
1,391833	0,5	0,292250
1,400167	0,5	0,290300
1,408500	0,5	0,291500
1,416833	0,5	0,285450
1,425167	0,5	0,289650
1,433500	0,5	0,287900
1,441833	0,5	0,294900
1,450167	0,5	0,295450
1,458500	0,5	0,318650
1,466833	0,5	0,295300
1,475167	0,5	0,286600
1,483500	0,5	0,287500
1,491833	0,5	0,302500
1,500167	0,5	0,325600
1,508500	0,5	0,335850
1,516833	0,5	0,327600
1,525167	0,5	0,336600
1,533500	0,5	0,330700
1,541833	0,5	0,337550
1,550167	0,5	0,326550
1,558500	0,5	0,291700
1,566833	0,5	0,151800
1,575167	0,5	-0,248200
1,583500	0,5	-0,940350
1,591833	0,5	-1,576250
1,600167	0,5	-1,515250
1,608500	0,5	-0,394150
1,616833	0,5	1,925350
1,625167	0,5	5,361700
1,633500	0,5	8,973750
1,641833	0,5	11,211350
1,650167	0,5	11,302950
1,658500	0,5	9,810550
1,666833	0,5	7,924050
1,675167	0,5	6,341800
1,683500	0,5	5,270200
1,691833	0,5	4,600050
1,700167	0,5	4,226250
1,708500	0,5	4,036300
1,716833	0,5	3,977500
1,725167	0,5	3,939650
1,733500	0,5	3,853050
1,741833	0,5	3,690050
1,750167	0,5	3,554600
1,758500	0,5	3,399850
1,766833	0,5	3,237050
1,775167	0,5	3,106550
1,783500	0,5	3,071550
1,791833	0,5	3,226900
1,800167	0,5	3,531300
1,808500	0,5	3,913450
1,816833	0,5	4,238300
1,825167	0,5	4,425800
1,833500	0,5	4,455450
1,841833	0,5	4,367500
1,850167	0,5	4,196800
1,858500	0,5	3,990350
1,866833	0,5	3,763150
1,875167	0,5	3,564950
1,883500	0,5	3,381450
1,891833	0,5	3,202300
1,900167	0,5	3,068300
1,908500	0,5	2,902050
1,916833	0,5	2,747650
1,925167	0,5	2,624500
1,933500	0,5	2,522350
1,941833	0,5	2,454200
1,950167	0,5	2,361600
1,958500	0,5	2,270900
1,966833	0,5	2,213500
1,975167	0,5	2,170050
1,983500	0,5	2,133500
1,991833	0,5	2,077300
2,000167	0,5	2,013400
2,008500	0,5	1,937300
2,016833	0,5	1,891600
2,025167	0,5	1,849150
2,033500	0,5	1,839750
2,041833	0,5	1,847200
2,050167	0,5	1,954600
2,058500	0,5	2,117200
2,066833	0,5	2,442150
2,075167	0,5	2,815800
2,083500	0,5	3,061400
2,091833	0,5	3,054750
2,100167	0,5	2,867750
2,108500	0,5	2,743550
2,116833	0,5	2,892800
2,125167	0,5	3,475800
2,133500	0,5	4,877600
2,141833	0,5	7,599500
2,150167	0,5	11,345000
2,158500	0,5	14,468600
2,166833	0,5	15,213350
2,175167	0,5	13,631300
2,183500	0,5	11,063850
2,191833	0,5	8,722700
2,200167	0,5	7,016450
2,208500	0,5	5,872200
2,216833	0,5	5,184450
2,225167	0,5	4,800850
2,233500	0,5	4,600150
2,241833	0,5	4,495450
2,250167	0,5	4,375750
2,258500	0,5	4,282350
2,266833	0,5	4,208850
2,275167	0,5	4,179250
2,283500	0,5	4,166750
2,291833	0,5	4,192350
2,300167	0,5	4,231300
2,308500	0,5	4,280000
2,316833	0,5	4,342000
2,325167	0,5	4,391150
2,333500	0,5	4,451000
2,341833	0,5	4,540250
2,350167	0,5	4,602500
2,358500	0,5	4,649200
2,366833	0,5	4,713150
2,375167	0,5	4,769300
2,383500	0,5	4,858300
2,391833	0,5	4,920750
2,400167	0,5	4,975250
2,408500	0,5	5,009150
2,416833	0,5	5,059200
2,425167	0,5	5,095400
2,433500	0,5	5,134700
2,441833	0,5	5,166050
2,450167	0,5	5,199300
2,458500	0,5	5,228400
2,466833	0,5	5,263850
2,475167	0,5	5,288850
2,483500	0,5	5,320750
2,491833	0,5	5,360650
2,500167	0,5	5,365450
2,508500	0,5	5,371300
2,516833	0,5	5,387500
2,525167	0,5	5,407000
2,533500	0,5	5,430050
2,541833	0,5	5,443600
2,550167	0,5	5,432050
2,558500	0,5	5,436600
2,566833	0,5	5,423150
2,575167	0,5	5,413700
2,583500	0,5	5,398600
2,591833	0,5	5,379200
2,600167	0,5	5,348050
2,608500	0,5	5,322100
2,616833	0,5	5,289850
2,625167	0,5	5,252200
2,633500	0,5	5,228950
2,641833	0,5	5,214450
2,650167	0,5	5,163000
2,658500	0,5	5,121400
2,666833	0,5	5,086800
2,675167	0,5	5,058500
2,683500	0,5	5,029150
2,691833	0,5	4,961700
2,700167	0,5	4,912550
2,708500	0,5	4,849900
2,716833	0,5	4,793750
2,725167	0,5	4,723750
2,733500	0,5	4,663300
2,741833	0,5	4,588750
2,750167	0,5	4,523850
2,758500	0,5	4,448350
2,766833	0,5	4,378550
2,775167	0,5	4,288000
2,783500	0,5	4,235000
2,791833	0,5	4,162300
2,800167	0,5	4,080550
2,808500	0,5	4,004100
2,816833	0,5	3,944300
2,825167	0,5	3,888750
2,833500	0,5	3,829700
2,841833	0,5	3,751900
2,850167	0,5	3,686050
2,858500	0,5	3,629000
2,866833	0,5	3,587050
2,875167	0,5	3,562250
2,883500	0,5	3,558950
2,891833	0,5	3,582050
2,900167	0,5	3,608550
2,908500	0,5	3,630750
2,916833	0,5	3,603800
2,925167	0,5	3,536100
2,933500	0,5	3,474400
2,941833	0,5	3,409100
2,950167	0,5	3,416350
2,958500	0,5	3,554850
2,966833	0,5	3,879350
2,975167	0,5	4,420600
2,983500	0,5	5,077150
2,991833	0,5	5,723100
3,000167	0,5	6,137700
3,008500	0,5	6,173100
3,016833	0,5	5,779400
3,025167	0,5	5,103800
3,033500	0,5	4,331700
3,041833	0,5	3,620150
3,050167	0,5	3,060950
3,058500	0,5	2,653950
3,066833	0,5	2,380100
3,075167	0,5	2,170100
3,083500	0,5	2,042700
3,091833	0,5	1,907000
3,100167	0,5	1,813850
3,108500	0,5	1,733950
3,116833	0,5	1,683650
3,125167	0,5	1,635900
3,133500	0,5	1,576050
3,141833	0,5	1,503750
3,150167	0,5	1,455450
3,158500	0,5	1,399700
3,166833	0,5	1,351550
3,175167	0,5	1,295400
3,183500	0,5	1,245900
3,191833	0,5	1,198200
3,200167	0,5	1,153650
3,208500	0,5	1,110350
3,216833	0,5	1,055400
3,225167	0,5	1,017950
3,233500	0,5	0,988600
3,241833	0,5	0,926550
3,250167	0,5	0,891850
3,258500	0,5	0,857800
3,266833	0,5	0,839850
3,275167	0,5	0,830400
3,283500	0,5	0,793150
3,291833	0,5	0,766450
3,300167	0,5	0,723300
3,308500	0,5	0,696200
3,316833	0,5	0,653800
3,325167	0,5	0,625000
3,333500	0,5	0,587950
3,341833	0,5	0,561700
3,350167	0,5	0,539850
3,358500	0,5	0,504150
3,366833	0,5	0,471050
3,375167	0,5	0,470400
3,383500	0,5	0,437350
3,391833	0,5	0,410500
3,400167	0,5	0,392050
3,408500	0,5	0,376500
3,416833	0,5	0,385850
3,425167	0,5	0,379800
3,433500	0,5	0,366050
3,441833	0,5	0,343700
3,450167	0,5	0,329100
3,458500	0,5	0,311550
3,466833	0,5	0,299550
3,475167	0,5	0,273100
3,483500	0,5	0,255300
3,491833	0,5	0,229900
3,500167	0,5	0,207650
3,508500	0,5	0,177700
3,516833	0,5	0,161900
3,525167	0,5	0,156900
3,533500	0,5	0,128700
3,541833	0,5	0,102400
3,550167	0,5	0,092200
3,558500	0,5	0,083250
3,566833	0,5	0,095250
3,575167	0,5	0,080500
3,583500	0,5	0,063650
3,591833	0,5	0,055650
3,600167	0,5	0,044500
3,608500	0,5	0,036500
3,616833	0,5	0,029800
3,625167	0,5	0,018000
3,633500	0,5	0,008050
3,641833	0,5	0,006350
3,650167	0,5	0,001750
3,658500	0,5	-0,002000
3,666833	0,5	-0,010550
3,675167	0,5	0,001350
3,683500	0,5	-0,026450
3,691833	0,5	-0,036950
3,700167	0,5	-0,037950
3,708500	0,5	-0,022400
3,716833	0,5	-0,010900
3,725167	0,5	-0,022800
3,733500	0,5	-0,034250
3,741833	0,5	-0,038950
3,750167	0,5	-0,047700
3,758500	0,5	-0,053850
3,766833	0,5	-0,059350
3,775167	0,5	-0,068650
3,783500	0,5	-0,075800
3,791833	0,5	-0,081250
3,800167	0,5	-0,078600
3,808500	0,5	-0,098250
3,816833	0,5	-0,087150
3,825167	0,5	-0,091700
3,833500	0,5	-0,103700
3,841833	0,5	-0,107850
3,850167	0,5	-0,094150
3,858500	0,5	-0,078550
3,866833	0,5	-0,064950
3,875167	0,5	-0,074750
3,883500	0,5	-0,067050
3,891833	0,5	-0,074300
3,900167	0,5	-0,068700
3,908500	0,5	-0,078500
3,916833	0,5	-0,087700
3,925167	0,5	-0,100850
3,933500	0,5	-0,113900
3,941833	0,5	-0,118400
3,950167	0,5	-0,128100
3,958500	0,5	-0,143700
3,966833	0,5	-0,133350
3,975167	0,5	-0,150250
3,983500	0,5	-0,162600
3,991833	0,5	-0,165450
4,000167	0,5	-0,156350
4,008500	0,5	-0,129300
4,016833	0,5	-0,127400
4,025167	0,5	-0,126150
4,033500	0,5	-0,131050
4,041833	0,5	-0,123650
4,050167	0,5	-0,126250
4,058500	0,5	-0,121300
4,066833	0,5	-0,119250
4,075167	0,5	-0,101400
4,083500	0,5	-0,085500
4,091833	0,5	-0,059500
4,100167	0,5	-0,034550
4,108500	0,5	-0,007050
4,116833	0,5	0,030900
4,125167	0,5	0,033450
4,133500	0,5	0,039450
4,141833	0,5	0,034500
4,150167	0,5	0,038500
4,158500	0,5	0,036600
4,166833	0,5	0,013750
4,175167	0,5	-0,025850
4,183500	0,5	-0,050150
4,191833	0,5	-0,072950
4,200167	0,5	-0,086950
4,208500	0,5	-0,101900
4,216833	0,5	-0,112450
4,225167	0,5	-0,127350
4,233500	0,5	-0,130200
4,241833	0,5	-0,133900
4,250167	0,5	-0,136150
4,258500	0,5	-0,139300
4,266833	0,5	-0,135800
4,275167	0,5	-0,158000
4,283500	0,5	-0,158400
4,291833	0,5	-0,161800
4,300167	0,5	-0,146400
4,308500	0,5	-0,131800
4,316833	0,5	-0,136900
4,325167	0,5	-0,133750
4,333500	0,5	-0,138800
4,341833	0,5	-0,135450
4,350167	0,5	-0,145000
4,358500	0,5	-0,139250
4,366833	0,5	-0,149200
4,375167	0,5	-0,145550
4,383500	0,5	-0,149150
4,391833	0,5	-0,146950
4,400167	0,5	-0,155700
4,408500	0,5	-0,134100
4,416833	0,5	-0,146550
4,425167	0,5	-0,151100
4,433500	0,5	-0,146050
4,441833	0,5	-0,134050
4,450167	0,5	-0,105000
4,458500	0,5	-0,093900
4,466833	0,5	-0,094100
4,475167	0,5	-0,091150
4,483500	0,5	-0,092700
4,491833	0,5	-0,094950
4,500167	0,5	-0,101850
4,508500	0,5	-0,110000
4,516833	0,5	-0,112800
4,525167	0,5	-0,120400
4,533500	0,5	-0,116600
4,541833	0,5	-0,132400
4,550167	0,5	-0,132250
4,558500	0,5	-0,115750
4,566833	0,5	-0,122350
4,575167	0,5	-0,130600
4,583500	0,5	-0,121100
4,591833	0,5	-0,111450
4,600167	0,5	-0,078850
4,608500	0,5	-0,073150
4,616833	0,5	-0,065000
4,625167	0,5	-0,061550
4,633500	0,5	-0,061300
4,641833	0,5	-0,032250
4,650167	0,5	-0,013300
4,658500	0,5	0,001650
4,666833	0,5	0,024450
4,675167	0,5	0,055400
4,683500	0,5	0,094750
4,691833	0,5	0,125500
4,700167	0,5	0,180850
4,708500	0,5	0,256700
4,716833	0,5	0,302200
4,725167	0,5	0,375950
4,733500	0,5	0,465050
4,741833	0,5	0,577650
4,750167	0,5	0,693050
4,758500	0,5	0,804600
4,766833	0,5	0,913600
4,775167	0,5	1,027750
4,783500	0,5	1,118800
4,791833	0,5	1,187350
4,800167	0,5	1,221750
4,808500	0,5	1,227750
4,816833	0,5	1,189250
4,825167	0,5	1,119300
4,833500	0,5	1,031700
4,841833	0,5	0,907850
4,850167	0,5	0,794650
4,858500	0,5	0,681100
4,866833	0,5	0,561250
4,875167	0,5	0,469100
4,883500	0,5	0,405200
4,891833	0,5	0,361600
4,900167	0,5	0,341500
4,908500	0,5	0,305250
4,916833	0,5	0,301850
4,925167	0,5	0,303250
4,933500	0,5	0,326850
4,941833	0,5	0,346500
4,950167	0,5	0,391000
4,958500	0,5	0,442350
4,966833	0,5	0,526200
4,975167	0,5	0,630000
4,983500	0,5	0,762300
4,991833	0,5	0,902800
5,000167	0,5	1,090550
5,008500	0,5	1,263300
5,016833	0,5	1,434350
5,025167	0,5	1,600400
5,033500	0,5	1,743300
5,041833	0,5	1,863350
5,050167	0,5	1,912200
5,058500	0,5	1,902600
5,066833	0,5	1,828800
5,075167	0,5	1,710200
5,083500	0,5	1,550600
5,091833	0,5	1,374200
5,100167	0,5	1,182800
5,108500	0,5	1,003850
5,116833	0,5	0,828650
5,125167	0,5	0,686250
5,133500	0,5	0,548300
5,141833	0,5	0,453500
5,150167	0,5	0,381500
5,158500	0,5	0,312250
5,166833	0,5	0,263800
5,175167	0,5	0,235900
5,183500	0,5	0,232150
5,191833	0,5	0,235550
5,200167	0,5	0,227900
5,208500	0,5	0,213800
5,216833	0,5	0,212200
5,225167	0,5	0,209200
5,233500	0,5	0,206600
5,241833	0,5	0,207400
5,250167	0,5	0,210450
5,258500	0,5	0,204250
5,266833	0,5	0,208950
5,275167	0,5	0,202450
5,283500	0,5	0,203250
5,291833	0,5	0,209050
5,300167	0,5	0,212400
5,308500	0,5	0,194750
5,316833	0,5	0,193000
5,325167	0,5	0,191850
5,333500	0,5	0,213750
5,341833	0,5	0,224050
5,350167	0,5	0,230950
5,358500	0,5	0,227100
5,366833	0,5	0,230450
5,375167	0,5	0,227900
5,383500	0,5	0,231250
5,391833	0,5	0,230950
5,400167	0,5	0,228000
5,408500	0,5	0,232050
5,416833	0,5	0,233100
5,425167	0,5	0,230900
5,433500	0,5	0,226400
5,441833	0,5	0,245350
5,450167	0,5	0,241500
5,458500	0,5	0,236250
5,466833	0,5	0,240050
5,475167	0,5	0,252250
5,483500	0,5	0,275350
5,491833	0,5	0,290100
5,500167	0,5	0,285050
5,508500	0,5	0,298450
5,516833	0,5	0,295300
5,525167	0,5	0,307200
5,533500	0,5	0,309750
5,541833	0,5	0,317250
5,550167	0,5	0,317950
5,558500	0,5	0,325150
5,566833	0,5	0,333100
5,575167	0,5	0,322650
5,583500	0,5	0,325250
5,591833	0,5	0,351600
5,600167	0,5	0,347450
5,608500	0,5	0,354500
5,616833	0,5	0,373550
5,625167	0,5	0,393650
5,633500	0,5	0,437000
5,641833	0,5	0,450950
5,650167	0,5	0,485150
5,658500	0,5	0,514450
5,666833	0,5	0,571650
5,675167	0,5	0,621750
5,683500	0,5	0,692700
5,691833	0,5	0,766700
5,700167	0,5	0,853400
5,708500	0,5	0,941900
5,716833	0,5	1,036450
5,725167	0,5	1,103800
5,733500	0,5	1,166800
5,741833	0,5	1,211250
5,750167	0,5	1,206400
5,758500	0,5	1,187700
5,766833	0,5	1,144850
5,775167	0,5	1,094150
5,783500	0,5	1,034650
5,791833	0,5	0,950350
5,800167	0,5	0,865250
5,808500	0,5	0,795800
5,816833	0,5	0,727450
5,825167	0,5	0,673500
5,833500	0,5	0,619450
5,841833	0,5	0,582500
5,850167	0,5	0,547900
5,858500	0,5	0,530500
5,866833	0,5	0,515050
5,875167	0,5	0,497800
5,883500	0,5	0,483150
5,891833	0,5	0,488000
5,900167	0,5	0,469450
5,908500	0,5	0,470300
5,916833	0,5	0,473250
5,925167	0,5	0,483700
5,933500	0,5	0,500850
5,941833	0,5	0,487300
5,950167	0,5	0,489550
5,958500	0,5	0,492700
5,966833	0,5	0,499750
5,975167	0,5	0,497750
5,983500	0,5	0,504600
5,991833	0,5	0,503050
6,000167	0,5	0,507100
6,008500	0,5	0,510900
6,016833	0,5	0,510000
6,025167	0,5	0,501300
6,033500	0,5	0,515300
6,041833	0,5	0,512000
6,050167	0,5	0,506900
6,058500	0,5	0,508600
6,066833	0,5	0,519050
6,075167	0,5	0,537800
6,083500	0,5	0,554800
6,091833	0,5	0,555800
6,100167	0,5	0,562450
6,108500	0,5	0,560900
6,116833	0,5	0,564300
6,125167	0,5	0,563950
6,133500	0,5	0,562450
6,141833	0,5	0,564650
6,150167	0,5	0,568000
6,158500	0,5	0,566150
6,166833	0,5	0,555700
6,175167	0,5	0,560550
6,183500	0,5	0,572850
6,191833	0,5	0,567300
6,200167	0,5	0,564650
6,208500	0,5	0,570350
6,216833	0,5	0,584250
6,225167	0,5	0,609200
6,233500	0,5	0,609650
6,241833	0,5	0,613800
6,250167	0,5	0,611000
6,258500	0,5	0,618050
6,266833	0,5	0,616450
6,275167	0,5	0,620250
6,283500	0,5	0,615900
6,291833	0,5	0,620250
6,300167	0,5	0,623500
6,308500	0,5	0,620100
6,316833	0,5	0,617400
6,325167	0,5	0,624250
6,333500	0,5	0,628750
6,341833	0,5	0,625500
6,350167	0,5	0,626300
6,358500	0,5	0,629050
6,366833	0,5	0,646100
6,375167	0,5	0,656850
6,383500	0,5	0,669250
6,391833	0,5	0,666300
6,400167	0,5	0,676150
6,408500	0,5	0,671800
6,416833	0,5	0,675300
6,425167	0,5	0,675550
6,433500	0,5	0,676500
6,441833	0,5	0,675500
6,450167	0,5	0,678200
6,458500	0,5	0,681200
6,466833	0,5	0,677200
6,475167	0,5	0,690800
6,483500	0,5	0,690950
6,491833	0,5	0,682300
6,500167	0,5	0,687350
6,508500	0,5	0,689400
6,516833	0,5	0,713100
6,525167	0,5	0,719300
6,533500	0,5	0,715700
6,541833	0,5	0,726950
6,550167	0,5	0,723250
6,558500	0,5	0,729100
6,566833	0,5	0,725750
6,575167	0,5	0,731550
6,583500	0,5	0,729950
6,591833	0,5	0,735550
6,600167	0,5	0,737550
6,608500	0,5	0,734100
6,616833	0,5	0,725550
6,625167	0,5	0,745550
6,633500	0,5	0,738200
6,641833	0,5	0,734850
6,650167	0,5	0,737800
6,658500	0,5	0,744600
6,666833	0,5	0,766350
6,675167	0,5	0,766750
6,683500	0,5	0,764850
6,691833	0,5	0,766100
6,700167	0,5	0,772950
6,708500	0,5	0,772650
6,716833	0,5	0,776050
6,725167	0,5	0,773350
6,733500	0,5	0,773250
6,741833	0,5	0,773250
6,750167	0,5	0,774200
6,758500	0,5	0,761800
6,766833	0,5	0,761200
6,775167	0,5	0,773450
6,783500	0,5	0,766250
6,791833	0,5	0,763200
6,800167	0,5	0,767850
6,808500	0,5	0,772150
6,816833	0,5	0,789950
6,825167	0,5	0,785250
6,833500	0,5	0,784700
6,841833	0,5	0,781600
6,850167	0,5	0,784350
6,858500	0,5	0,781850
6,866833	0,5	0,780700
6,875167	0,5	0,778500
6,883500	0,5	0,777000
6,891833	0,5	0,774850
6,900167	0,5	0,771950
6,908500	0,5	0,767550
6,916833	0,5	0,762150
6,925167	0,5	0,765650
6,933500	0,5	0,755050
6,941833	0,5	0,753100
6,950167	0,5	0,753950
6,958500	0,5	0,763550
6,966833	0,5	0,774150
6,975167	0,5	0,771800
6,983500	0,5	0,768050
6,991833	0,5	0,768300
7,000167	0,5	0,769150
7,008500	0,5	0,765800
7,016833	0,5	0,766000
7,025167	0,5	0,762250
7,033500	0,5	0,760550
7,041833	0,5	0,754700
7,050167	0,5	0,752250
7,058500	0,5	0,744450
7,066833	0,5	0,748050
7,075167	0,5	0,744450
7,083500	0,5	0,739400
7,091833	0,5	0,737400
7,100167	0,5	0,743250
7,108500	0,5	0,752050
7,116833	0,5	0,764650
7,125167	0,5	0,760150
7,133500	0,5	0,762800
7,141833	0,5	0,757850
7,150167	0,5	0,760550
7,158500	0,5	0,755450
7,166833	0,5	0,752350
7,175167	0,5	0,750300
7,183500	0,5	0,752250
7,191833	0,5	0,750500
7,200167	0,5	0,746600
7,208500	0,5	0,745250
7,216833	0,5	0,757750
7,225167	0,5	0,763100
7,233500	0,5	0,764750
7,241833	0,5	0,773500
7,250167	0,5	0,786750
7,258500	0,5	0,804000
7,266833	0,5	0,803700
7,275167	0,5	0,799750
7,283500	0,5	0,786600
7,291833	0,5	0,776150
7,300167	0,5	0,763450
7,308500	0,5	0,757550
7,316833	0,5	0,746150
7,325167	0,5	0,750600
7,333500	0,5	0,759750
7,341833	0,5	0,778950
7,350167	0,5	0,788150
7,358500	0,5	0,807250
7,366833	0,5	0,808800
7,375167	0,5	0,793550
7,383500	0,5	0,769050
7,391833	0,5	0,744200
7,400167	0,5	0,725100
7,408500	0,5	0,709900
7,416833	0,5	0,693550
7,425167	0,5	0,679450
7,433500	0,5	0,674050
7,441833	0,5	0,673350
7,450167	0,5	0,670250
7,458500	0,5	0,666600
7,466833	0,5	0,670100
7,475167	0,5	0,669450
7,483500	0,5	0,673300
7,491833	0,5	0,676200
7,500167	0,5	0,676100
7,508500	0,5	0,682100
7,516833	0,5	0,678900
7,525167	0,5	0,667850
7,533500	0,5	0,661850
7,541833	0,5	0,655050
7,550167	0,5	0,656700
7,558500	0,5	0,653550
7,566833	0,5	0,642000
7,575167	0,5	0,632900
7,583500	0,5	0,629900
7,591833	0,5	0,624800
7,600167	0,5	0,622900
7,608500	0,5	0,623800
7,616833	0,5	0,623800
7,625167	0,5	0,626800
7,633500	0,5	0,622850
7,641833	0,5	0,617800
7,650167	0,5	0,601000
7,658500	0,5	0,600350
7,666833	0,5	0,588850
7,675167	0,5	0,583300
7,683500	0,5	0,590900
7,691833	0,5	0,621550
7,700167	0,5	0,689550
7,708500	0,5	0,790150
7,716833	0,5	0,935900
7,725167	0,5	1,127650
7,733500	0,5	1,346700
7,741833	0,5	1,589000
7,750167	0,5	1,832500
7,758500	0,5	2,098550
7,766833	0,5	2,426950
7,775167	0,5	2,915450
7,783500	0,5	3,762950
7,791833	0,5	5,318700
7,800167	0,5	8,077800
7,808500	0,5	12,428500
7,816833	0,5	18,114700
7,825167	0,5	23,959650
7,833500	0,5	28,161500
7,841833	0,5	29,234750
7,850167	0,5	26,917400
7,858500	0,5	22,172400
7,866833	0,5	16,625900
7,875167	0,5	11,595500
7,883500	0,5	7,757300
7,891833	0,5	5,149050
7,900167	0,5	3,523050
7,908500	0,5	2,548150
7,916833	0,5	1,974250
7,925167	0,5	1,621050
7,933500	0,5	1,398550
7,941833	0,5	1,244350
7,950167	0,5	1,134900
7,958500	0,5	1,054600
7,966833	0,5	0,985000
7,975167	0,5	0,935100
7,983500	0,5	0,898550
7,991833	0,5	0,874550
8,000167	0,5	0,859200
8,008500	0,5	0,846250
8,016833	0,5	0,827450
8,025167	0,5	0,820800
8,033500	0,5	0,809950
8,041833	0,5	0,801750
8,050167	0,5	0,792750
8,058500	0,5	0,779050
8,066833	0,5	0,761350
8,075167	0,5	0,745650
8,083500	0,5	0,727000
8,091833	0,5	0,709100
8,100167	0,5	0,690500
8,108500	0,5	0,680150
8,116833	0,5	0,662100
8,125167	0,5	0,654850
8,133500	0,5	0,646400
8,141833	0,5	0,643300
8,150167	0,5	0,643850
8,158500	0,5	0,644250
8,166833	0,5	0,640750
8,175167	0,5	0,636250
8,183500	0,5	0,632650
8,191833	0,5	0,626300
8,200167	0,5	0,623600
8,208500	0,5	0,618700
8,216833	0,5	0,615150
8,225167	0,5	0,608650
8,233500	0,5	0,606800
8,241833	0,5	0,600350
8,250167	0,5	0,603050
8,258500	0,5	0,598050
8,266833	0,5	0,593750
8,275167	0,5	0,589850
8,283500	0,5	0,588350
8,291833	0,5	0,589450
8,300167	0,5	0,586150
8,308500	0,5	0,582800
8,316833	0,5	0,577600
8,325167	0,5	0,573250
8,333500	0,5	0,564750
8,341833	0,5	0,562100
8,350167	0,5	0,560800
8,358500	0,5	0,558800
8,366833	0,5	0,554600
8,375167	0,5	0,552350
8,383500	0,5	0,544500
8,391833	0,5	0,540850
8,400167	0,5	0,543350
8,408500	0,5	0,538800
8,416833	0,5	0,537200
8,425167	0,5	0,540350
8,433500	0,5	0,550950
8,441833	0,5	0,566800
8,450167	0,5	0,598150
8,458500	0,5	0,667150
8,466833	0,5	0,796000
8,475167	0,5	1,012150
8,483500	0,5	1,319600
8,491833	0,5	1,696100
8,500167	0,5	2,072200
8,508500	0,5	2,416650
8,516833	0,5	2,738300
8,525167	0,5	3,090050
8,533500	0,5	3,606900
8,541833	0,5	4,561450
8,550167	0,5	6,483900
8,558500	0,5	10,199550
8,566833	0,5	16,445650
8,575167	0,5	24,890350
8,583500	0,5	33,440200
8,591833	0,5	38,901901
8,600167	0,5	39,072151
8,608500	0,5	34,139101
8,616833	0,5	26,349550
8,625167	0,5	18,385250
8,633500	0,5	11,983600
8,641833	0,5	7,625350
8,650167	0,5	4,963050
8,658500	0,5	3,435500
8,666833	0,5	2,569950
8,675167	0,5	2,071500
8,683500	0,5	1,768000
8,691833	0,5	1,578750
8,700167	0,5	1,448700
8,708500	0,5	1,360900
8,716833	0,5	1,295950
8,725167	0,5	1,252600
8,733500	0,5	1,232850
8,741833	0,5	1,219700
8,750167	0,5	1,220700
8,758500	0,5	1,230700
8,766833	0,5	1,225100
8,775167	0,5	1,206550
8,783500	0,5	1,162050
8,791833	0,5	1,097300
8,800167	0,5	1,037300
8,808500	0,5	0,990300
8,816833	0,5	0,952200
8,825167	0,5	0,924100
8,833500	0,5	0,903950
8,841833	0,5	0,899750
8,850167	0,5	0,892350
8,858500	0,5	0,886750
8,866833	0,5	0,883550
8,875167	0,5	0,882350
8,883500	0,5	0,881300
8,891833	0,5	0,872950
8,900167	0,5	0,869550
8,908500	0,5	0,862850
8,916833	0,5	0,861950
8,925167	0,5	0,859650
8,933500	0,5	0,862700
8,941833	0,5	0,858000
8,950167	0,5	0,851700
8,958500	0,5	0,847800
8,966833	0,5	0,839550
8,975167	0,5	0,831950
8,983500	0,5	0,823000
8,991833	0,5	0,822300
9,000167	0,5	0,821050
9,008500	0,5	0,822450
9,016833	0,5	0,826300
9,025167	0,5	0,835450
9,033500	0,5	0,846350
9,041833	0,5	0,856450
9,050167	0,5	0,868350
9,058500	0,5	0,877450
9,066833	0,5	0,893050
9,075167	0,5	0,912100
9,083500	0,5	0,925750
9,091833	0,5	0,943350
9,100167	0,5	0,957950
9,108500	0,5	0,971950
9,116833	0,5	0,984900
9,125167	0,5	0,992900
9,133500	0,5	1,006550
9,141833	0,5	1,015100
9,150167	0,5	1,027200
9,158500	0,5	1,039150
9,166833	0,5	1,052400
9,175167	0,5	1,072900
9,183500	0,5	1,089700
9,191833	0,5	1,106300
9,200167	0,5	1,118750
9,208500	0,5	1,131400
9,216833	0,5	1,142400
9,225167	0,5	1,159950
9,233500	0,5	1,176350
9,241833	0,5	1,196650
9,250167	0,5	1,211500
9,258500	0,5	1,231100
9,266833	0,5	1,241850
9,275167	0,5	1,250550
9,283500	0,5	1,255350
9,291833	0,5	1,253800
9,300167	0,5	1,249400
9,308500	0,5	1,250500
9,316833	0,5	1,252450
9,325167	0,5	1,259650
9,333500	0,5	1,266050
9,341833	0,5	1,272750
9,350167	0,5	1,278450
9,358500	0,5	1,284400
9,366833	0,5	1,293000
9,375167	0,5	1,300900
9,383500	0,5	1,305250
9,391833	0,5	1,312550
9,400167	0,5	1,315850
9,408500	0,5	1,322200
9,416833	0,5	1,328400
9,425167	0,5	1,330200
9,433500	0,5	1,338800
9,441833	0,5	1,344200
9,450167	0,5	1,346450
9,458500	0,5	1,354100
9,466833	0,5	1,360650
9,475167	0,5	1,369100
9,483500	0,5	1,374450
9,491833	0,5	1,382950
9,500167	0,5	1,389100
9,508500	0,5	1,393500
9,516833	0,5	1,400150
9,525167	0,5	1,402850
9,533500	0,5	1,408450
9,541833	0,5	1,413850
9,550167	0,5	1,418750
9,558500	0,5	1,423100
9,566833	0,5	1,426600
9,575167	0,5	1,430350
9,583500	0,5	1,436150
9,591833	0,5	1,442450
9,600167	0,5	1,444250
9,608500	0,5	1,446300
9,616833	0,5	1,451950
9,625167	0,5	1,459550
9,633500	0,5	1,463750
9,641833	0,5	1,469700
9,650167	0,5	1,475400
9,658500	0,5	1,480800
9,666833	0,5	1,486750
9,675167	0,5	1,492150
9,683500	0,5	1,495050
9,691833	0,5	1,502800
9,700167	0,5	1,509900
9,708500	0,5	1,516800
9,716833	0,5	1,527100
9,725167	0,5	1,533700
9,733500	0,5	1,545500
9,741833	0,5	1,552950
9,750167	0,5	1,561600
9,758500	0,5	1,563800
9,766833	0,5	1,565350
9,775167	0,5	1,566550
9,783500	0,5	1,561000
9,791833	0,5	1,558400
9,800167	0,5	1,556100
9,808500	0,5	1,554450
9,816833	0,5	1,551350
9,825167	0,5	1,548000
9,833500	0,5	1,550550
9,841833	0,5	1,551050
9,850167	0,5	1,552300
9,858500	0,5	1,552950
9,866833	0,5	1,554500
9,875167	0,5	1,553600
9,883500	0,5	1,558250
9,891833	0,5	1,557900
9,900167	0,5	1,557550
9,908500	0,5	1,558350
9,916833	0,5	1,559000
9,925167	0,5	1,562200
9,933500	0,5	1,564650
9,941833	0,5	1,565650
9,950167	0,5	1,566350
9,958500	0,5	1,570850
9,966833	0,5	1,570350
9,975167	0,5	1,573350
9,983500	0,5	1,571850
9,991833	0,5	1,573050
10,000167	0,5	1,572650
10,008500	0,5	1,572100
10,016833	0,5	1,572250
10,025167	0,5	1,572050
10,033500	0,5	1,574850
10,041833	0,5	1,570450
10,050167	0,5	1,569850
10,058500	0,5	1,568600
10,066833	0,5	1,570300
10,075167	0,5	1,572600
10,083500	0,5	1,572250
10,091833	0,5	1,570550
10,100167	0,5	1,573400
10,108500	0,5	1,572950
10,116833	0,5	1,570000
10,125167	0,5	1,569750
10,133500	0,5	1,569850
10,141833	0,5	1,567700
10,150167	0,5	1,566600
10,158500	0,5	1,564050
10,166833	0,5	1,556250
10,175167	0,5	1,556000
10,183500	0,5	1,557150
10,191833	0,5	1,553850
10,200167	0,5	1,549550
10,208500	0,5	1,546100
10,216833	0,5	1,545200
10,225167	0,5	1,545100
10,233500	0,5	1,546250
10,241833	0,5	1,544450
10,250167	0,5	1,540250
10,258500	0,5	1,541500
10,266833	0,5	1,541550
10,275167	0,5	1,539250
10,283500	0,5	1,537250
10,291833	0,5	1,538200
10,300167	0,5	1,537050
10,308500	0,5	1,535500
10,316833	0,5	1,536300
10,325167	0,5	1,539450
10,333500	0,5	1,537350
10,341833	0,5	1,528750
10,350167	0,5	1,519200
10,358500	0,5	1,512600
10,366833	0,5	1,505750
10,375167	0,5	1,499450
10,383500	0,5	1,489750
10,391833	0,5	1,484600
10,400167	0,5	1,474550
10,408500	0,5	1,467450
10,416833	0,5	1,460550
10,425167	0,5	1,451850
10,433500	0,5	1,443300
10,441833	0,5	1,436800
10,450167	0,5	1,431800
10,458500	0,5	1,419600
10,466833	0,5	1,414800
10,475167	0,5	1,407400
10,483500	0,5	1,401700
10,491833	0,5	1,390050
10,500167	0,5	1,383600
10,508500	0,5	1,378200
10,516833	0,5	1,377600
10,525167	0,5	1,370800
10,533500	0,5	1,364950
10,541833	0,5	1,363900
10,550167	0,5	1,356700
10,558500	0,5	1,353550
10,566833	0,5	1,350150
10,575167	0,5	1,344500
10,583500	0,5	1,345550
10,591833	0,5	1,339500
10,600167	0,5	1,338900
10,608500	0,5	1,332900
10,616833	0,5	1,332350
10,625167	0,5	1,330500
10,633500	0,5	1,325450
10,641833	0,5	1,323850
10,650167	0,5	1,318000
10,658500	0,5	1,319700
10,666833	0,5	1,320950
10,675167	0,5	1,320750
10,683500	0,5	1,315850
10,691833	0,5	1,311400
10,700167	0,5	1,307600
10,708500	0,5	1,300700
10,716833	0,5	1,296500
10,725167	0,5	1,293700
10,733500	0,5	1,289650
10,741833	0,5	1,284400
10,750167	0,5	1,283150
10,758500	0,5	1,275500
10,766833	0,5	1,277850
10,775167	0,5	1,274600
10,783500	0,5	1,270550
10,791833	0,5	1,267300
10,800167	0,5	1,260050
10,808500	0,5	1,258250
10,816833	0,5	1,257550
10,825167	0,5	1,255550
10,833500	0,5	1,254600
10,841833	0,5	1,251300
10,850167	0,5	1,250650
10,858500	0,5	1,246050
10,866833	0,5	1,248200
10,875167	0,5	1,240350
10,883500	0,5	1,238500
10,891833	0,5	1,233400
10,900167	0,5	1,231800
10,908500	0,5	1,225500
10,916833	0,5	1,229550
10,925167	0,5	1,223100
10,933500	0,5	1,220500
10,941833	0,5	1,213000
10,950167	0,5	1,204900
10,958500	0,5	1,208750
10,966833	0,5	1,209200
10,975167	0,5	1,205600
10,983500	0,5	1,206600
10,991833	0,5	1,203900
11,000167	0,5	1,203650
11,008500	0,5	1,200250
11,016833	0,5	1,204850
11,025167	0,5	1,204500
11,033500	0,5	1,207250
11,041833	0,5	1,211650
11,050167	0,5	1,208050
11,058500	0,5	1,213800
11,066833	0,5	1,218650
11,075167	0,5	1,217750
11,083500	0,5	1,221600
11,091833	0,5	1,221050
11,100167	0,5	1,219550
11,108500	0,5	1,221200
11,116833	0,5	1,221550
11,125167	0,5	1,219750
11,133500	0,5	1,216100
11,141833	0,5	1,212450
11,150167	0,5	1,210500
11,158500	0,5	1,208300
11,166833	0,5	1,203900
11,175167	0,5	1,201500
11,183500	0,5	1,206000
11,191833	0,5	1,199500
11,200167	0,5	1,193350
11,208500	0,5	1,194900
11,216833	0,5	1,196800
11,225167	0,5	1,192250
11,233500	0,5	1,186050
11,241833	0,5	1,177050
11,250167	0,5	1,179000
11,258500	0,5	1,175450
11,266833	0,5	1,176750
11,275167	0,5	1,173850
11,283500	0,5	1,172950
11,291833	0,5	1,168450
11,300167	0,5	1,170300
11,308500	0,5	1,168150
11,316833	0,5	1,164800
11,325167	0,5	1,163700
11,333500	0,5	1,162100
11,341833	0,5	1,157250
11,350167	0,5	1,151300
11,358500	0,5	1,150700
11,366833	0,5	1,146950
11,375167	0,5	1,141950
11,383500	0,5	1,129700
11,391833	0,5	1,127500
11,400167	0,5	1,124900
11,408500	0,5	1,127100
11,416833	0,5	1,122000
11,425167	0,5	1,123100
11,433500	0,5	1,119400
11,441833	0,5	1,117300
11,450167	0,5	1,113650
11,458500	0,5	1,114800
11,466833	0,5	1,111450
11,475167	0,5	1,108950
11,483500	0,5	1,112200
11,491833	0,5	1,105000
11,500167	0,5	1,106600
11,508500	0,5	1,110900
11,516833	0,5	1,109550
11,525167	0,5	1,112600
11,533500	0,5	1,112450
11,541833	0,5	1,114250
11,550167	0,5	1,126100
11,558500	0,5	1,135550
11,566833	0,5	1,146250
11,575167	0,5	1,158000
11,583500	0,5	1,167900
11,591833	0,5	1,176500
11,600167	0,5	1,179550
11,608500	0,5	1,181450
11,616833	0,5	1,177200
11,625167	0,5	1,172600
11,633500	0,5	1,166350
11,641833	0,5	1,146550
11,650167	0,5	1,149500
11,658500	0,5	1,136100
11,666833	0,5	1,133600
11,675167	0,5	1,129000
11,683500	0,5	1,120500
11,691833	0,5	1,126450
11,700167	0,5	1,128600
11,708500	0,5	1,131600
11,716833	0,5	1,136500
11,725167	0,5	1,140400
11,733500	0,5	1,146950
11,741833	0,5	1,156050
11,750167	0,5	1,161100
11,758500	0,5	1,171800
11,766833	0,5	1,178000
11,775167	0,5	1,190700
11,783500	0,5	1,192500
11,791833	0,5	1,190000
11,800167	0,5	1,197750
11,808500	0,5	1,193350
11,816833	0,5	1,188450
11,825167	0,5	1,183500
11,833500	0,5	1,176550
11,841833	0,5	1,181300
11,850167	0,5	1,182800
11,858500	0,5	1,186900
11,866833	0,5	1,188250
11,875167	0,5	1,192400
11,883500	0,5	1,198150
11,891833	0,5	1,204800
11,900167	0,5	1,210050
11,908500	0,5	1,212950
11,916833	0,5	1,221250
11,925167	0,5	1,221700
11,933500	0,5	1,222900
11,941833	0,5	1,221500
11,950167	0,5	1,227400
11,958500	0,5	1,226150
11,966833	0,5	1,225100
11,975167	0,5	1,222600
11,983500	0,5	1,221750
11,991833	0,5	1,228200
12,000167	0,5	1,229600
12,008500	0,5	1,232000
12,016833	0,5	1,233750
12,025167	0,5	1,237050
12,033500	0,5	1,241600
12,041833	0,5	1,240800
12,050167	0,5	1,241500
12,058500	0,5	1,238700
12,066833	0,5	1,236350
12,075167	0,5	1,235650
12,083500	0,5	1,226500
12,091833	0,5	1,227750
12,100167	0,5	1,231600
12,108500	0,5	1,223600
12,116833	0,5	1,222150
12,125167	0,5	1,218350
12,133500	0,5	1,222050
12,141833	0,5	1,232750
12,150167	0,5	1,240000
12,158500	0,5	1,252400
12,166833	0,5	1,255600
12,175167	0,5	1,263450
12,183500	0,5	1,267050
12,191833	0,5	1,268600
12,200167	0,5	1,260600
12,208500	0,5	1,253900
12,216833	0,5	1,249250
12,225167	0,5	1,239300
12,233500	0,5	1,224050
12,241833	0,5	1,223750
12,250167	0,5	1,221150
12,258500	0,5	1,212800
12,266833	0,5	1,206850
12,275167	0,5	1,196950
12,283500	0,5	1,200600
12,291833	0,5	1,201150
12,300167	0,5	1,199550
12,308500	0,5	1,198550
12,316833	0,5	1,198300
12,325167	0,5	1,196400
12,333500	0,5	1,199500
12,341833	0,5	1,197950
12,350167	0,5	1,200800
12,358500	0,5	1,197550
12,366833	0,5	1,200800
12,375167	0,5	1,193450
12,383500	0,5	1,192550
12,391833	0,5	1,196300
12,400167	0,5	1,199700
12,408500	0,5	1,194950
12,416833	0,5	1,191550
12,425167	0,5	1,190700
12,433500	0,5	1,191700
12,441833	0,5	1,195900
12,450167	0,5	1,195450
12,458500	0,5	1,194400
12,466833	0,5	1,193700
12,475167	0,5	1,201650
12,483500	0,5	1,200700
12,491833	0,5	1,203900
12,500167	0,5	1,200050
12,508500	0,5	1,204900
12,516833	0,5	1,207900
12,525167	0,5	1,205500
12,533500	0,5	1,211500
12,541833	0,5	1,213250
12,550167	0,5	1,212600
12,558500	0,5	1,209450
12,566833	0,5	1,198900
12,575167	0,5	1,198650
12,583500	0,5	1,201950
12,591833	0,5	1,198700
12,600167	0,5	1,197150
12,608500	0,5	1,188500
12,616833	0,5	1,186150
12,625167	0,5	1,181450
12,633500	0,5	1,179900
12,641833	0,5	1,170850
12,650167	0,5	1,164950
12,658500	0,5	1,160850
12,666833	0,5	1,160600
12,675167	0,5	1,139500
12,683500	0,5	1,147650
12,691833	0,5	1,139050
12,700167	0,5	1,133450
12,708500	0,5	1,122550
12,716833	0,5	1,108800
12,725167	0,5	1,108200
12,733500	0,5	1,104800
12,741833	0,5	1,100400
12,750167	0,5	1,096550
12,758500	0,5	1,094500
12,766833	0,5	1,089750
12,775167	0,5	1,089750
12,783500	0,5	1,087300
12,791833	0,5	1,080650
12,800167	0,5	1,077100
12,808500	0,5	1,079750
12,816833	0,5	1,073350
12,825167	0,5	1,066800
12,833500	0,5	1,067350
12,841833	0,5	1,063850
12,850167	0,5	1,059650
12,858500	0,5	1,052200
12,866833	0,5	1,041050
12,875167	0,5	1,044300
12,883500	0,5	1,041200
12,891833	0,5	1,040700
12,900167	0,5	1,034950
12,908500	0,5	1,036250
12,916833	0,5	1,033900
12,925167	0,5	1,028700
12,933500	0,5	1,029800
12,941833	0,5	1,026850
12,950167	0,5	1,031000
12,958500	0,5	1,027650
12,966833	0,5	1,021500
12,975167	0,5	1,018600
12,983500	0,5	1,020150
12,991833	0,5	1,012500
13,000167	0,5	1,009600
13,008500	0,5	0,997800
13,016833	0,5	0,994450
13,025167	0,5	0,993250
13,033500	0,5	0,999600
13,041833	0,5	0,994400
13,050167	0,5	0,997300
13,058500	0,5	0,996600
13,066833	0,5	0,997450
13,075167	0,5	0,991600
13,083500	0,5	0,994200
13,091833	0,5	0,990900
13,100167	0,5	0,993000
13,108500	0,5	0,992000
13,116833	0,5	0,985050
13,125167	0,5	0,990650
13,133500	0,5	0,988500
13,141833	0,5	0,985900
13,150167	0,5	0,978500
13,158500	0,5	0,976600
13,166833	0,5	0,969600
13,175167	0,5	0,972250
13,183500	0,5	0,974900
13,191833	0,5	0,977000
13,200167	0,5	0,976400
13,208500	0,5	0,976750
13,216833	0,5	0,976100
13,225167	0,5	0,978050
13,233500	0,5	0,970200
13,241833	0,5	0,974000
13,250167	0,5	0,973800
13,258500	0,5	0,976200
13,266833	0,5	0,971400
13,275167	0,5	0,975500
13,283500	0,5	0,974600
13,291833	0,5	0,971000
13,300167	0,5	0,964700
13,308500	0,5	0,956450
13,316833	0,5	0,964150
13,325167	0,5	0,962400
13,333500	0,5	0,961800
13,341833	0,5	0,962750
13,350167	0,5	0,960950
13,358500	0,5	0,958600
13,366833	0,5	0,958700
13,375167	0,5	0,959550
13,383500	0,5	0,959550
13,391833	0,5	0,955050
13,400167	0,5	0,957500
13,408500	0,5	0,943800
13,416833	0,5	0,942700
13,425167	0,5	0,945850
13,433500	0,5	0,943050
13,441833	0,5	0,935000
13,450167	0,5	0,922850
13,458500	0,5	0,915050
13,466833	0,5	0,920950
13,475167	0,5	0,915900
13,483500	0,5	0,912650
13,491833	0,5	0,912200
13,500167	0,5	0,911200
13,508500	0,5	0,908600
13,516833	0,5	0,904200
13,525167	0,5	0,904850
13,533500	0,5	0,894800
13,541833	0,5	0,899200
13,550167	0,5	0,894500
13,558500	0,5	0,884200
13,566833	0,5	0,889100
13,575167	0,5	0,887000
13,583500	0,5	0,883650
13,591833	0,5	0,874800
13,600167	0,5	0,859950
13,608500	0,5	0,861200
13,616833	0,5	0,861850
13,625167	0,5	0,860100
13,633500	0,5	0,854850
13,641833	0,5	0,852050
13,650167	0,5	0,850100
13,658500	0,5	0,847550
13,666833	0,5	0,850600
13,675167	0,5	0,845950
13,683500	0,5	0,846350
13,691833	0,5	0,838950
13,700167	0,5	0,844950
13,708500	0,5	0,828900
13,716833	0,5	0,838600
13,725167	0,5	0,835800
13,733500	0,5	0,833150
13,741833	0,5	0,823300
13,750167	0,5	0,813950
13,758500	0,5	0,813850
13,766833	0,5	0,815450
13,775167	0,5	0,813200
13,783500	0,5	0,808600
13,791833	0,5	0,805500
13,800167	0,5	0,802250
13,808500	0,5	0,803100
13,816833	0,5	0,800950
13,825167	0,5	0,794650
13,833500	0,5	0,788700
13,841833	0,5	0,786750
13,850167	0,5	0,782500
13,858500	0,5	0,777900
13,866833	0,5	0,783000
13,875167	0,5	0,776400
13,883500	0,5	0,765900
13,891833	0,5	0,758300
13,900167	0,5	0,744000
13,908500	0,5	0,747500
13,916833	0,5	0,742500
13,925167	0,5	0,744100
13,933500	0,5	0,737700
13,941833	0,5	0,737400
13,950167	0,5	0,735650
13,958500	0,5	0,736200
13,966833	0,5	0,735400
13,975167	0,5	0,730100
13,983500	0,5	0,735700
13,991833	0,5	0,731200
14,000167	0,5	0,718800
14,008500	0,5	0,722900
14,016833	0,5	0,725950
14,025167	0,5	0,716050
14,033500	0,5	0,708600
14,041833	0,5	0,693850
14,050167	0,5	0,694000
14,058500	0,5	0,688450
14,066833	0,5	0,687700
14,075167	0,5	0,685900
14,083500	0,5	0,687350
14,091833	0,5	0,683600
14,100167	0,5	0,684700
14,108500	0,5	0,681100
14,116833	0,5	0,677900
14,125167	0,5	0,676500
14,133500	0,5	0,677550
14,141833	0,5	0,668800
14,150167	0,5	0,663250
14,158500	0,5	0,665500
14,166833	0,5	0,666100
14,175167	0,5	0,660650
14,183500	0,5	0,648300
14,191833	0,5	0,641750
14,200167	0,5	0,638500
14,208500	0,5	0,639700
14,216833	0,5	0,639600
14,225167	0,5	0,636650
14,233500	0,5	0,632950
14,241833	0,5	0,633400
14,250167	0,5	0,630750
14,258500	0,5	0,629900
14,266833	0,5	0,623250
14,275167	0,5	0,622500
14,283500	0,5	0,622850
14,291833	0,5	0,614250
14,300167	0,5	0,609950
14,308500	0,5	0,616850
14,316833	0,5	0,608900
14,325167	0,5	0,605300
14,333500	0,5	0,593650
14,341833	0,5	0,587550
14,350167	0,5	0,592750
14,358500	0,5	0,587350
14,366833	0,5	0,586900
14,375167	0,5	0,583650
14,383500	0,5	0,583900
14,391833	0,5	0,583650
14,400167	0,5	0,584700
14,408500	0,5	0,576100
14,416833	0,5	0,572900
14,425167	0,5	0,567250
14,433500	0,5	0,572400
14,441833	0,5	0,549750
14,450167	0,5	0,554950
14,458500	0,5	0,547150
14,466833	0,5	0,549200
14,475167	0,5	0,540500
14,483500	0,5	0,518600
14,491833	0,5	0,519700
14,500167	0,5	0,521300
14,508500	0,5	0,513600
14,516833	0,5	0,507550
14,525167	0,5	0,502300
14,533500	0,5	0,497600
14,541833	0,5	0,492350
14,550167	0,5	0,482550
14,558500	0,5	0,472450
14,566833	0,5	0,454200
14,575167	0,5	0,451700
14,583500	0,5	0,434550
14,591833	0,5	0,414650
14,600167	0,5	0,414700
14,608500	0,5	0,416800
14,616833	0,5	0,412700
14,625167	0,5	0,413600
14,633500	0,5	0,406450
14,641833	0,5	0,416150
14,650167	0,5	0,419950
14,658500	0,5	0,425350
14,666833	0,5	0,418450
14,675167	0,5	0,420450
14,683500	0,5	0,416700
14,691833	0,5	0,417600
14,700167	0,5	0,415050
14,708500	0,5	0,410200
14,716833	0,5	0,411250
14,725167	0,5	0,405700
14,733500	0,5	0,403150
14,741833	0,5	0,389950
14,750167	0,5	0,399150
14,758500	0,5	0,392450
14,766833	0,5	0,384700
14,775167	0,5	0,368250
14,783500	0,5	0,356200
14,791833	0,5	0,353950
14,800167	0,5	0,356700
14,808500	0,5	0,350800
14,816833	0,5	0,349700
14,825167	0,5	0,346450
14,833500	0,5	0,346100
14,841833	0,5	0,339350
14,850167	0,5	0,338750
14,858500	0,5	0,336250
14,866833	0,5	0,336050
14,875167	0,5	0,332900
14,883500	0,5	0,327300
14,891833	0,5	0,324550
14,900167	0,5	0,330100
14,908500	0,5	0,328250
14,916833	0,5	0,318550
14,925167	0,5	0,307400
14,933500	0,5	0,301150
14,941833	0,5	0,307950
14,950167	0,5	0,304900
14,958500	0,5	0,310800
14,966833	0,5	0,307300
14,975167	0,5	0,308550
14,983500	0,5	0,301700
14,991833	0,5	0,303250
15,000167	0,5	0,295050
15,008500	0,5	0,291800
15,016833	0,5	0,300350
15,025167	0,5	0,294300
15,033500	0,5	0,279600
15,041833	0,5	0,284850
15,050167	0,5	0,282650
15,058500	0,5	0,274650
15,066833	0,5	0,263750
15,075167	0,5	0,249600
15,083500	0,5	0,250450
15,091833	0,5	0,248650
15,100167	0,5	0,249550
15,108500	0,5	0,248350
15,116833	0,5	0,252800
15,125167	0,5	0,248400
15,133500	0,5	0,251200
15,141833	0,5	0,250300
15,150167	0,5	0,250650
15,158500	0,5	0,246000
15,166833	0,5	0,252700
15,175167	0,5	0,237000
15,183500	0,5	0,239250
15,191833	0,5	0,241600
15,200167	0,5	0,243850
15,208500	0,5	0,242750
15,216833	0,5	0,230450
15,225167	0,5	0,226800
15,233500	0,5	0,226700
15,241833	0,5	0,236100
15,250167	0,5	0,240250
15,258500	0,5	0,242450
15,266833	0,5	0,241400
15,275167	0,5	0,238900
15,283500	0,5	0,230950
15,291833	0,5	0,225100
15,300167	0,5	0,215900
15,308500	0,5	0,211300
15,316833	0,5	0,205750
15,325167	0,5	0,189650
15,333500	0,5	0,186950
15,341833	0,5	0,190550
15,350167	0,5	0,181850
15,358500	0,5	0,177000
15,366833	0,5	0,152650
15,375167	0,5	0,151650
15,383500	0,5	0,153300
15,391833	0,5	0,150450
15,400167	0,5	0,147850
15,408500	0,5	0,141750
15,416833	0,5	0,140900
15,425167	0,5	0,135550
15,433500	0,5	0,138550
15,441833	0,5	0,132450
15,450167	0,5	0,133300
15,458500	0,5	0,127600
15,466833	0,5	0,134800
15,475167	0,5	0,111000
15,483500	0,5	0,123450
15,491833	0,5	0,119600
15,500167	0,5	0,116950
15,508500	0,5	0,104650
15,516833	0,5	0,086850
15,525167	0,5	0,092200
15,533500	0,5	0,091500
15,541833	0,5	0,086150
15,550167	0,5	0,086400
15,558500	0,5	0,080500
15,566833	0,5	0,081050
15,575167	0,5	0,081950
15,583500	0,5	0,074000
15,591833	0,5	0,074050
15,600167	0,5	0,069100
15,608500	0,5	0,074450
15,616833	0,5	0,070150
15,625167	0,5	0,059600
15,633500	0,5	0,067950
15,641833	0,5	0,060650
15,650167	0,5	0,049700
15,658500	0,5	0,041900
15,666833	0,5	0,021200
15,675167	0,5	0,031550
15,683500	0,5	0,026950
15,691833	0,5	0,028300
15,700167	0,5	0,019550
15,708500	0,5	0,020400
15,716833	0,5	0,017400
15,725167	0,5	0,015100
15,733500	0,5	0,013200
15,741833	0,5	0,008350
15,750167	0,5	0,010350
15,758500	0,5	0,009050
15,766833	0,5	0,001200
15,775167	0,5	-0,001950
15,783500	0,5	0,003700
15,791833	0,5	-0,004350
15,800167	0,5	-0,007250
15,808500	0,5	-0,024450
15,816833	0,5	-0,028750
15,825167	0,5	-0,026600
15,833500	0,5	-0,020400
15,841833	0,5	-0,028850
15,850167	0,5	-0,025300
15,858500	0,5	-0,025700
15,866833	0,5	-0,027700
15,875167	0,5	-0,025200
15,883500	0,5	-0,027300
15,891833	0,5	-0,036250
15,900167	0,5	-0,038550
15,908500	0,5	-0,043750
15,916833	0,5	-0,050900
15,925167	0,5	-0,047250
15,933500	0,5	-0,046800
15,941833	0,5	-0,053850
15,950167	0,5	-0,062400
15,958500	0,5	-0,074250
15,966833	0,5	-0,084300
15,975167	0,5	-0,079300
15,983500	0,5	-0,085150
15,991833	0,5	-0,085350
16,000167	0,5	-0,094100
16,008500	0,5	-0,092300
16,016833	0,5	-0,098000
16,025167	0,5	-0,096250
16,033500	0,5	-0,105950
16,041833	0,5	-0,105650
16,050167	0,5	-0,102200
16,058500	0,5	-0,106500
16,066833	0,5	-0,117850
16,075167	0,5	-0,109200
16,083500	0,5	-0,110900
16,091833	0,5	-0,120800
16,100167	0,5	-0,134100
16,108500	0,5	-0,145100
16,116833	0,5	-0,139750
16,125167	0,5	-0,144950
16,133500	0,5	-0,151150
16,141833	0,5	-0,151600
16,150167	0,5	-0,152750
16,158500	0,5	-0,155000
16,166833	0,5	-0,151750
16,175167	0,5	-0,159700
16,183500	0,5	-0,160850
16,191833	0,5	-0,158250
16,200167	0,5	-0,151750
16,208500	0,5	-0,171450
16,216833	0,5	-0,170700
16,225167	0,5	-0,173650
16,233500	0,5	-0,176350
16,241833	0,5	-0,186350
16,250167	0,5	-0,206350
16,258500	0,5	-0,208350
16,266833	0,5	-0,213150
16,275167	0,5	-0,211650
16,283500	0,5	-0,217250
16,291833	0,5	-0,217900
16,300167	0,5	-0,220200
16,308500	0,5	-0,218350
16,316833	0,5	-0,224950
16,325167	0,5	-0,222700
16,333500	0,5	-0,235300
16,341833	0,5	-0,222750
16,350167	0,5	-0,225250
16,358500	0,5	-0,242300
16,366833	0,5	-0,233050
16,375167	0,5	-0,234300
16,383500	0,5	-0,243550
16,391833	0,5	-0,250550
16,400167	0,5	-0,271950
16,408500	0,5	-0,264750
16,416833	0,5	-0,269150
16,425167	0,5	-0,274150
16,433500	0,5	-0,276050
16,441833	0,5	-0,277500
16,450167	0,5	-0,277950
16,458500	0,5	-0,283550
16,466833	0,5	-0,283400
16,475167	0,5	-0,287850
16,483500	0,5	-0,285100
16,491833	0,5	-0,286000
16,500167	0,5	-0,287150
16,508500	0,5	-0,305600
16,516833	0,5	-0,295400
16,525167	0,5	-0,296300
16,533500	0,5	-0,302750
16,541833	0,5	-0,313850
16,550167	0,5	-0,331300
16,558500	0,5	-0,329100
16,566833	0,5	-0,329950
16,575167	0,5	-0,333900
16,583500	0,5	-0,336050
16,591833	0,5	-0,337050
16,600167	0,5	-0,339000
16,608500	0,5	-0,337850
16,616833	0,5	-0,345500
16,625167	0,5	-0,348300
16,633500	0,5	-0,349300
16,641833	0,5	-0,340000
16,650167	0,5	-0,350200
16,658500	0,5	-0,354300
16,666833	0,5	-0,352250
16,675167	0,5	-0,355500
16,683500	0,5	-0,367100
16,691833	0,5	-0,376600
16,700167	0,5	-0,392600
16,708500	0,5	-0,390350
16,716833	0,5	-0,392750
16,725167	0,5	-0,391050
16,733500	0,5	-0,397900
16,741833	0,5	-0,394800
16,750167	0,5	-0,401200
16,758500	0,5	-0,400150
16,766833	0,5	-0,401100
16,775167	0,5	-0,403250
16,783500	0,5	-0,392150
16,791833	0,5	-0,395400
16,800167	0,5	-0,407800
16,808500	0,5	-0,402200
16,816833	0,5	-0,402650
16,825167	0,5	-0,408000
16,833500	0,5	-0,414400
16,841833	0,5	-0,431450
16,850167	0,5	-0,432000
16,858500	0,5	-0,434150
16,866833	0,5	-0,428200
16,875167	0,5	-0,432250
16,883500	0,5	-0,426700
16,891833	0,5	-0,434000
16,900167	0,5	-0,435800
16,908500	0,5	-0,437650
16,916833	0,5	-0,446100
16,925167	0,5	-0,443600
16,933500	0,5	-0,439250
16,941833	0,5	-0,446800
16,950167	0,5	-0,454150
16,958500	0,5	-0,450950
16,966833	0,5	-0,455300
16,975167	0,5	-0,458150
16,983500	0,5	-0,475950
16,991833	0,5	-0,489150
17,000167	0,5	-0,494300
17,008500	0,5	-0,489600
17,016833	0,5	-0,493350
17,025167	0,5	-0,487150
17,033500	0,5	-0,493700
17,041833	0,5	-0,494500
17,050167	0,5	-0,495600
17,058500	0,5	-0,494750
17,066833	0,5	-0,497000
17,075167	0,5	-0,492950
17,083500	0,5	-0,491900
17,091833	0,5	-0,502750
17,100167	0,5	-0,504800
17,108500	0,5	-0,499600
17,116833	0,5	-0,505200
17,125167	0,5	-0,510500
17,133500	0,5	-0,531450
17,141833	0,5	-0,535150
17,150167	0,5	-0,529200
17,158500	0,5	-0,529650
17,166833	0,5	-0,529000
17,175167	0,5	-0,535850
17,183500	0,5	-0,534850
17,191833	0,5	-0,535700
17,200167	0,5	-0,530700
17,208500	0,5	-0,532850
17,216833	0,5	-0,533100
17,225167	0,5	-0,531750
17,233500	0,5	-0,527900
17,241833	0,5	-0,550650
17,250167	0,5	-0,534950
17,258500	0,5	-0,532150
17,266833	0,5	-0,535150
17,275167	0,5	-0,540600
17,283500	0,5	-0,561900
17,291833	0,5	-0,551250
17,300167	0,5	-0,555800
17,308500	0,5	-0,549700
17,316833	0,5	-0,552350
17,325167	0,5	-0,554300
17,333500	0,5	-0,557450
17,341833	0,5	-0,554700
17,350167	0,5	-0,555150
17,358500	0,5	-0,552700
17,366833	0,5	-0,558800
17,375167	0,5	-0,553100
17,383500	0,5	-0,557950
17,391833	0,5	-0,567050
17,400167	0,5	-0,552650
17,408500	0,5	-0,549250
17,416833	0,5	-0,559150
17,425167	0,5	-0,563300
17,433500	0,5	-0,580650
17,441833	0,5	-0,568450
17,450167	0,5	-0,564950
17,458500	0,5	-0,567500
17,466833	0,5	-0,569500
17,475167	0,5	-0,565600
17,483500	0,5	-0,566250
17,491833	0,5	-0,563550
17,500167	0,5	-0,559250
17,508500	0,5	-0,563450
17,516833	0,5	-0,564700
17,525167	0,5	-0,559150
17,533500	0,5	-0,563000
17,541833	0,5	-0,563950
17,550167	0,5	-0,549450
17,558500	0,5	-0,552700
17,566833	0,5	-0,553200
17,575167	0,5	-0,571400
17,583500	0,5	-0,576650
17,591833	0,5	-0,570850
17,600167	0,5	-0,565250
17,608500	0,5	-0,567650
17,616833	0,5	-0,567650
17,625167	0,5	-0,559850
17,633500	0,5	-0,565150
17,641833	0,5	-0,555550
17,650167	0,5	-0,556850
17,658500	0,5	-0,554400
17,666833	0,5	-0,553250
17,675167	0,5	-0,537650
17,683500	0,5	-0,552100
17,691833	0,5	-0,530300
17,700167	0,5	-0,530450
17,708500	0,5	-0,526450
17,716833	0,5	-0,533000
17,725167	0,5	-0,543650
17,733500	0,5	-0,545200
17,741833	0,5	-0,534250
17,750167	0,5	-0,535200
17,758500	0,5	-0,525800
17,766833	0,5	-0,522150
17,775167	0,5	-0,521350
17,783500	0,5	-0,516600
17,791833	0,5	-0,511150
17,800167	0,5	-0,507500
17,808500	0,5	-0,500950
17,816833	0,5	-0,490850
17,825167	0,5	-0,490800
17,833500	0,5	-0,492200
17,841833	0,5	-0,483000
17,850167	0,5	-0,480400
17,858500	0,5	-0,482300
17,866833	0,5	-0,491700
17,875167	0,5	-0,501250
17,883500	0,5	-0,494700
17,891833	0,5	-0,493800
17,900167	0,5	-0,487000
17,908500	0,5	-0,485150
17,916833	0,5	-0,480350
17,925167	0,5	-0,479750
17,933500	0,5	-0,473250
17,941833	0,5	-0,474400
17,950167	0,5	-0,474850
17,958500	0,5	-0,467400
17,966833	0,5	-0,461200
17,975167	0,5	-0,473650
17,983500	0,5	-0,468950
17,991833	0,5	-0,458500
18,000167	0,5	-0,460550
18,008500	0,5	-0,457850
18,016833	0,5	-0,479050
18,025167	0,5	-0,480550
18,033500	0,5	-0,484500
18,041833	0,5	-0,475450
18,050167	0,5	-0,475300
18,058500	0,5	-0,470250
18,066833	0,5	-0,472650
18,075167	0,5	-0,468300
18,083500	0,5	-0,469650
18,091833	0,5	-0,467000
18,100167	0,5	-0,467000
18,108500	0,5	-0,464950
18,116833	0,5	-0,466400
18,125167	0,5	-0,480600
18,133500	0,5	-0,474850
18,141833	0,5	-0,467700
18,150167	0,5	-0,475250
18,158500	0,5	-0,488400
18,166833	0,5	-0,502600
18,175167	0,5	-0,507850
18,183500	0,5	-0,503300
18,191833	0,5	-0,511050
18,200167	0,5	-0,507600
18,208500	0,5	-0,516150
18,216833	0,5	-0,513900
18,225167	0,5	-0,521750
18,233500	0,5	-0,520100
18,241833	0,5	-0,525250
18,250167	0,5	-0,526900
18,258500	0,5	-0,524650
18,266833	0,5	-0,532450
18,275167	0,5	-0,548400
18,283500	0,5	-0,541050
18,291833	0,5	-0,543250
18,300167	0,5	-0,556050
18,308500	0,5	-0,571200
18,316833	0,5	-0,590450
18,325167	0,5	-0,581200
18,333500	0,5	-0,590100
18,341833	0,5	-0,592500
18,350167	0,5	-0,599950
18,358500	0,5	-0,597700
18,366833	0,5	-0,604900
18,375167	0,5	-0,604000
18,383500	0,5	-0,614500
18,391833	0,5	-0,614300
18,400167	0,5	-0,614250
18,408500	0,5	-0,608250
18,416833	0,5	-0,623800
18,425167	0,5	-0,626300
18,433500	0,5	-0,629950
18,441833	0,5	-0,636600
18,450167	0,5	-0,647850
18,458500	0,5	-0,669750
18,466833	0,5	-0,676700
18,475167	0,5	-0,675850
18,483500	0,5	-0,678750
18,491833	0,5	-0,687750
18,500167	0,5	-0,686050
18,508500	0,5	-0,698350
18,516833	0,5	-0,696050
18,525167	0,5	-0,703850
18,533500	0,5	-0,704050
18,541833	0,5	-0,711050
18,550167	0,5	-0,704300
18,558500	0,5	-0,705700
18,566833	0,5	-0,720050
18,575167	0,5	-0,716450
18,583500	0,5	-0,714800
18,591833	0,5	-0,725300
18,600167	0,5	-0,737250
18,608500	0,5	-0,762400
18,616833	0,5	-0,760550
18,625167	0,5	-0,764600
18,633500	0,5	-0,768350
18,641833	0,5	-0,772850
18,650167	0,5	-0,777250
18,658500	0,5	-0,775650
18,666833	0,5	-0,781000
18,675167	0,5	-0,777200
18,683500	0,5	-0,788300
18,691833	0,5	-0,787700
18,700167	0,5	-0,785200
18,708500	0,5	-0,788750
18,716833	0,5	-0,806200
18,725167	0,5	-0,792000
18,733500	0,5	-0,799850
18,741833	0,5	-0,804650
18,750167	0,5	-0,825550
18,758500	0,5	-0,840350
18,766833	0,5	-0,839600
18,775167	0,5	-0,840850
18,783500	0,5	-0,845450
18,791833	0,5	-0,845600
18,800167	0,5	-0,851000
18,808500	0,5	-0,854350
18,816833	0,5	-0,853700
18,825167	0,5	-0,859350
18,833500	0,5	-0,859700
18,841833	0,5	-0,856400
18,850167	0,5	-0,851300
18,858500	0,5	-0,866800
18,866833	0,5	-0,868150
18,875167	0,5	-0,866050
18,883500	0,5	-0,872800
18,891833	0,5	-0,891100
18,900167	0,5	-0,903150
18,908500	0,5	-0,912550
18,916833	0,5	-0,910600
18,925167	0,5	-0,918800
18,933500	0,5	-0,912600
18,941833	0,5	-0,916950
18,950167	0,5	-0,918350
18,958500	0,5	-0,916200
18,966833	0,5	-0,919200
18,975167	0,5	-0,918150
18,983500	0,5	-0,927600
18,991833	0,5	-0,912950
19,000167	0,5	-0,919700
19,008500	0,5	-0,930750
19,016833	0,5	-0,927250
19,025167	0,5	-0,923600
19,033500	0,5	-0,931650
19,041833	0,5	-0,944150
19,050167	0,5	-0,965350
19,058500	0,5	-0,961000
19,066833	0,5	-0,973600
19,075167	0,5	-0,972100
19,083500	0,5	-0,979300
19,091833	0,5	-0,982000
19,100167	0,5	-0,989950
19,108500	0,5	-0,992450
19,116833	0,5	-0,993300
19,125167	0,5	-1,002300
19,133500	0,5	-0,999650
19,141833	0,5	-0,996900
19,150167	0,5	-1,011200
19,158500	0,5	-1,016250
19,166833	0,5	-1,015650
19,175167	0,5	-1,021750
19,183500	0,5	-1,032650
19,191833	0,5	-1,059700
19,200167	0,5	-1,068000
19,208500	0,5	-1,071400
19,216833	0,5	-1,068400
19,225167	0,5	-1,078250
19,233500	0,5	-1,084900
19,241833	0,5	-1,091100
19,250167	0,5	-1,089900
19,258500	0,5	-1,092850
19,266833	0,5	-1,098700
19,275167	0,5	-1,103750
19,283500	0,5	-1,099600
19,291833	0,5	-1,097150
19,300167	0,5	-1,120850
19,308500	0,5	-1,110250
19,316833	0,5	-1,109350
19,325167	0,5	-1,113150
19,333500	0,5	-1,125400
19,341833	0,5	-1,146450
19,350167	0,5	-1,150050
19,358500	0,5	-1,140300
19,366833	0,5	-1,154100
19,375167	0,5	-1,153050
19,383500	0,5	-1,162500
19,391833	0,5	-1,158800
19,400167	0,5	-1,161950
19,408500	0,5	-1,161350
19,416833	0,5	-1,163300
19,425167	0,5	-1,170400
19,433500	0,5	-1,161150
19,441833	0,5	-1,156500
19,450167	0,5	-1,177700
19,458500	0,5	-1,163250
19,466833	0,5	-1,171400
19,475167	0,5	-1,178250
19,483500	0,5	-1,187450
19,491833	0,5	-1,213900
19,500167	0,5	-1,197750
19,508500	0,5	-1,207450
19,516833	0,5	-1,204750
19,525167	0,5	-1,214600
19,533500	0,5	-1,211750
19,541833	0,5	-1,220600
19,550167	0,5	-1,217900
19,558500	0,5	-1,223250
19,566833	0,5	-1,223600
19,575167	0,5	-1,224600
19,583500	0,5	-1,216400
19,591833	0,5	-1,223900
19,600167	0,5	-1,227700
19,608500	0,5	-1,222400
19,616833	0,5	-1,230700
19,625167	0,5	-1,235800
19,633500	0,5	-1,256800
19,641833	0,5	-1,265750
19,650167	0,5	-1,268600
19,658500	0,5	-1,264250
19,666833	0,5	-1,271150
19,675167	0,5	-1,270550
19,683500	0,5	-1,275800
19,691833	0,5	-1,269050
19,700167	0,5	-1,269750
19,708500	0,5	-1,271950
19,716833	0,5	-1,274150
19,725167	0,5	-1,271950
19,733500	0,5	-1,268350
19,741833	0,5	-1,273950
19,750167	0,5	-1,271500
19,758500	0,5	-1,263950
19,766833	0,5	-1,270800
19,775167	0,5	-1,281200
19,783500	0,5	-1,297750
19,791833	0,5	-1,303450
19,800167	0,5	-1,299300
19,808500	0,5	-1,302600
19,816833	0,5	-1,299100
19,825167	0,5	-1,298150
19,833500	0,5	-1,294700
19,841833	0,5	-1,300700
19,850167	0,5	-1,300150
19,858500	0,5	-1,299600
19,866833	0,5	-1,301050
19,875167	0,5	-1,292950
19,883500	0,5	-1,298750
19,891833	0,5	-1,308400
19,900167	0,5	-1,296750
19,908500	0,5	-1,304250
19,916833	0,5	-1,306200
19,925167	0,5	-1,327450
19,933500	0,5	-1,336850
19,941833	0,5	-1,336450
19,950167	0,5	-1,340400
19,958500	0,5	-1,337250
19,966833	0,5	-1,340300
19,975167	0,5	-1,338150
19,983500	0,5	-1,340050
19,991833	0,5	-1,335150
20,000167	0,5	-1,340000
20,008500	0,5	-1,336900
20,016833	0,5	-1,332750
20,025167	0,5	-1,322050
20,033500	0,5	-1,343800
20,041833	0,5	-1,337500
20,050167	0,5	-1,335950
20,058500	0,5	-1,342250
20,066833	0,5	-1,344500
20,075167	0,5	-1,369750
20,083500	0,5	-1,372100
20,091833	0,5	-1,375850
20,100167	0,5	-1,375350
20,108500	0,5	-1,378000
20,116833	0,5	-1,382450
20,125167	0,5	-1,385500
20,133500	0,5	-1,385350
20,141833	0,5	-1,391650
20,150167	0,5	-1,392000
20,158500	0,5	-1,397000
20,166833	0,5	-1,378600
20,175167	0,5	-1,378050
20,183500	0,5	-1,390400
20,191833	0,5	-1,381450
20,200167	0,5	-1,379700
20,208500	0,5	-1,387650
20,216833	0,5	-1,394300
20,225167	0,5	-1,412050
20,233500	0,5	-1,404650
20,241833	0,5	-1,400050
20,250167	0,5	-1,397600
20,258500	0,5	-1,393000
20,266833	0,5	-1,389800
20,275167	0,5	-1,389500
20,283500	0,5	-1,387900
20,291833	0,5	-1,376050
20,300167	0,5	-1,377250
20,308500	0,5	-1,364900
20,316833	0,5	-1,353650
20,325167	0,5	-1,358050
20,333500	0,5	-1,359250
20,341833	0,5	-1,346300
20,350167	0,5	-1,346900
20,358500	0,5	-1,346150
20,366833	0,5	-1,364200
20,375167	0,5	-1,362000
20,383500	0,5	-1,349650
20,391833	0,5	-1,349200
20,400167	0,5	-1,348600
20,408500	0,5	-1,340000
20,416833	0,5	-1,336750
20,425167	0,5	-1,333550
20,433500	0,5	-1,325650
20,441833	0,5	-1,321800
20,450167	0,5	-1,313300
20,458500	0,5	-1,295300
20,466833	0,5	-1,278200
20,475167	0,5	-1,287700
20,483500	0,5	-1,276600
20,491833	0,5	-1,273450
20,500167	0,5	-1,272700
20,508500	0,5	-1,285150
20,516833	0,5	-1,299900
20,525167	0,5	-1,293850
20,533500	0,5	-1,284400
20,541833	0,5	-1,282650
20,550167	0,5	-1,272250
20,558500	0,5	-1,271700
20,566833	0,5	-1,265150
20,575167	0,5	-1,256350
20,583500	0,5	-1,247300
20,591833	0,5	-1,247350
20,600167	0,5	-1,245000
20,608500	0,5	-1,217750
20,616833	0,5	-1,213400
20,625167	0,5	-1,219700
20,633500	0,5	-1,221250
20,641833	0,5	-1,226450
20,650167	0,5	-1,237350
20,658500	0,5	-1,249950
20,666833	0,5	-1,268150
20,675167	0,5	-1,260400
20,683500	0,5	-1,264600
20,691833	0,5	-1,259700
20,700167	0,5	-1,263800
20,708500	0,5	-1,260350
20,716833	0,5	-1,261650
20,725167	0,5	-1,256750
20,733500	0,5	-1,254900
20,741833	0,5	-1,259000
20,750167	0,5	-1,241500
20,758500	0,5	-1,223500
20,766833	0,5	-1,222550
20,775167	0,5	-1,227350
20,783500	0,5	-1,220450
20,791833	0,5	-1,230450
20,800167	0,5	-1,236500
20,808500	0,5	-1,259100
20,816833	0,5	-1,261150
20,825167	0,5	-1,258650
20,833500	0,5	-1,252550
20,841833	0,5	-1,251200
20,850167	0,5	-1,240100
20,858500	0,5	-1,236400
20,866833	0,5	-1,231300
20,875167	0,5	-1,226700
20,883500	0,5	-1,221500
20,891833	0,5	-1,216000
20,900167	0,5	-1,183950
20,908500	0,5	-1,167700
20,916833	0,5	-1,169200
20,925167	0,5	-1,165600
20,933500	0,5	-1,164900
20,941833	0,5	-1,171850
20,950167	0,5	-1,187850
20,958500	0,5	-1,188750
20,966833	0,5	-1,187400
20,975167	0,5	-1,174500
20,983500	0,5	-1,174850
20,991833	0,5	-1,164950
21,000167	0,5	-1,158700
21,008500	0,5	-1,148650
21,016833	0,5	-1,137600
21,025167	0,5	-1,128250
21,033500	0,5	-1,122700
21,041833	0,5	-1,110600
21,050167	0,5	-1,079100
21,058500	0,5	-1,068800
21,066833	0,5	-1,069550
21,075167	0,5	-1,071250
21,083500	0,5	-1,069250
21,091833	0,5	-1,078150
21,100167	0,5	-1,091650
21,108500	0,5	-1,093550
21,116833	0,5	-1,082500
21,125167	0,5	-1,082550
21,133500	0,5	-1,076200
21,141833	0,5	-1,070250
21,150167	0,5	-1,057800
21,158500	0,5	-1,058850
21,166833	0,5	-1,045100
21,175167	0,5	-1,044450
21,183500	0,5	-1,039700
21,191833	0,5	-1,004050
21,200167	0,5	-0,982750
21,208500	0,5	-0,982550
21,216833	0,5	-0,978950
21,225167	0,5	-0,968600
21,233500	0,5	-0,977950
21,241833	0,5	-0,977050
21,250167	0,5	-0,991850
21,258500	0,5	-0,967150
21,266833	0,5	-0,963950
21,275167	0,5	-0,952950
21,283500	0,5	-0,952850
21,291833	0,5	-0,932050
21,300167	0,5	-0,925850
21,308500	0,5	-0,916600
21,316833	0,5	-0,904900
21,325167	0,5	-0,896900
21,333500	0,5	-0,877150
21,341833	0,5	-0,840400
21,350167	0,5	-0,823550
21,358500	0,5	-0,823450
21,366833	0,5	-0,816300
21,375167	0,5	-0,816800
21,383500	0,5	-0,820900
21,391833	0,5	-0,829950
21,400167	0,5	-0,818700
21,408500	0,5	-0,812050
21,416833	0,5	-0,794900
21,425167	0,5	-0,790150
21,433500	0,5	-0,775450
21,441833	0,5	-0,770450
21,450167	0,5	-0,749950
21,458500	0,5	-0,741550
21,466833	0,5	-0,731650
21,475167	0,5	-0,718150
21,483500	0,5	-0,688050
21,491833	0,5	-0,662350
21,500167	0,5	-0,650000
21,508500	0,5	-0,644350
21,516833	0,5	-0,636100
21,525167	0,5	-0,628500
21,533500	0,5	-0,626800
21,541833	0,5	-0,624950
21,550167	0,5	-0,612250
21,558500	0,5	-0,589400
21,566833	0,5	-0,576300
21,575167	0,5	-0,542150
21,583500	0,5	-0,521200
21,591833	0,5	-0,490100
21,600167	0,5	-0,465550
21,608500	0,5	-0,432000
21,616833	0,5	-0,392350
21,625167	0,5	-0,360300
21,633500	0,5	-0,314400
21,641833	0,5	-0,298650
21,650167	0,5	-0,307350
21,658500	0,5	-0,306950
21,666833	0,5	-0,306400
21,675167	0,5	-0,311250
21,683500	0,5	-0,309200
21,691833	0,5	-0,305150
21,700167	0,5	-0,280150
21,708500	0,5	-0,264650
21,716833	0,5	-0,244500
21,725167	0,5	-0,231600
21,733500	0,5	-0,206050
21,741833	0,5	-0,189000
21,750167	0,5	-0,164400
21,758500	0,5	-0,142500
21,766833	0,5	-0,117250
21,775167	0,5	-0,076950
21,783500	0,5	-0,036800
21,791833	0,5	-0,012800
21,800167	0,5	0,014850
21,808500	0,5	0,051900
21,816833	0,5	0,071850
21,825167	0,5	0,099500
21,833500	0,5	0,113750
21,841833	0,5	0,145000
21,850167	0,5	0,173700
21,858500	0,5	0,216300
21,866833	0,5	0,247850
21,875167	0,5	0,284050
21,883500	0,5	0,311650
21,891833	0,5	0,343300
21,900167	0,5	0,362750
21,908500	0,5	0,383500
21,916833	0,5	0,414300
21,925167	0,5	0,453950
21,933500	0,5	0,473500
21,941833	0,5	0,504900
21,950167	0,5	0,537600
21,958500	0,5	0,559050
21,966833	0,5	0,584900
21,975167	0,5	0,594200
21,983500	0,5	0,625700
21,991833	0,5	0,652400
22,000167	0,5	0,694350
22,008500	0,5	0,717650
22,016833	0,5	0,758400
22,025167	0,5	0,788950
22,033500	0,5	0,828400
22,041833	0,5	0,863950
22,050167	0,5	0,897850
22,058500	0,5	0,933200
22,066833	0,5	0,963500
22,075167	0,5	1,001050
22,083500	0,5	1,018050
22,091833	0,5	1,066250
22,100167	0,5	1,105200
22,108500	0,5	1,141600
22,116833	0,5	1,181450
22,125167	0,5	1,205100
22,133500	0,5	1,253450
22,141833	0,5	1,316450
22,150167	0,5	1,359850
22,158500	0,5	1,412000
22,166833	0,5	1,460100
22,175167	0,5	1,512700
22,183500	0,5	1,565700
22,191833	0,5	1,620200
22,200167	0,5	1,669950
22,208500	0,5	1,714050
22,216833	0,5	1,761750
22,225167	0,5	1,809600
22,233500	0,5	1,859500
22,241833	0,5	1,930800
22,250167	0,5	1,990100
22,258500	0,5	2,039100
22,266833	0,5	2,086400
22,275167	0,5	2,126150
22,283500	0,5	2,197850
22,291833	0,5	2,248500
22,300167	0,5	2,311700
22,308500	0,5	2,361900
22,316833	0,5	2,415950
22,325167	0,5	2,469150
22,333500	0,5	2,525400
22,341833	0,5	2,579800
22,350167	0,5	2,633000
22,358500	0,5	2,684300
22,366833	0,5	2,731000
22,375167	0,5	2,790150
22,383500	0,5	2,870350
22,391833	0,5	2,938500
22,400167	0,5	2,998350
22,408500	0,5	3,057100
22,416833	0,5	3,112250
22,425167	0,5	3,184500
22,433500	0,5	3,256500
22,441833	0,5	3,333850
22,450167	0,5	3,403300
22,458500	0,5	3,485650
22,466833	0,5	3,555400
22,475167	0,5	3,630850
22,483500	0,5	3,705300
22,491833	0,5	3,778400
22,500167	0,5	3,848700
22,508500	0,5	3,876200
22,516833	0,5	3,958800
22,525167	0,5	4,035550
22,533500	0,5	4,127250
22,541833	0,5	4,188650
22,550167	0,5	4,249400
22,558500	0,5	4,294300
22,566833	0,5	4,336100
22,575167	0,5	4,386750
22,583500	0,5	4,441300
22,591833	0,5	4,471400
22,600167	0,5	4,516050
22,608500	0,5	4,539250
22,616833	0,5	4,568100
22,625167	0,5	4,581750
22,633500	0,5	4,589250
22,641833	0,5	4,588250
22,650167	0,5	4,564650
22,658500	0,5	4,514600
22,666833	0,5	4,497700
22,675167	0,5	4,470950
22,683500	0,5	4,428650
22,691833	0,5	4,358350
22,700167	0,5	4,280150
22,708500	0,5	4,184150
22,716833	0,5	4,089300
22,725167	0,5	4,004100
22,733500	0,5	3,903400
22,741833	0,5	3,804150
22,750167	0,5	3,688500
22,758500	0,5	3,578900
22,766833	0,5	3,457300
22,775167	0,5	3,330600
22,783500	0,5	3,196200
22,791833	0,5	3,045750
22,800167	0,5	2,853250
22,808500	0,5	2,690650
22,816833	0,5	2,542950
22,825167	0,5	2,386100
22,833500	0,5	2,208500
22,841833	0,5	2,030650
22,850167	0,5	1,855600
22,858500	0,5	1,685400
22,866833	0,5	1,504950
22,875167	0,5	1,333150
22,883500	0,5	1,163200
22,891833	0,5	1,002600
22,900167	0,5	0,838200
22,908500	0,5	0,681800
22,916833	0,5	0,517050
22,925167	0,5	0,362500
22,933500	0,5	0,202100
22,941833	0,5	0,055350
22,950167	0,5	-0,095900
22,958500	0,5	-0,244100
22,966833	0,5	-0,402400
22,975167	0,5	-0,562950
22,983500	0,5	-0,696850
22,991833	0,5	-0,821900
23,000167	0,5	-0,932500
23,008500	0,5	-1,048900
23,016833	0,5	-1,150800
23,025167	0,5	-1,255150
23,033500	0,5	-1,337550
23,041833	0,5	-1,433450
23,050167	0,5	-1,507400
23,058500	0,5	-1,588650
23,066833	0,5	-1,658700
23,075167	0,5	-1,732550
23,083500	0,5	-1,802550
23,091833	0,5	-1,846450
23,100167	0,5	-1,920350
23,108500	0,5	-1,972250
23,116833	0,5	-2,060750
23,125167	0,5	-2,124150
23,133500	0,5	-2,168700
23,141833	0,5	-2,207950
23,150167	0,5	-2,222650
23,158500	0,5	-2,251850
23,166833	0,5	-2,272900
23,175167	0,5	-2,283150
23,183500	0,5	-2,293700
23,191833	0,5	-2,295000
23,200167	0,5	-2,300100
23,208500	0,5	-2,304050
23,216833	0,5	-2,307000
23,225167	0,5	-2,306750
23,233500	0,5	-2,313050
23,241833	0,5	-2,333200
23,250167	0,5	-2,302850
23,258500	0,5	-2,301150
23,266833	0,5	-2,320800
23,275167	0,5	-2,333800
23,283500	0,5	-2,332850
23,291833	0,5	-2,316050
23,300167	0,5	-2,298050
23,308500	0,5	-2,285800
23,316833	0,5	-2,264600
23,325167	0,5	-2,243900
23,333500	0,5	-2,214600
23,341833	0,5	-2,189750
23,350167	0,5	-2,162200
23,358500	0,5	-2,129200
23,366833	0,5	-2,103250
23,375167	0,5	-2,080300
23,383500	0,5	-2,054750
23,391833	0,5	-2,092300
23,400167	0,5	-2,037850
23,408500	0,5	-1,990150
23,416833	0,5	-1,982300
23,425167	0,5	-1,980600
23,433500	0,5	-1,966400
23,441833	0,5	-1,954700
23,450167	0,5	-1,932350
23,458500	0,5	-1,920250
23,466833	0,5	-1,900550
23,475167	0,5	-1,880650
23,483500	0,5	-1,861150
23,491833	0,5	-1,843800
23,500167	0,5	-1,822250
23,508500	0,5	-1,800800
23,516833	0,5	-1,783300
23,525167	0,5	-1,765750
23,533500	0,5	-1,811400
23,541833	0,5	-1,820250
23,550167	0,5	-1,767400
23,558500	0,5	-1,713800
23,566833	0,5	-1,697800
23,575167	0,5	-1,692150
23,583500	0,5	-1,685750
23,591833	0,5	-1,676100
23,600167	0,5	-1,669750
23,608500	0,5	-1,655750
23,616833	0,5	-1,647750
23,625167	0,5	-1,636500
23,633500	0,5	-1,629600
23,641833	0,5	-1,623450
23,650167	0,5	-1,617550
23,658500	0,5	-1,610000
23,666833	0,5	-1,603800
23,675167	0,5	-1,605350
23,683500	0,5	-1,737050
23,691833	0,5	-1,699450
23,700167	0,5	-1,659150
23,708500	0,5	-1,611450
23,716833	0,5	-1,604750
23,725167	0,5	-1,601050
23,733500	0,5	-1,608000
23,741833	0,5	-1,607850
23,750167	0,5	-1,605650
23,758500	0,5	-1,590500
23,766833	0,5	-1,583100
23,775167	0,5	-1,569900
23,783500	0,5	-1,558650
23,791833	0,5	-1,547250
23,800167	0,5	-1,537300
23,808500	0,5	-1,528100
23,816833	0,5	-1,521000
23,825167	0,5	-1,549400
23,833500	0,5	-1,652500
23,841833	0,5	-1,630750
23,850167	0,5	-1,579500
23,858500	0,5	-1,537050
23,866833	0,5	-1,523800
23,875167	0,5	-1,522300
23,883500	0,5	-1,531800
23,891833	0,5	-1,539600
23,900167	0,5	-1,529350
23,908500	0,5	-1,524100
23,916833	0,5	-1,513700
23,925167	0,5	-1,510550
23,933500	0,5	-1,494400
23,941833	0,5	-1,487550
23,950167	0,5	-1,471800
23,958500	0,5	-1,463050
23,966833	0,5	-1,454300
23,975167	0,5	-1,544650
23,983500	0,5	-1,552350
23,991833	0,5	-1,527300
24,000167	0,5	-1,456800
24,008500	0,5	-1,427400
24,016833	0,5	-1,414100
24,025167	0,5	-1,410000
24,033500	0,5	-1,418200
24,041833	0,5	-1,398300
24,050167	0,5	-1,385200
24,058500	0,5	-1,365400
24,066833	0,5	-1,355450
24,075167	0,5	-1,340900
24,083500	0,5	-1,332900
24,091833	0,5	-1,313250
24,100167	0,5	-1,304050
24,108500	0,5	-1,289600
24,116833	0,5	-1,294300
24,125167	0,5	-1,398750
24,133500	0,5	-1,372800
24,141833	0,5	-1,347650
24,150167	0,5	-1,294800
24,158500	0,5	-1,270050
24,166833	0,5	-1,262650
24,175167	0,5	-1,254500
24,183500	0,5	-1,261900
24,191833	0,5	-1,240750
24,200167	0,5	-1,224250
24,208500	0,5	-1,210950
24,216833	0,5	-1,194850
24,225167	0,5	-1,180500
24,233500	0,5	-1,159950
24,241833	0,5	-1,142300
24,250167	0,5	-1,121200
24,258500	0,5	-1,110650
24,266833	0,5	-1,126650
24,275167	0,5	-1,180900
24,283500	0,5	-1,142550
24,291833	0,5	-1,118750
24,300167	0,5	-1,073600
24,308500	0,5	-1,058400
24,316833	0,5	-1,047950
24,325167	0,5	-1,051450
24,333500	0,5	-1,055750
24,341833	0,5	-1,033650
24,350167	0,5	-1,023500
24,358500	0,5	-1,013950
24,366833	0,5	-1,001000
24,375167	0,5	-0,990750
24,383500	0,5	-0,979400
24,391833	0,5	-0,964000
24,400167	0,5	-0,953700
24,408500	0,5	-0,940600
24,416833	0,5	-1,001750
24,425167	0,5	-0,985650
24,433500	0,5	-0,964650
24,441833	0,5	-0,930350
24,450167	0,5	-0,900150
24,458500	0,5	-0,885900
24,466833	0,5	-0,879900
24,475167	0,5	-0,875800
24,483500	0,5	-0,872850
24,491833	0,5	-0,853450
24,500167	0,5	-0,843450
24,508500	0,5	-0,829450
24,516833	0,5	-0,819700
24,525167	0,5	-0,808300
24,533500	0,5	-0,794750
24,541833	0,5	-0,783550
24,550167	0,5	-0,770400
24,558500	0,5	-0,769550
24,566833	0,5	-0,813950
24,575167	0,5	-0,799150
24,583500	0,5	-0,781150
24,591833	0,5	-0,754950
24,600167	0,5	-0,739800
24,608500	0,5	-0,733400
24,616833	0,5	-0,730100
24,625167	0,5	-0,734150
24,633500	0,5	-0,727550
24,641833	0,5	-0,720700
24,650167	0,5	-0,705200
24,658500	0,5	-0,695400
24,666833	0,5	-0,678850
24,675167	0,5	-0,670000
24,683500	0,5	-0,654900
24,691833	0,5	-0,641800
24,700167	0,5	-0,632100
24,708500	0,5	-0,632250
24,716833	0,5	-0,654850
24,725167	0,5	-0,639300
24,733500	0,5	-0,619900
24,741833	0,5	-0,603600
24,750167	0,5	-0,591950
24,758500	0,5	-0,585150
24,766833	0,5	-0,589600
24,775167	0,5	-0,588900
24,783500	0,5	-0,583600
24,791833	0,5	-0,571550
24,800167	0,5	-0,567200
24,808500	0,5	-0,559750
24,816833	0,5	-0,555450
24,825167	0,5	-0,544450
24,833500	0,5	-0,535650
24,841833	0,5	-0,529250
24,850167	0,5	-0,523700
24,858500	0,5	-0,534550
24,866833	0,5	-0,531800
24,875167	0,5	-0,524650
24,883500	0,5	-0,508900
24,891833	0,5	-0,496800
24,900167	0,5	-0,485950
24,908500	0,5	-0,477950
24,916833	0,5	-0,480000
24,925167	0,5	-0,476350
24,933500	0,5	-0,463800
24,941833	0,5	-0,458050
24,950167	0,5	-0,448450
24,958500	0,5	-0,442100
24,966833	0,5	-0,436750
24,975167	0,5	-0,432400
24,983500	0,5	-0,425200
24,991833	0,5	-0,420350
25,000167	0,5	-0,414500
25,008500	0,5	-0,423300
25,016833	0,5	-0,417050
25,025167	0,5	-0,415050
25,033500	0,5	-0,403000
25,041833	0,5	-0,398400
25,050167	0,5	-0,395250
25,058500	0,5	-0,394000
25,066833	0,5	-0,393100
25,075167	0,5	-0,390100
25,083500	0,5	-0,383050
25,091833	0,5	-0,375150
25,100167	0,5	-0,372400
25,108500	0,5	-0,365700
25,116833	0,5	-0,360250
25,125167	0,5	-0,352500
25,133500	0,5	-0,349150
25,141833	0,5	-0,342800
25,150167	0,5	-0,342000
25,158500	0,5	-0,338500
25,166833	0,5	-0,332900
25,175167	0,5	-0,329150
25,183500	0,5	-0,321200
25,191833	0,5	-0,319350
25,200167	0,5	-0,318050
25,208500	0,5	-0,317750
25,216833	0,5	-0,320250
25,225167	0,5	-0,317600
25,233500	0,5	-0,315200
25,241833	0,5	-0,314350
25,250167	0,5	-0,312350
25,258500	0,5	-0,309500
25,266833	0,5	-0,309200
25,275167	0,5	-0,304150
25,283500	0,5	-0,299700
25,291833	0,5	-0,298350
25,300167	0,5	-0,294850
25,308500	0,5	-0,289450
25,316833	0,5	-0,287550
25,325167	0,5	-0,285900
25,333500	0,5	-0,279250
25,341833	0,5	-0,277550
25,350167	0,5	-0,274000
25,358500	0,5	-0,270900
25,366833	0,5	-0,270750
25,375167	0,5	-0,267000
25,383500	0,5	-0,265000
25,391833	0,5	-0,262050
25,400167	0,5	-0,261200
25,408500	0,5	-0,259150
25,416833	0,5	-0,260200
25,425167	0,5	-0,256150
25,433500	0,5	-0,254150
25,441833	0,5	-0,255900
25,450167	0,5	-0,248300
25,458500	0,5	-0,248800
25,466833	0,5	-0,248850
25,475167	0,5	-0,251200
25,483500	0,5	-0,251050
25,491833	0,5	-0,248350
25,500167	0,5	-0,249300
25,508500	0,5	-0,244250
25,516833	0,5	-0,238500
25,525167	0,5	-0,239000
25,533500	0,5	-0,234250
25,541833	0,5	-0,234500
25,550167	0,5	-0,231400
25,558500	0,5	-0,230700
25,566833	0,5	-0,226700
25,575167	0,5	-0,227450
25,583500	0,5	-0,224150
25,591833	0,5	-0,222300
25,600167	0,5	-0,219200
25,608500	0,5	-0,219400
25,616833	0,5	-0,216750
25,625167	0,5	-0,221500
25,633500	0,5	-0,220500
25,641833	0,5	-0,218550
25,650167	0,5	-0,219600
25,658500	0,5	-0,212300
25,666833	0,5	-0,211400
25,675167	0,5	-0,210150
25,683500	0,5	-0,212600
25,691833	0,5	-0,210650
25,700167	0,5	-0,210350
25,708500	0,5	-0,208150
25,716833	0,5	-0,209000
25,725167	0,5	-0,207900
25,733500	0,5	-0,202900
25,741833	0,5	-0,201300
25,750167	0,5	-0,198700
25,758500	0,5	-0,188750
25,766833	0,5	-0,193750
25,775167	0,5	-0,194350
25,783500	0,5	-0,190700
25,791833	0,5	-0,190250
25,800167	0,5	-0,179150
25,808500	0,5	-0,175700
25,816833	0,5	-0,173550
25,825167	0,5	-0,176300
25,833500	0,5	-0,173650
25,841833	0,5	-0,171400
25,850167	0,5	-0,164750
25,858500	0,5	-0,166800
25,866833	0,5	-0,166950
25,875167	0,5	-0,165300
25,883500	0,5	-0,164600
25,891833	0,5	-0,162500
25,900167	0,5	-0,163850
25,908500	0,5	-0,153700
25,916833	0,5	-0,159100
25,925167	0,5	-0,162600
25,933500	0,5	-0,158600
25,941833	0,5	-0,155150
25,950167	0,5	-0,145050
25,958500	0,5	-0,144150
25,966833	0,5	-0,143550
25,975167	0,5	-0,142150
25,983500	0,5	-0,141100
25,991833	0,5	-0,139400
26,000167	0,5	-0,143200
