File Path	chrom://chromeleon01/ikbm_chromeleon/2022/ICS-5000/ED1/Esteban/20220612_Cell_7_4_eg.seq/160.smp/ED_1.channel/ED_1.chm
Channel	ED_1

Injection Information:
Data Vault	ikbm_chromeleon
Injection	Std_C1ox-0.02_1
Injection Number	6
Position	RA1
Comment	
Processing Method	Stop sequence after Cell Death
Instrument Method	ICS5000_PA200_FullNative_Ox_26min_ED1
Type	Unknown
Status	Finished
Injection Date	12.06.2022
Injection Time	18:22:30
Injection Volume (µl)	5,0
Dilution Factor	1,0000
Weight	1,0000

Chromatogram Data Information:
Time Min. (min)	0,000167
Time Max. (min)	26,000167
Data Points	3121
Detector	EDet1
Generating Data System	Chromeleon 7.2.9.11323
Exporting Data System	Chromeleon 7.2.9.0
Operator	Instrument Controller
Signal Quantity	
Signal Unit	nC
Signal Min.	-1,166350
Signal Max.	80,424751
Channel	ED_1
Driver Name	DC-5000
Channel Type	Evaluation
Min. Step (s)	0,5
Max. Step (s)	0,5
Average Step (s)	0,5

Signal Parameter Information:
Signal Info	

Chromatogram Data:
Time (min)	Step (s)	Value (nC)
0,000167	n.a.	-0,057950
0,008500	0,5	-0,052550
0,016833	0,5	-0,041750
0,025167	0,5	-0,033800
0,033500	0,5	-0,026650
0,041833	0,5	-0,016350
0,050167	0,5	-0,016300
0,058500	0,5	-0,008150
0,066833	0,5	0,003050
0,075167	0,5	-0,009050
0,083500	0,5	-0,025200
0,091833	0,5	-0,013150
0,100167	0,5	-0,000350
0,108500	0,5	0,018950
0,116833	0,5	0,015100
0,125167	0,5	0,008700
0,133500	0,5	0,019250
0,141833	0,5	0,013600
0,150167	0,5	0,018950
0,158500	0,5	0,012450
0,166833	0,5	0,019500
0,175167	0,5	0,015050
0,183500	0,5	0,019850
0,191833	0,5	0,016950
0,200167	0,5	0,015500
0,208500	0,5	0,021950
0,216833	0,5	0,033150
0,225167	0,5	0,014100
0,233500	0,5	0,015450
0,241833	0,5	0,020250
0,250167	0,5	0,037500
0,258500	0,5	0,046100
0,266833	0,5	0,037750
0,275167	0,5	0,033400
0,283500	0,5	0,038550
0,291833	0,5	0,047900
0,300167	0,5	0,053350
0,308500	0,5	0,050450
0,316833	0,5	0,036800
0,325167	0,5	0,038200
0,333500	0,5	0,039750
0,341833	0,5	0,048950
0,350167	0,5	0,035200
0,358500	0,5	0,061250
0,366833	0,5	0,049000
0,375167	0,5	0,044800
0,383500	0,5	0,040300
0,391833	0,5	0,053200
0,400167	0,5	0,068350
0,408500	0,5	0,072050
0,416833	0,5	0,065650
0,425167	0,5	0,071650
0,433500	0,5	0,073300
0,441833	0,5	0,073350
0,450167	0,5	0,078300
0,458500	0,5	0,080750
0,466833	0,5	0,080200
0,475167	0,5	0,080200
0,483500	0,5	0,088300
0,491833	0,5	0,077250
0,500167	0,5	0,077050
0,508500	0,5	0,095850
0,516833	0,5	0,084200
0,525167	0,5	0,084500
0,533500	0,5	0,090150
0,541833	0,5	0,099200
0,550167	0,5	0,129000
0,558500	0,5	0,115550
0,566833	0,5	0,121250
0,575167	0,5	0,119050
0,583500	0,5	0,129150
0,591833	0,5	0,120450
0,600167	0,5	0,130550
0,608500	0,5	0,129550
0,616833	0,5	0,132700
0,625167	0,5	0,132750
0,633500	0,5	0,139400
0,641833	0,5	0,144100
0,650167	0,5	0,140600
0,658500	0,5	0,157550
0,666833	0,5	0,140300
0,675167	0,5	0,146350
0,683500	0,5	0,148250
0,691833	0,5	0,165050
0,700167	0,5	0,185050
0,708500	0,5	0,188050
0,716833	0,5	0,176550
0,725167	0,5	0,187000
0,733500	0,5	0,192450
0,741833	0,5	0,197800
0,750167	0,5	0,193350
0,758500	0,5	0,198700
0,766833	0,5	0,201600
0,775167	0,5	0,205400
0,783500	0,5	0,212250
0,791833	0,5	0,210100
0,800167	0,5	0,215550
0,808500	0,5	0,222300
0,816833	0,5	0,205800
0,825167	0,5	0,218500
0,833500	0,5	0,224550
0,841833	0,5	0,241750
0,850167	0,5	0,258350
0,858500	0,5	0,254000
0,866833	0,5	0,262600
0,875167	0,5	0,258750
0,883500	0,5	0,266150
0,891833	0,5	0,263300
0,900167	0,5	0,274500
0,908500	0,5	0,266800
0,916833	0,5	0,277750
0,925167	0,5	0,277600
0,933500	0,5	0,276550
0,941833	0,5	0,274700
0,950167	0,5	0,295450
0,958500	0,5	0,283800
0,966833	0,5	0,281450
0,975167	0,5	0,286700
0,983500	0,5	0,292550
0,991833	0,5	0,312600
1,000167	0,5	0,320000
1,008500	0,5	0,323700
1,016833	0,5	0,330800
1,025167	0,5	0,332200
1,033500	0,5	0,330400
1,041833	0,5	0,333700
1,050167	0,5	0,330250
1,058500	0,5	0,334550
1,066833	0,5	0,336300
1,075167	0,5	0,338250
1,083500	0,5	0,324650
1,091833	0,5	0,338400
1,100167	0,5	0,344450
1,108500	0,5	0,345000
1,116833	0,5	0,334800
1,125167	0,5	0,345400
1,133500	0,5	0,355300
1,141833	0,5	0,376300
1,150167	0,5	0,375800
1,158500	0,5	0,376250
1,166833	0,5	0,371850
1,175167	0,5	0,373900
1,183500	0,5	0,374800
1,191833	0,5	0,372800
1,200167	0,5	0,377200
1,208500	0,5	0,370050
1,216833	0,5	0,376300
1,225167	0,5	0,368000
1,233500	0,5	0,366300
1,241833	0,5	0,376800
1,250167	0,5	0,375200
1,258500	0,5	0,363350
1,266833	0,5	0,366150
1,275167	0,5	0,367850
1,283500	0,5	0,387950
1,291833	0,5	0,385400
1,300167	0,5	0,387650
1,308500	0,5	0,379200
1,316833	0,5	0,383850
1,325167	0,5	0,377800
1,333500	0,5	0,380450
1,341833	0,5	0,377850
1,350167	0,5	0,370450
1,358500	0,5	0,370450
1,366833	0,5	0,368900
1,375167	0,5	0,377050
1,383500	0,5	0,362850
1,391833	0,5	0,387550
1,400167	0,5	0,365900
1,408500	0,5	0,357850
1,416833	0,5	0,351450
1,425167	0,5	0,357500
1,433500	0,5	0,378350
1,441833	0,5	0,388200
1,450167	0,5	0,399150
1,458500	0,5	0,447550
1,466833	0,5	0,485600
1,475167	0,5	0,516350
1,483500	0,5	0,528700
1,491833	0,5	0,528600
1,500167	0,5	0,510200
1,508500	0,5	0,496300
1,516833	0,5	0,487200
1,525167	0,5	0,463300
1,533500	0,5	0,446600
1,541833	0,5	0,446450
1,550167	0,5	0,398400
1,558500	0,5	0,310500
1,566833	0,5	0,071750
1,575167	0,5	-0,399000
1,583500	0,5	-0,910400
1,591833	0,5	-1,166350
1,600167	0,5	-0,810000
1,608500	0,5	0,159600
1,616833	0,5	1,749350
1,625167	0,5	3,782200
1,633500	0,5	5,706000
1,641833	0,5	6,802900
1,650167	0,5	6,858350
1,658500	0,5	6,227500
1,666833	0,5	5,413300
1,675167	0,5	4,709650
1,683500	0,5	4,214500
1,691833	0,5	3,913350
1,700167	0,5	3,735650
1,708500	0,5	3,657250
1,716833	0,5	3,577600
1,725167	0,5	3,461750
1,733500	0,5	3,335250
1,741833	0,5	3,267800
1,750167	0,5	3,346650
1,758500	0,5	3,630000
1,766833	0,5	4,017550
1,775167	0,5	4,373950
1,783500	0,5	4,556350
1,791833	0,5	4,553100
1,800167	0,5	4,381550
1,808500	0,5	4,136350
1,816833	0,5	3,855150
1,825167	0,5	3,588600
1,833500	0,5	3,365500
1,841833	0,5	3,199650
1,850167	0,5	3,079800
1,858500	0,5	3,012850
1,866833	0,5	2,940600
1,875167	0,5	2,907750
1,883500	0,5	3,078150
1,891833	0,5	3,845150
1,900167	0,5	5,978450
1,908500	0,5	10,945000
1,916833	0,5	20,871750
1,925167	0,5	35,247951
1,933500	0,5	47,239151
1,941833	0,5	49,436951
1,950167	0,5	42,469951
1,958500	0,5	32,332000
1,966833	0,5	23,546500
1,975167	0,5	17,353950
1,983500	0,5	13,329350
1,991833	0,5	10,614750
2,000167	0,5	8,716200
2,008500	0,5	7,334550
2,016833	0,5	6,349750
2,025167	0,5	5,643150
2,033500	0,5	5,141700
2,041833	0,5	4,765850
2,050167	0,5	4,475700
2,058500	0,5	4,202800
2,066833	0,5	3,956500
2,075167	0,5	3,741550
2,083500	0,5	3,569850
2,091833	0,5	3,440200
2,100167	0,5	3,345900
2,108500	0,5	3,276600
2,116833	0,5	3,212600
2,125167	0,5	3,189750
2,133500	0,5	3,178950
2,141833	0,5	3,172350
2,150167	0,5	3,179350
2,158500	0,5	3,209400
2,166833	0,5	3,259250
2,175167	0,5	3,322950
2,183500	0,5	3,397400
2,191833	0,5	3,490450
2,200167	0,5	3,581150
2,208500	0,5	3,660850
2,216833	0,5	3,706050
2,225167	0,5	3,733550
2,233500	0,5	3,754450
2,241833	0,5	3,796600
2,250167	0,5	3,860450
2,258500	0,5	3,929400
2,266833	0,5	4,008750
2,275167	0,5	4,106250
2,283500	0,5	4,183050
2,291833	0,5	4,257050
2,300167	0,5	4,341650
2,308500	0,5	4,427700
2,316833	0,5	4,531600
2,325167	0,5	4,621500
2,333500	0,5	4,713200
2,341833	0,5	4,793750
2,350167	0,5	4,888150
2,358500	0,5	4,977450
2,366833	0,5	5,081300
2,375167	0,5	5,187550
2,383500	0,5	5,322500
2,391833	0,5	5,508000
2,400167	0,5	5,791950
2,408500	0,5	6,208000
2,416833	0,5	6,748700
2,425167	0,5	7,365400
2,433500	0,5	7,910600
2,441833	0,5	8,483150
2,450167	0,5	9,367350
2,458500	0,5	11,003550
2,466833	0,5	13,600250
2,475167	0,5	16,645350
2,483500	0,5	18,999200
2,491833	0,5	19,625200
2,500167	0,5	18,349300
2,508500	0,5	15,947400
2,516833	0,5	13,373750
2,525167	0,5	11,235600
2,533500	0,5	9,671650
2,541833	0,5	8,614700
2,550167	0,5	7,920700
2,558500	0,5	7,453900
2,566833	0,5	7,137650
2,575167	0,5	6,938950
2,583500	0,5	6,774450
2,591833	0,5	6,667450
2,600167	0,5	6,590950
2,608500	0,5	6,542250
2,616833	0,5	6,513200
2,625167	0,5	6,459050
2,633500	0,5	6,408650
2,641833	0,5	6,341600
2,650167	0,5	6,272500
2,658500	0,5	6,192150
2,666833	0,5	6,117050
2,675167	0,5	6,043950
2,683500	0,5	5,985800
2,691833	0,5	5,923200
2,700167	0,5	5,864850
2,708500	0,5	5,811500
2,716833	0,5	5,776500
2,725167	0,5	5,738150
2,733500	0,5	5,688350
2,741833	0,5	5,642450
2,750167	0,5	5,582500
2,758500	0,5	5,506250
2,766833	0,5	5,421900
2,775167	0,5	5,322450
2,783500	0,5	5,213000
2,791833	0,5	5,113400
2,800167	0,5	5,019350
2,808500	0,5	4,925550
2,816833	0,5	4,829800
2,825167	0,5	4,741550
2,833500	0,5	4,654300
2,841833	0,5	4,571150
2,850167	0,5	4,476000
2,858500	0,5	4,394400
2,866833	0,5	4,324150
2,875167	0,5	4,240550
2,883500	0,5	4,153200
2,891833	0,5	4,079500
2,900167	0,5	4,000450
2,908500	0,5	3,937800
2,916833	0,5	3,853550
2,925167	0,5	3,768800
2,933500	0,5	3,686650
2,941833	0,5	3,607000
2,950167	0,5	3,526450
2,958500	0,5	3,450750
2,966833	0,5	3,377900
2,975167	0,5	3,305900
2,983500	0,5	3,241600
2,991833	0,5	3,177050
3,000167	0,5	3,116800
3,008500	0,5	3,061550
3,016833	0,5	3,040700
3,025167	0,5	2,991400
3,033500	0,5	2,956700
3,041833	0,5	2,924500
3,050167	0,5	2,892350
3,058500	0,5	2,864250
3,066833	0,5	2,829950
3,075167	0,5	2,826650
3,083500	0,5	2,864650
3,091833	0,5	2,915750
3,100167	0,5	2,965250
3,108500	0,5	2,984200
3,116833	0,5	2,947900
3,125167	0,5	2,847900
3,133500	0,5	2,704450
3,141833	0,5	2,544750
3,150167	0,5	2,372400
3,158500	0,5	2,239050
3,166833	0,5	2,133050
3,175167	0,5	2,036050
3,183500	0,5	1,974100
3,191833	0,5	1,945200
3,200167	0,5	1,928250
3,208500	0,5	1,927300
3,216833	0,5	1,895600
3,225167	0,5	1,863950
3,233500	0,5	1,809750
3,241833	0,5	1,744200
3,250167	0,5	1,664500
3,258500	0,5	1,594850
3,266833	0,5	1,528900
3,275167	0,5	1,473200
3,283500	0,5	1,423250
3,291833	0,5	1,375200
3,300167	0,5	1,334550
3,308500	0,5	1,309650
3,316833	0,5	1,284300
3,325167	0,5	1,254100
3,333500	0,5	1,233750
3,341833	0,5	1,226000
3,350167	0,5	1,234800
3,358500	0,5	1,249600
3,366833	0,5	1,281300
3,375167	0,5	1,335650
3,383500	0,5	1,416600
3,391833	0,5	1,501700
3,400167	0,5	1,598800
3,408500	0,5	1,677550
3,416833	0,5	1,752100
3,425167	0,5	1,835050
3,433500	0,5	1,969950
3,441833	0,5	2,186400
3,450167	0,5	2,544400
3,458500	0,5	3,069350
3,466833	0,5	3,751050
3,475167	0,5	4,537350
3,483500	0,5	5,340200
3,491833	0,5	6,025300
3,500167	0,5	6,461750
3,508500	0,5	6,549600
3,516833	0,5	6,268000
3,525167	0,5	5,709000
3,533500	0,5	4,976400
3,541833	0,5	4,208350
3,550167	0,5	3,517000
3,558500	0,5	2,975700
3,566833	0,5	2,595450
3,575167	0,5	2,410850
3,583500	0,5	2,409100
3,591833	0,5	2,621750
3,600167	0,5	3,067950
3,608500	0,5	3,762750
3,616833	0,5	4,649250
3,625167	0,5	5,678800
3,633500	0,5	6,693050
3,641833	0,5	7,527150
3,650167	0,5	8,003400
3,658500	0,5	8,031050
3,666833	0,5	7,614600
3,675167	0,5	6,850800
3,683500	0,5	5,884600
3,691833	0,5	4,866150
3,700167	0,5	3,918850
3,708500	0,5	3,111350
3,716833	0,5	2,476550
3,725167	0,5	1,994050
3,733500	0,5	1,638350
3,741833	0,5	1,365450
3,750167	0,5	1,191050
3,758500	0,5	1,041550
3,766833	0,5	0,925000
3,775167	0,5	0,832500
3,783500	0,5	0,765550
3,791833	0,5	0,721750
3,800167	0,5	0,681400
3,808500	0,5	0,639250
3,816833	0,5	0,609250
3,825167	0,5	0,580450
3,833500	0,5	0,560000
3,841833	0,5	0,536650
3,850167	0,5	0,517200
3,858500	0,5	0,497250
3,866833	0,5	0,476600
3,875167	0,5	0,468150
3,883500	0,5	0,451700
3,891833	0,5	0,437050
3,900167	0,5	0,437000
3,908500	0,5	0,414500
3,916833	0,5	0,399750
3,925167	0,5	0,397850
3,933500	0,5	0,389600
3,941833	0,5	0,402300
3,950167	0,5	0,390850
3,958500	0,5	0,388000
3,966833	0,5	0,380550
3,975167	0,5	0,386150
3,983500	0,5	0,379850
3,991833	0,5	0,385500
4,000167	0,5	0,379700
4,008500	0,5	0,375550
4,016833	0,5	0,373600
4,025167	0,5	0,372000
4,033500	0,5	0,367100
4,041833	0,5	0,358150
4,050167	0,5	0,366300
4,058500	0,5	0,351650
4,066833	0,5	0,357550
4,075167	0,5	0,365150
4,083500	0,5	0,387600
4,091833	0,5	0,423850
4,100167	0,5	0,452950
4,108500	0,5	0,489050
4,116833	0,5	0,542150
4,125167	0,5	0,602150
4,133500	0,5	0,677000
4,141833	0,5	0,758150
4,150167	0,5	0,865450
4,158500	0,5	1,000150
4,166833	0,5	1,197200
4,175167	0,5	1,478500
4,183500	0,5	1,866300
4,191833	0,5	2,407700
4,200167	0,5	3,131950
4,208500	0,5	4,002650
4,216833	0,5	5,000950
4,225167	0,5	6,019150
4,233500	0,5	6,933650
4,241833	0,5	7,608850
4,250167	0,5	7,932500
4,258500	0,5	7,892400
4,266833	0,5	7,497850
4,275167	0,5	6,840750
4,283500	0,5	6,018300
4,291833	0,5	5,142700
4,300167	0,5	4,290000
4,308500	0,5	3,527650
4,316833	0,5	2,875650
4,325167	0,5	2,341750
4,333500	0,5	1,910800
4,341833	0,5	1,593100
4,350167	0,5	1,332250
4,358500	0,5	1,131050
4,366833	0,5	0,985250
4,375167	0,5	0,879900
4,383500	0,5	0,805100
4,391833	0,5	0,750800
4,400167	0,5	0,707750
4,408500	0,5	0,679950
4,416833	0,5	0,671600
4,425167	0,5	0,665950
4,433500	0,5	0,673950
4,441833	0,5	0,679900
4,450167	0,5	0,692900
4,458500	0,5	0,695450
4,466833	0,5	0,699650
4,475167	0,5	0,679850
4,483500	0,5	0,662600
4,491833	0,5	0,639050
4,500167	0,5	0,603200
4,508500	0,5	0,552500
4,516833	0,5	0,524850
4,525167	0,5	0,496200
4,533500	0,5	0,476950
4,541833	0,5	0,455500
4,550167	0,5	0,432850
4,558500	0,5	0,416400
4,566833	0,5	0,402650
4,575167	0,5	0,390550
4,583500	0,5	0,384550
4,591833	0,5	0,374250
4,600167	0,5	0,365950
4,608500	0,5	0,362500
4,616833	0,5	0,355450
4,625167	0,5	0,347850
4,633500	0,5	0,345100
4,641833	0,5	0,343600
4,650167	0,5	0,326100
4,658500	0,5	0,321800
4,666833	0,5	0,314900
4,675167	0,5	0,321900
4,683500	0,5	0,321900
4,691833	0,5	0,312300
4,700167	0,5	0,302650
4,708500	0,5	0,302550
4,716833	0,5	0,293250
4,725167	0,5	0,291900
4,733500	0,5	0,282150
4,741833	0,5	0,275950
4,750167	0,5	0,270650
4,758500	0,5	0,265050
4,766833	0,5	0,264950
4,775167	0,5	0,253050
4,783500	0,5	0,264800
4,791833	0,5	0,257950
4,800167	0,5	0,254050
4,808500	0,5	0,248800
4,816833	0,5	0,250650
4,825167	0,5	0,260550
4,833500	0,5	0,261050
4,841833	0,5	0,251100
4,850167	0,5	0,259250
4,858500	0,5	0,257150
4,866833	0,5	0,258500
4,875167	0,5	0,255700
4,883500	0,5	0,255650
4,891833	0,5	0,253700
4,900167	0,5	0,257550
4,908500	0,5	0,259950
4,916833	0,5	0,251300
4,925167	0,5	0,249200
4,933500	0,5	0,265650
4,941833	0,5	0,257200
4,950167	0,5	0,254200
4,958500	0,5	0,258000
4,966833	0,5	0,262750
4,975167	0,5	0,278650
4,983500	0,5	0,270550
4,991833	0,5	0,273550
5,000167	0,5	0,269350
5,008500	0,5	0,269850
5,016833	0,5	0,265200
5,025167	0,5	0,265350
5,033500	0,5	0,258650
5,041833	0,5	0,256900
5,050167	0,5	0,253800
5,058500	0,5	0,252750
5,066833	0,5	0,247600
5,075167	0,5	0,242700
5,083500	0,5	0,249200
5,091833	0,5	0,239650
5,100167	0,5	0,238800
5,108500	0,5	0,237150
5,116833	0,5	0,244100
5,125167	0,5	0,256450
5,133500	0,5	0,251000
5,141833	0,5	0,246350
5,150167	0,5	0,249050
5,158500	0,5	0,247150
5,166833	0,5	0,250650
5,175167	0,5	0,245350
5,183500	0,5	0,243600
5,191833	0,5	0,243800
5,200167	0,5	0,244500
5,208500	0,5	0,247500
5,216833	0,5	0,246200
5,225167	0,5	0,246300
5,233500	0,5	0,244650
5,241833	0,5	0,235600
5,250167	0,5	0,238550
5,258500	0,5	0,239200
5,266833	0,5	0,248100
5,275167	0,5	0,259000
5,283500	0,5	0,259550
5,291833	0,5	0,262100
5,300167	0,5	0,261350
5,308500	0,5	0,261350
5,316833	0,5	0,262300
5,325167	0,5	0,261050
5,333500	0,5	0,258500
5,341833	0,5	0,260800
5,350167	0,5	0,260400
5,358500	0,5	0,257600
5,366833	0,5	0,255150
5,375167	0,5	0,262050
5,383500	0,5	0,259700
5,391833	0,5	0,251800
5,400167	0,5	0,255000
5,408500	0,5	0,262650
5,416833	0,5	0,268500
5,425167	0,5	0,271450
5,433500	0,5	0,269200
5,441833	0,5	0,265100
5,450167	0,5	0,265050
5,458500	0,5	0,263300
5,466833	0,5	0,262200
5,475167	0,5	0,264550
5,483500	0,5	0,269600
5,491833	0,5	0,273750
5,500167	0,5	0,283050
5,508500	0,5	0,285550
5,516833	0,5	0,306400
5,525167	0,5	0,322500
5,533500	0,5	0,335550
5,541833	0,5	0,343850
5,550167	0,5	0,357050
5,558500	0,5	0,366700
5,566833	0,5	0,380450
5,575167	0,5	0,380450
5,583500	0,5	0,375000
5,591833	0,5	0,364300
5,600167	0,5	0,354200
5,608500	0,5	0,339000
5,616833	0,5	0,326850
5,625167	0,5	0,314550
5,633500	0,5	0,299150
5,641833	0,5	0,294350
5,650167	0,5	0,280150
5,658500	0,5	0,273100
5,666833	0,5	0,276050
5,675167	0,5	0,282950
5,683500	0,5	0,281150
5,691833	0,5	0,298300
5,700167	0,5	0,319200
5,708500	0,5	0,353750
5,716833	0,5	0,387450
5,725167	0,5	0,405650
5,733500	0,5	0,421400
5,741833	0,5	0,429000
5,750167	0,5	0,423900
5,758500	0,5	0,410550
5,766833	0,5	0,385400
5,775167	0,5	0,356150
5,783500	0,5	0,323900
5,791833	0,5	0,295250
5,800167	0,5	0,271950
5,808500	0,5	0,247050
5,816833	0,5	0,242100
5,825167	0,5	0,230700
5,833500	0,5	0,226400
5,841833	0,5	0,225600
5,850167	0,5	0,234800
5,858500	0,5	0,245200
5,866833	0,5	0,253150
5,875167	0,5	0,248600
5,883500	0,5	0,250700
5,891833	0,5	0,243750
5,900167	0,5	0,244300
5,908500	0,5	0,236000
5,916833	0,5	0,229700
5,925167	0,5	0,216800
5,933500	0,5	0,211300
5,941833	0,5	0,206900
5,950167	0,5	0,195950
5,958500	0,5	0,184000
5,966833	0,5	0,188400
5,975167	0,5	0,169450
5,983500	0,5	0,162700
5,991833	0,5	0,156450
6,000167	0,5	0,152700
6,008500	0,5	0,159800
6,016833	0,5	0,154650
6,025167	0,5	0,155300
6,033500	0,5	0,151300
6,041833	0,5	0,150750
6,050167	0,5	0,146750
6,058500	0,5	0,148800
6,066833	0,5	0,147750
6,075167	0,5	0,148050
6,083500	0,5	0,146100
6,091833	0,5	0,148000
6,100167	0,5	0,141200
6,108500	0,5	0,142550
6,116833	0,5	0,146150
6,125167	0,5	0,139300
6,133500	0,5	0,139700
6,141833	0,5	0,143550
6,150167	0,5	0,145900
6,158500	0,5	0,158800
6,166833	0,5	0,160550
6,175167	0,5	0,154850
6,183500	0,5	0,155250
6,191833	0,5	0,154750
6,200167	0,5	0,156500
6,208500	0,5	0,152500
6,216833	0,5	0,153500
6,225167	0,5	0,152050
6,233500	0,5	0,156300
6,241833	0,5	0,152900
6,250167	0,5	0,156550
6,258500	0,5	0,161750
6,266833	0,5	0,169050
6,275167	0,5	0,169350
6,283500	0,5	0,183850
6,291833	0,5	0,201550
6,300167	0,5	0,232600
6,308500	0,5	0,275350
6,316833	0,5	0,322650
6,325167	0,5	0,386450
6,333500	0,5	0,473800
6,341833	0,5	0,583350
6,350167	0,5	0,725500
6,358500	0,5	0,895550
6,366833	0,5	1,093600
6,375167	0,5	1,321150
6,383500	0,5	1,574350
6,391833	0,5	1,852100
6,400167	0,5	2,147000
6,408500	0,5	2,474300
6,416833	0,5	2,813650
6,425167	0,5	3,215050
6,433500	0,5	3,690150
6,441833	0,5	4,306350
6,450167	0,5	5,146950
6,458500	0,5	6,337550
6,466833	0,5	8,050250
6,475167	0,5	10,520950
6,483500	0,5	13,962000
6,491833	0,5	18,519350
6,500167	0,5	24,150150
6,508500	0,5	30,563300
6,516833	0,5	37,187551
6,525167	0,5	43,318501
6,533500	0,5	48,289351
6,541833	0,5	51,600451
6,550167	0,5	53,084051
6,558500	0,5	52,708151
6,566833	0,5	50,547601
6,575167	0,5	46,830151
6,583500	0,5	41,914251
6,591833	0,5	36,230151
6,600167	0,5	30,327150
6,608500	0,5	24,670950
6,616833	0,5	19,626900
6,625167	0,5	15,360150
6,633500	0,5	11,919350
6,641833	0,5	9,234000
6,650167	0,5	7,206650
6,658500	0,5	5,705800
6,666833	0,5	4,615750
6,675167	0,5	3,831650
6,683500	0,5	3,259400
6,691833	0,5	2,836600
6,700167	0,5	2,531000
6,708500	0,5	2,283800
6,716833	0,5	2,087750
6,725167	0,5	1,928350
6,733500	0,5	1,801350
6,741833	0,5	1,699450
6,750167	0,5	1,604100
6,758500	0,5	1,522250
6,766833	0,5	1,442950
6,775167	0,5	1,380000
6,783500	0,5	1,315300
6,791833	0,5	1,263250
6,800167	0,5	1,212950
6,808500	0,5	1,167750
6,816833	0,5	1,123800
6,825167	0,5	1,088950
6,833500	0,5	1,060000
6,841833	0,5	1,026850
6,850167	0,5	1,004800
6,858500	0,5	0,974950
6,866833	0,5	0,948300
6,875167	0,5	0,924250
6,883500	0,5	0,908950
6,891833	0,5	0,900450
6,900167	0,5	0,886700
6,908500	0,5	0,865900
6,916833	0,5	0,855550
6,925167	0,5	0,844050
6,933500	0,5	0,834300
6,941833	0,5	0,822050
6,950167	0,5	0,810450
6,958500	0,5	0,800100
6,966833	0,5	0,788100
6,975167	0,5	0,782650
6,983500	0,5	0,775600
6,991833	0,5	0,763050
7,000167	0,5	0,760400
7,008500	0,5	0,746700
7,016833	0,5	0,743000
7,025167	0,5	0,734950
7,033500	0,5	0,735000
7,041833	0,5	0,739200
7,050167	0,5	0,731350
7,058500	0,5	0,726400
7,066833	0,5	0,723400
7,075167	0,5	0,717250
7,083500	0,5	0,712700
7,091833	0,5	0,709600
7,100167	0,5	0,706100
7,108500	0,5	0,700100
7,116833	0,5	0,697700
7,125167	0,5	0,694300
7,133500	0,5	0,686550
7,141833	0,5	0,687750
7,150167	0,5	0,687850
7,158500	0,5	0,682550
7,166833	0,5	0,681600
7,175167	0,5	0,683900
7,183500	0,5	0,689100
7,191833	0,5	0,695000
7,200167	0,5	0,694900
7,208500	0,5	0,694450
7,216833	0,5	0,698050
7,225167	0,5	0,697350
7,233500	0,5	0,695850
7,241833	0,5	0,693750
7,250167	0,5	0,691450
7,258500	0,5	0,689300
7,266833	0,5	0,695700
7,275167	0,5	0,692800
7,283500	0,5	0,695950
7,291833	0,5	0,704550
7,300167	0,5	0,709200
7,308500	0,5	0,713550
7,316833	0,5	0,724350
7,325167	0,5	0,732650
7,333500	0,5	0,753750
7,341833	0,5	0,763650
7,350167	0,5	0,769300
7,358500	0,5	0,772000
7,366833	0,5	0,766150
7,375167	0,5	0,755350
7,383500	0,5	0,748500
7,391833	0,5	0,733300
7,400167	0,5	0,724850
7,408500	0,5	0,720350
7,416833	0,5	0,712250
7,425167	0,5	0,712150
7,433500	0,5	0,707600
7,441833	0,5	0,711650
7,450167	0,5	0,703350
7,458500	0,5	0,699300
7,466833	0,5	0,700400
7,475167	0,5	0,704050
7,483500	0,5	0,707700
7,491833	0,5	0,708750
7,500167	0,5	0,706350
7,508500	0,5	0,711400
7,516833	0,5	0,710250
7,525167	0,5	0,710550
7,533500	0,5	0,709800
7,541833	0,5	0,711150
7,550167	0,5	0,711000
7,558500	0,5	0,713300
7,566833	0,5	0,716800
7,575167	0,5	0,713050
7,583500	0,5	0,720500
7,591833	0,5	0,726250
7,600167	0,5	0,727850
7,608500	0,5	0,731200
7,616833	0,5	0,738700
7,625167	0,5	0,749850
7,633500	0,5	0,766550
7,641833	0,5	0,772000
7,650167	0,5	0,785600
7,658500	0,5	0,794850
7,666833	0,5	0,803950
7,675167	0,5	0,810300
7,683500	0,5	0,816500
7,691833	0,5	0,817100
7,700167	0,5	0,816850
7,708500	0,5	0,812950
7,716833	0,5	0,807900
7,725167	0,5	0,805300
7,733500	0,5	0,806900
7,741833	0,5	0,802600
7,750167	0,5	0,800800
7,758500	0,5	0,803200
7,766833	0,5	0,809700
7,775167	0,5	0,824150
7,783500	0,5	0,835250
7,791833	0,5	0,850750
7,800167	0,5	0,864150
7,808500	0,5	0,878550
7,816833	0,5	0,887600
7,825167	0,5	0,889250
7,833500	0,5	0,885600
7,841833	0,5	0,875000
7,850167	0,5	0,864450
7,858500	0,5	0,846700
7,866833	0,5	0,829150
7,875167	0,5	0,813200
7,883500	0,5	0,802150
7,891833	0,5	0,792600
7,900167	0,5	0,785850
7,908500	0,5	0,780600
7,916833	0,5	0,779750
7,925167	0,5	0,786750
7,933500	0,5	0,790100
7,941833	0,5	0,787950
7,950167	0,5	0,794000
7,958500	0,5	0,795700
7,966833	0,5	0,799950
7,975167	0,5	0,796650
7,983500	0,5	0,803050
7,991833	0,5	0,803750
8,000167	0,5	0,808350
8,008500	0,5	0,808750
8,016833	0,5	0,810250
8,025167	0,5	0,811150
8,033500	0,5	0,816350
8,041833	0,5	0,815750
8,050167	0,5	0,816100
8,058500	0,5	0,817200
8,066833	0,5	0,819600
8,075167	0,5	0,831000
8,083500	0,5	0,834400
8,091833	0,5	0,835500
8,100167	0,5	0,834950
8,108500	0,5	0,834200
8,116833	0,5	0,832400
8,125167	0,5	0,835750
8,133500	0,5	0,833800
8,141833	0,5	0,839800
8,150167	0,5	0,840900
8,158500	0,5	0,849250
8,166833	0,5	0,855700
8,175167	0,5	0,870300
8,183500	0,5	0,890100
8,191833	0,5	0,909950
8,200167	0,5	0,932450
8,208500	0,5	0,957250
8,216833	0,5	0,979000
8,225167	0,5	0,995000
8,233500	0,5	0,996200
8,241833	0,5	0,992550
8,250167	0,5	0,978300
8,258500	0,5	0,968950
8,266833	0,5	0,970800
8,275167	0,5	0,995100
8,283500	0,5	1,056650
8,291833	0,5	1,170450
8,300167	0,5	1,350800
8,308500	0,5	1,604400
8,316833	0,5	1,941900
8,325167	0,5	2,355850
8,333500	0,5	2,838650
8,341833	0,5	3,377700
8,350167	0,5	3,975950
8,358500	0,5	4,651300
8,366833	0,5	5,468100
8,375167	0,5	6,564900
8,383500	0,5	8,205950
8,391833	0,5	10,843500
8,400167	0,5	15,133450
8,408500	0,5	21,761450
8,416833	0,5	31,151500
8,425167	0,5	42,951601
8,433500	0,5	55,867801
8,441833	0,5	67,768451
8,450167	0,5	76,497401
8,458500	0,5	80,424751
8,466833	0,5	78,738401
8,475167	0,5	72,282601
8,483500	0,5	62,537201
8,491833	0,5	51,324901
8,500167	0,5	40,258651
8,508500	0,5	30,430200
8,516833	0,5	22,396000
8,525167	0,5	16,256150
8,533500	0,5	11,805750
8,541833	0,5	8,726250
8,550167	0,5	6,650750
8,558500	0,5	5,273550
8,566833	0,5	4,365200
8,575167	0,5	3,761600
8,583500	0,5	3,349200
8,591833	0,5	3,063650
8,600167	0,5	2,852450
8,608500	0,5	2,692150
8,616833	0,5	2,565750
8,625167	0,5	2,463450
8,633500	0,5	2,370550
8,641833	0,5	2,287450
8,650167	0,5	2,219450
8,658500	0,5	2,158250
8,666833	0,5	2,104850
8,675167	0,5	2,051300
8,683500	0,5	2,007750
8,691833	0,5	1,968000
8,700167	0,5	1,932750
8,708500	0,5	1,904800
8,716833	0,5	1,874800
8,725167	0,5	1,845150
8,733500	0,5	1,819850
8,741833	0,5	1,797000
8,750167	0,5	1,774300
8,758500	0,5	1,752200
8,766833	0,5	1,731400
8,775167	0,5	1,715150
8,783500	0,5	1,697900
8,791833	0,5	1,679000
8,800167	0,5	1,664500
8,808500	0,5	1,655350
8,816833	0,5	1,647700
8,825167	0,5	1,630400
8,833500	0,5	1,617250
8,841833	0,5	1,605600
8,850167	0,5	1,597700
8,858500	0,5	1,586400
8,866833	0,5	1,576800
8,875167	0,5	1,570050
8,883500	0,5	1,560650
8,891833	0,5	1,556100
8,900167	0,5	1,546500
8,908500	0,5	1,540650
8,916833	0,5	1,536850
8,925167	0,5	1,528400
8,933500	0,5	1,520400
8,941833	0,5	1,513400
8,950167	0,5	1,507350
8,958500	0,5	1,503700
8,966833	0,5	1,498200
8,975167	0,5	1,492100
8,983500	0,5	1,486150
8,991833	0,5	1,482550
9,000167	0,5	1,478300
9,008500	0,5	1,474750
9,016833	0,5	1,470750
9,025167	0,5	1,468250
9,033500	0,5	1,464200
9,041833	0,5	1,458100
9,050167	0,5	1,454650
9,058500	0,5	1,451000
9,066833	0,5	1,447050
9,075167	0,5	1,442050
9,083500	0,5	1,434800
9,091833	0,5	1,429950
9,100167	0,5	1,430350
9,108500	0,5	1,428600
9,116833	0,5	1,427450
9,125167	0,5	1,423450
9,133500	0,5	1,423300
9,141833	0,5	1,421850
9,150167	0,5	1,417950
9,158500	0,5	1,418200
9,166833	0,5	1,415900
9,175167	0,5	1,410950
9,183500	0,5	1,413100
9,191833	0,5	1,407600
9,200167	0,5	1,406500
9,208500	0,5	1,404450
9,216833	0,5	1,402950
9,225167	0,5	1,399400
9,233500	0,5	1,396050
9,241833	0,5	1,391500
9,250167	0,5	1,391100
9,258500	0,5	1,392150
9,266833	0,5	1,389750
9,275167	0,5	1,385500
9,283500	0,5	1,385000
9,291833	0,5	1,384700
9,300167	0,5	1,383500
9,308500	0,5	1,383050
9,316833	0,5	1,385600
9,325167	0,5	1,380350
9,333500	0,5	1,381650
9,341833	0,5	1,376800
9,350167	0,5	1,375200
9,358500	0,5	1,374400
9,366833	0,5	1,372900
9,375167	0,5	1,369900
9,383500	0,5	1,367300
9,391833	0,5	1,367550
9,400167	0,5	1,365500
9,408500	0,5	1,367750
9,416833	0,5	1,368500
9,425167	0,5	1,368300
9,433500	0,5	1,368250
9,441833	0,5	1,369050
9,450167	0,5	1,367650
9,458500	0,5	1,368100
9,466833	0,5	1,369900
9,475167	0,5	1,369500
9,483500	0,5	1,367000
9,491833	0,5	1,367550
9,500167	0,5	1,370200
9,508500	0,5	1,372150
9,516833	0,5	1,375550
9,525167	0,5	1,378400
9,533500	0,5	1,380650
9,541833	0,5	1,381900
9,550167	0,5	1,388950
9,558500	0,5	1,390800
9,566833	0,5	1,389500
9,575167	0,5	1,387550
9,583500	0,5	1,387600
9,591833	0,5	1,384350
9,600167	0,5	1,384050
9,608500	0,5	1,380700
9,616833	0,5	1,377600
9,625167	0,5	1,376550
9,633500	0,5	1,373900
9,641833	0,5	1,372150
9,650167	0,5	1,371700
9,658500	0,5	1,372450
9,666833	0,5	1,375150
9,675167	0,5	1,375950
9,683500	0,5	1,376600
9,691833	0,5	1,379200
9,700167	0,5	1,383350
9,708500	0,5	1,384050
9,716833	0,5	1,384850
9,725167	0,5	1,382250
9,733500	0,5	1,386650
9,741833	0,5	1,384200
9,750167	0,5	1,385000
9,758500	0,5	1,380950
9,766833	0,5	1,381100
9,775167	0,5	1,383550
9,783500	0,5	1,388900
9,791833	0,5	1,396600
9,800167	0,5	1,411950
9,808500	0,5	1,425950
9,816833	0,5	1,452600
9,825167	0,5	1,485200
9,833500	0,5	1,516950
9,841833	0,5	1,547100
9,850167	0,5	1,576950
9,858500	0,5	1,594500
9,866833	0,5	1,602000
9,875167	0,5	1,592600
9,883500	0,5	1,581350
9,891833	0,5	1,566700
9,900167	0,5	1,550650
9,908500	0,5	1,539400
9,916833	0,5	1,527100
9,925167	0,5	1,514150
9,933500	0,5	1,496200
9,941833	0,5	1,481700
9,950167	0,5	1,461400
9,958500	0,5	1,442050
9,966833	0,5	1,422500
9,975167	0,5	1,403900
9,983500	0,5	1,390700
9,991833	0,5	1,375000
10,000167	0,5	1,366650
10,008500	0,5	1,359250
10,016833	0,5	1,354900
10,025167	0,5	1,348300
10,033500	0,5	1,344650
10,041833	0,5	1,340800
10,050167	0,5	1,340200
10,058500	0,5	1,341150
10,066833	0,5	1,337200
10,075167	0,5	1,335050
10,083500	0,5	1,333550
10,091833	0,5	1,330600
10,100167	0,5	1,331850
10,108500	0,5	1,332000
10,116833	0,5	1,327600
10,125167	0,5	1,330300
10,133500	0,5	1,336850
10,141833	0,5	1,342000
10,150167	0,5	1,344700
10,158500	0,5	1,351250
10,166833	0,5	1,351500
10,175167	0,5	1,352800
10,183500	0,5	1,348300
10,191833	0,5	1,342050
10,200167	0,5	1,336850
10,208500	0,5	1,329000
10,216833	0,5	1,325950
10,225167	0,5	1,323900
10,233500	0,5	1,319650
10,241833	0,5	1,322700
10,250167	0,5	1,327650
10,258500	0,5	1,333950
10,266833	0,5	1,345200
10,275167	0,5	1,357750
10,283500	0,5	1,373850
10,291833	0,5	1,392050
10,300167	0,5	1,404700
10,308500	0,5	1,413450
10,316833	0,5	1,417900
10,325167	0,5	1,418800
10,333500	0,5	1,413700
10,341833	0,5	1,410800
10,350167	0,5	1,403250
10,358500	0,5	1,397000
10,366833	0,5	1,391600
10,375167	0,5	1,389600
10,383500	0,5	1,388350
10,391833	0,5	1,388850
10,400167	0,5	1,387300
10,408500	0,5	1,384150
10,416833	0,5	1,378100
10,425167	0,5	1,368850
10,433500	0,5	1,357700
10,441833	0,5	1,344900
10,450167	0,5	1,332150
10,458500	0,5	1,319750
10,466833	0,5	1,311600
10,475167	0,5	1,302750
10,483500	0,5	1,294750
10,491833	0,5	1,287250
10,500167	0,5	1,288450
10,508500	0,5	1,281800
10,516833	0,5	1,277900
10,525167	0,5	1,279550
10,533500	0,5	1,273250
10,541833	0,5	1,276050
10,550167	0,5	1,276700
10,558500	0,5	1,274500
10,566833	0,5	1,274050
10,575167	0,5	1,267050
10,583500	0,5	1,275650
10,591833	0,5	1,276250
10,600167	0,5	1,277450
10,608500	0,5	1,279250
10,616833	0,5	1,283700
10,625167	0,5	1,283000
10,633500	0,5	1,287200
10,641833	0,5	1,290900
10,650167	0,5	1,298800
10,658500	0,5	1,306300
10,666833	0,5	1,315250
10,675167	0,5	1,319450
10,683500	0,5	1,325600
10,691833	0,5	1,327900
10,700167	0,5	1,329150
10,708500	0,5	1,327850
10,716833	0,5	1,319900
10,725167	0,5	1,312950
10,733500	0,5	1,306850
10,741833	0,5	1,297500
10,750167	0,5	1,290500
10,758500	0,5	1,285050
10,766833	0,5	1,277750
10,775167	0,5	1,272400
10,783500	0,5	1,266600
10,791833	0,5	1,262100
10,800167	0,5	1,260450
10,808500	0,5	1,259200
10,816833	0,5	1,255000
10,825167	0,5	1,252600
10,833500	0,5	1,243200
10,841833	0,5	1,247600
10,850167	0,5	1,241250
10,858500	0,5	1,234950
10,866833	0,5	1,236450
10,875167	0,5	1,232750
10,883500	0,5	1,235300
10,891833	0,5	1,233450
10,900167	0,5	1,232400
10,908500	0,5	1,230850
10,916833	0,5	1,230800
10,925167	0,5	1,229900
10,933500	0,5	1,228800
10,941833	0,5	1,230250
10,950167	0,5	1,228850
10,958500	0,5	1,229450
10,966833	0,5	1,228600
10,975167	0,5	1,227800
10,983500	0,5	1,227600
10,991833	0,5	1,230150
11,000167	0,5	1,232550
11,008500	0,5	1,231650
11,016833	0,5	1,230600
11,025167	0,5	1,238050
11,033500	0,5	1,242400
11,041833	0,5	1,243500
11,050167	0,5	1,247050
11,058500	0,5	1,251000
11,066833	0,5	1,259050
11,075167	0,5	1,269350
11,083500	0,5	1,281900
11,091833	0,5	1,301000
11,100167	0,5	1,323200
11,108500	0,5	1,353400
11,116833	0,5	1,380450
11,125167	0,5	1,407500
11,133500	0,5	1,430650
11,141833	0,5	1,442500
11,150167	0,5	1,445650
11,158500	0,5	1,435600
11,166833	0,5	1,417500
11,175167	0,5	1,394500
11,183500	0,5	1,370300
11,191833	0,5	1,346150
11,200167	0,5	1,325600
11,208500	0,5	1,308700
11,216833	0,5	1,292200
11,225167	0,5	1,280300
11,233500	0,5	1,267150
11,241833	0,5	1,260150
11,250167	0,5	1,259900
11,258500	0,5	1,253600
11,266833	0,5	1,249550
11,275167	0,5	1,242750
11,283500	0,5	1,243100
11,291833	0,5	1,245200
11,300167	0,5	1,243900
11,308500	0,5	1,246000
11,316833	0,5	1,256650
11,325167	0,5	1,271700
11,333500	0,5	1,284750
11,341833	0,5	1,299300
11,350167	0,5	1,314900
11,358500	0,5	1,328700
11,366833	0,5	1,333700
11,375167	0,5	1,339150
11,383500	0,5	1,337000
11,391833	0,5	1,334900
11,400167	0,5	1,326050
11,408500	0,5	1,314950
11,416833	0,5	1,299650
11,425167	0,5	1,296450
11,433500	0,5	1,289600
11,441833	0,5	1,283500
11,450167	0,5	1,275700
11,458500	0,5	1,269600
11,466833	0,5	1,262450
11,475167	0,5	1,257900
11,483500	0,5	1,246850
11,491833	0,5	1,238850
11,500167	0,5	1,228700
11,508500	0,5	1,220950
11,516833	0,5	1,212150
11,525167	0,5	1,202900
11,533500	0,5	1,197100
11,541833	0,5	1,191900
11,550167	0,5	1,186000
11,558500	0,5	1,179000
11,566833	0,5	1,170400
11,575167	0,5	1,167800
11,583500	0,5	1,162550
11,591833	0,5	1,160300
11,600167	0,5	1,152450
11,608500	0,5	1,146300
11,616833	0,5	1,147850
11,625167	0,5	1,146250
11,633500	0,5	1,145550
11,641833	0,5	1,143150
11,650167	0,5	1,144100
11,658500	0,5	1,141900
11,666833	0,5	1,136650
11,675167	0,5	1,138900
11,683500	0,5	1,136650
11,691833	0,5	1,130950
11,700167	0,5	1,129100
11,708500	0,5	1,127800
11,716833	0,5	1,118950
11,725167	0,5	1,122200
11,733500	0,5	1,115550
11,741833	0,5	1,117700
11,750167	0,5	1,111300
11,758500	0,5	1,109000
11,766833	0,5	1,111200
11,775167	0,5	1,113250
11,783500	0,5	1,115650
11,791833	0,5	1,116850
11,800167	0,5	1,117400
11,808500	0,5	1,120750
11,816833	0,5	1,120700
11,825167	0,5	1,124550
11,833500	0,5	1,121700
11,841833	0,5	1,123000
11,850167	0,5	1,118950
11,858500	0,5	1,119450
11,866833	0,5	1,115250
11,875167	0,5	1,120550
11,883500	0,5	1,117450
11,891833	0,5	1,114800
11,900167	0,5	1,115400
11,908500	0,5	1,113300
11,916833	0,5	1,118850
11,925167	0,5	1,122600
11,933500	0,5	1,125600
11,941833	0,5	1,126300
11,950167	0,5	1,134100
11,958500	0,5	1,131350
11,966833	0,5	1,136350
11,975167	0,5	1,137200
11,983500	0,5	1,139400
11,991833	0,5	1,139350
12,000167	0,5	1,136250
12,008500	0,5	1,133200
12,016833	0,5	1,134100
12,025167	0,5	1,131450
12,033500	0,5	1,127750
12,041833	0,5	1,126800
12,050167	0,5	1,123500
12,058500	0,5	1,123950
12,066833	0,5	1,123900
12,075167	0,5	1,127800
12,083500	0,5	1,130750
12,091833	0,5	1,132500
12,100167	0,5	1,131600
12,108500	0,5	1,138850
12,116833	0,5	1,143450
12,125167	0,5	1,153700
12,133500	0,5	1,165600
12,141833	0,5	1,177600
12,150167	0,5	1,195700
12,158500	0,5	1,218200
12,166833	0,5	1,244700
12,175167	0,5	1,268950
12,183500	0,5	1,291700
12,191833	0,5	1,303800
12,200167	0,5	1,312800
12,208500	0,5	1,318400
12,216833	0,5	1,313300
12,225167	0,5	1,304650
12,233500	0,5	1,286350
12,241833	0,5	1,271400
12,250167	0,5	1,252900
12,258500	0,5	1,239200
12,266833	0,5	1,222600
12,275167	0,5	1,210650
12,283500	0,5	1,203300
12,291833	0,5	1,198500
12,300167	0,5	1,190500
12,308500	0,5	1,191250
12,316833	0,5	1,186700
12,325167	0,5	1,188600
12,333500	0,5	1,182550
12,341833	0,5	1,173300
12,350167	0,5	1,174900
12,358500	0,5	1,177800
12,366833	0,5	1,178750
12,375167	0,5	1,177500
12,383500	0,5	1,177600
12,391833	0,5	1,177050
12,400167	0,5	1,177750
12,408500	0,5	1,181050
12,416833	0,5	1,182400
12,425167	0,5	1,180600
12,433500	0,5	1,184200
12,441833	0,5	1,187700
12,450167	0,5	1,185650
12,458500	0,5	1,194600
12,466833	0,5	1,197250
12,475167	0,5	1,202150
12,483500	0,5	1,200500
12,491833	0,5	1,202300
12,500167	0,5	1,210500
12,508500	0,5	1,215200
12,516833	0,5	1,218000
12,525167	0,5	1,222250
12,533500	0,5	1,226550
12,541833	0,5	1,231200
12,550167	0,5	1,235050
12,558500	0,5	1,238300
12,566833	0,5	1,240850
12,575167	0,5	1,237500
12,583500	0,5	1,235550
12,591833	0,5	1,235650
12,600167	0,5	1,228000
12,608500	0,5	1,232450
12,616833	0,5	1,227950
12,625167	0,5	1,222800
12,633500	0,5	1,217100
12,641833	0,5	1,209800
12,650167	0,5	1,215400
12,658500	0,5	1,215900
12,666833	0,5	1,214750
12,675167	0,5	1,210250
12,683500	0,5	1,211350
12,691833	0,5	1,210400
12,700167	0,5	1,207000
12,708500	0,5	1,208000
12,716833	0,5	1,204700
12,725167	0,5	1,200800
12,733500	0,5	1,199400
12,741833	0,5	1,196250
12,750167	0,5	1,194100
12,758500	0,5	1,196700
12,766833	0,5	1,195800
12,775167	0,5	1,193500
12,783500	0,5	1,188350
12,791833	0,5	1,188750
12,800167	0,5	1,192350
12,808500	0,5	1,196900
12,816833	0,5	1,199150
12,825167	0,5	1,199950
12,833500	0,5	1,205100
12,841833	0,5	1,207300
12,850167	0,5	1,209950
12,858500	0,5	1,215750
12,866833	0,5	1,213650
12,875167	0,5	1,219250
12,883500	0,5	1,214600
12,891833	0,5	1,212700
12,900167	0,5	1,208650
12,908500	0,5	1,211100
12,916833	0,5	1,206550
12,925167	0,5	1,201150
12,933500	0,5	1,195450
12,941833	0,5	1,191150
12,950167	0,5	1,193700
12,958500	0,5	1,193250
12,966833	0,5	1,191050
12,975167	0,5	1,190050
12,983500	0,5	1,193550
12,991833	0,5	1,190100
13,000167	0,5	1,188700
13,008500	0,5	1,187700
13,016833	0,5	1,187200
13,025167	0,5	1,185400
13,033500	0,5	1,182850
13,041833	0,5	1,181900
13,050167	0,5	1,183850
13,058500	0,5	1,184550
13,066833	0,5	1,182500
13,075167	0,5	1,181000
13,083500	0,5	1,177450
13,091833	0,5	1,181550
13,100167	0,5	1,184300
13,108500	0,5	1,186100
13,116833	0,5	1,188350
13,125167	0,5	1,186450
13,133500	0,5	1,188550
13,141833	0,5	1,189300
13,150167	0,5	1,189600
13,158500	0,5	1,191350
13,166833	0,5	1,189150
13,175167	0,5	1,187100
13,183500	0,5	1,185300
13,191833	0,5	1,185000
13,200167	0,5	1,190850
13,208500	0,5	1,189400
13,216833	0,5	1,186300
13,225167	0,5	1,184250
13,233500	0,5	1,183600
13,241833	0,5	1,187900
13,250167	0,5	1,188950
13,258500	0,5	1,193450
13,266833	0,5	1,193800
13,275167	0,5	1,193600
13,283500	0,5	1,195500
13,291833	0,5	1,196350
13,300167	0,5	1,199300
13,308500	0,5	1,200050
13,316833	0,5	1,200350
13,325167	0,5	1,203050
13,333500	0,5	1,196400
13,341833	0,5	1,201800
13,350167	0,5	1,200250
13,358500	0,5	1,198950
13,366833	0,5	1,201200
13,375167	0,5	1,194300
13,383500	0,5	1,203150
13,391833	0,5	1,205000
13,400167	0,5	1,210050
13,408500	0,5	1,207900
13,416833	0,5	1,211450
13,425167	0,5	1,208000
13,433500	0,5	1,213950
13,441833	0,5	1,213050
13,450167	0,5	1,214350
13,458500	0,5	1,217000
13,466833	0,5	1,217250
13,475167	0,5	1,219850
13,483500	0,5	1,221200
13,491833	0,5	1,225300
13,500167	0,5	1,226850
13,508500	0,5	1,226200
13,516833	0,5	1,223050
13,525167	0,5	1,221450
13,533500	0,5	1,224650
13,541833	0,5	1,232100
13,550167	0,5	1,227100
13,558500	0,5	1,233400
13,566833	0,5	1,233050
13,575167	0,5	1,235850
13,583500	0,5	1,236550
13,591833	0,5	1,234450
13,600167	0,5	1,233100
13,608500	0,5	1,230000
13,616833	0,5	1,232800
13,625167	0,5	1,233200
13,633500	0,5	1,227500
13,641833	0,5	1,232850
13,650167	0,5	1,230500
13,658500	0,5	1,230750
13,666833	0,5	1,226750
13,675167	0,5	1,223700
13,683500	0,5	1,230100
13,691833	0,5	1,232150
13,700167	0,5	1,235500
13,708500	0,5	1,233650
13,716833	0,5	1,240400
13,725167	0,5	1,242500
13,733500	0,5	1,245850
13,741833	0,5	1,244350
13,750167	0,5	1,246850
13,758500	0,5	1,250700
13,766833	0,5	1,252000
13,775167	0,5	1,250000
13,783500	0,5	1,254500
13,791833	0,5	1,261150
13,800167	0,5	1,264150
13,808500	0,5	1,260100
13,816833	0,5	1,262300
13,825167	0,5	1,264950
13,833500	0,5	1,266800
13,841833	0,5	1,271750
13,850167	0,5	1,270350
13,858500	0,5	1,269300
13,866833	0,5	1,266800
13,875167	0,5	1,264950
13,883500	0,5	1,265550
13,891833	0,5	1,264150
13,900167	0,5	1,259950
13,908500	0,5	1,262450
13,916833	0,5	1,259950
13,925167	0,5	1,259100
13,933500	0,5	1,258700
13,941833	0,5	1,258400
13,950167	0,5	1,256350
13,958500	0,5	1,248800
13,966833	0,5	1,246750
13,975167	0,5	1,246750
13,983500	0,5	1,249900
13,991833	0,5	1,250000
14,000167	0,5	1,249400
14,008500	0,5	1,249400
14,016833	0,5	1,254550
14,025167	0,5	1,253600
14,033500	0,5	1,252600
14,041833	0,5	1,249250
14,050167	0,5	1,251500
14,058500	0,5	1,250400
14,066833	0,5	1,252350
14,075167	0,5	1,250150
14,083500	0,5	1,254100
14,091833	0,5	1,252800
14,100167	0,5	1,251550
14,108500	0,5	1,244550
14,116833	0,5	1,247600
14,125167	0,5	1,252050
14,133500	0,5	1,257200
14,141833	0,5	1,256350
14,150167	0,5	1,259300
14,158500	0,5	1,261800
14,166833	0,5	1,267550
14,175167	0,5	1,268300
14,183500	0,5	1,269700
14,191833	0,5	1,271000
14,200167	0,5	1,267700
14,208500	0,5	1,269950
14,216833	0,5	1,262100
14,225167	0,5	1,265050
14,233500	0,5	1,265200
14,241833	0,5	1,263950
14,250167	0,5	1,260500
14,258500	0,5	1,257500
14,266833	0,5	1,261500
14,275167	0,5	1,267850
14,283500	0,5	1,267700
14,291833	0,5	1,272450
14,300167	0,5	1,276150
14,308500	0,5	1,287600
14,316833	0,5	1,288500
14,325167	0,5	1,294700
14,333500	0,5	1,294500
14,341833	0,5	1,289700
14,350167	0,5	1,289150
14,358500	0,5	1,284750
14,366833	0,5	1,271050
14,375167	0,5	1,275350
14,383500	0,5	1,272000
14,391833	0,5	1,264250
14,400167	0,5	1,262700
14,408500	0,5	1,255750
14,416833	0,5	1,264900
14,425167	0,5	1,265950
14,433500	0,5	1,268250
14,441833	0,5	1,268800
14,450167	0,5	1,270100
14,458500	0,5	1,270550
14,466833	0,5	1,272400
14,475167	0,5	1,272800
14,483500	0,5	1,272900
14,491833	0,5	1,273650
14,500167	0,5	1,275550
14,508500	0,5	1,275400
14,516833	0,5	1,267250
14,525167	0,5	1,273150
14,533500	0,5	1,273700
14,541833	0,5	1,268650
14,550167	0,5	1,263050
14,558500	0,5	1,255850
14,566833	0,5	1,261100
14,575167	0,5	1,263950
14,583500	0,5	1,257850
14,591833	0,5	1,260250
14,600167	0,5	1,258600
14,608500	0,5	1,261600
14,616833	0,5	1,262450
14,625167	0,5	1,265050
14,633500	0,5	1,263250
14,641833	0,5	1,259050
14,650167	0,5	1,264300
14,658500	0,5	1,261000
14,666833	0,5	1,266200
14,675167	0,5	1,267300
14,683500	0,5	1,265600
14,691833	0,5	1,264200
14,700167	0,5	1,261900
14,708500	0,5	1,264500
14,716833	0,5	1,271450
14,725167	0,5	1,272400
14,733500	0,5	1,276700
14,741833	0,5	1,279350
14,750167	0,5	1,286000
14,758500	0,5	1,289400
14,766833	0,5	1,295800
14,775167	0,5	1,300600
14,783500	0,5	1,308250
14,791833	0,5	1,322650
14,800167	0,5	1,337700
14,808500	0,5	1,347350
14,816833	0,5	1,365500
14,825167	0,5	1,384650
14,833500	0,5	1,388750
14,841833	0,5	1,393250
14,850167	0,5	1,385850
14,858500	0,5	1,382000
14,866833	0,5	1,370800
14,875167	0,5	1,360900
14,883500	0,5	1,339000
14,891833	0,5	1,328750
14,900167	0,5	1,316000
14,908500	0,5	1,311850
14,916833	0,5	1,306850
14,925167	0,5	1,306900
14,933500	0,5	1,306000
14,941833	0,5	1,310100
14,950167	0,5	1,308100
14,958500	0,5	1,315350
14,966833	0,5	1,322400
14,975167	0,5	1,326850
14,983500	0,5	1,323800
14,991833	0,5	1,321650
15,000167	0,5	1,315500
15,008500	0,5	1,314300
15,016833	0,5	1,315100
15,025167	0,5	1,312600
15,033500	0,5	1,311250
15,041833	0,5	1,309300
15,050167	0,5	1,315500
15,058500	0,5	1,315850
15,066833	0,5	1,317450
15,075167	0,5	1,311250
15,083500	0,5	1,312100
15,091833	0,5	1,314400
15,100167	0,5	1,307850
15,108500	0,5	1,311200
15,116833	0,5	1,313300
15,125167	0,5	1,308450
15,133500	0,5	1,309000
15,141833	0,5	1,296700
15,150167	0,5	1,297050
15,158500	0,5	1,295500
15,166833	0,5	1,295150
15,175167	0,5	1,291800
15,183500	0,5	1,290600
15,191833	0,5	1,286050
15,200167	0,5	1,287400
15,208500	0,5	1,284050
15,216833	0,5	1,282550
15,225167	0,5	1,283300
15,233500	0,5	1,279650
15,241833	0,5	1,284100
15,250167	0,5	1,274750
15,258500	0,5	1,286450
15,266833	0,5	1,285950
15,275167	0,5	1,284800
15,283500	0,5	1,280100
15,291833	0,5	1,272200
15,300167	0,5	1,279600
15,308500	0,5	1,286500
15,316833	0,5	1,280900
15,325167	0,5	1,285450
15,333500	0,5	1,284800
15,341833	0,5	1,292000
15,350167	0,5	1,295000
15,358500	0,5	1,300700
15,366833	0,5	1,304050
15,375167	0,5	1,301300
15,383500	0,5	1,312150
15,391833	0,5	1,314850
15,400167	0,5	1,320950
15,408500	0,5	1,335200
15,416833	0,5	1,348200
15,425167	0,5	1,349350
15,433500	0,5	1,350300
15,441833	0,5	1,347400
15,450167	0,5	1,360650
15,458500	0,5	1,357900
15,466833	0,5	1,363850
15,475167	0,5	1,361850
15,483500	0,5	1,366300
15,491833	0,5	1,361400
15,500167	0,5	1,364900
15,508500	0,5	1,359650
15,516833	0,5	1,355200
15,525167	0,5	1,355350
15,533500	0,5	1,354350
15,541833	0,5	1,342250
15,550167	0,5	1,339950
15,558500	0,5	1,338850
15,566833	0,5	1,331650
15,575167	0,5	1,324300
15,583500	0,5	1,317250
15,591833	0,5	1,322250
15,600167	0,5	1,320800
15,608500	0,5	1,325350
15,616833	0,5	1,324750
15,625167	0,5	1,327300
15,633500	0,5	1,328600
15,641833	0,5	1,328500
15,650167	0,5	1,331600
15,658500	0,5	1,335400
15,666833	0,5	1,335100
15,675167	0,5	1,330800
15,683500	0,5	1,335750
15,691833	0,5	1,333750
15,700167	0,5	1,340150
15,708500	0,5	1,344300
15,716833	0,5	1,341600
15,725167	0,5	1,336900
15,733500	0,5	1,333800
15,741833	0,5	1,335800
15,750167	0,5	1,345100
15,758500	0,5	1,342000
15,766833	0,5	1,351200
15,775167	0,5	1,353650
15,783500	0,5	1,365250
15,791833	0,5	1,366700
15,800167	0,5	1,372950
15,808500	0,5	1,372800
15,816833	0,5	1,374750
15,825167	0,5	1,383300
15,833500	0,5	1,378800
15,841833	0,5	1,376300
15,850167	0,5	1,385400
15,858500	0,5	1,381850
15,866833	0,5	1,378250
15,875167	0,5	1,374550
15,883500	0,5	1,369300
15,891833	0,5	1,378900
15,900167	0,5	1,378950
15,908500	0,5	1,383200
15,916833	0,5	1,386250
15,925167	0,5	1,391150
15,933500	0,5	1,391650
15,941833	0,5	1,397900
15,950167	0,5	1,398550
15,958500	0,5	1,403100
15,966833	0,5	1,412350
15,975167	0,5	1,420950
15,983500	0,5	1,419100
15,991833	0,5	1,431150
16,000167	0,5	1,441750
16,008500	0,5	1,446650
16,016833	0,5	1,448400
16,025167	0,5	1,442150
16,033500	0,5	1,443450
16,041833	0,5	1,443500
16,050167	0,5	1,442100
16,058500	0,5	1,436650
16,066833	0,5	1,440800
16,075167	0,5	1,443000
16,083500	0,5	1,445850
16,091833	0,5	1,449550
16,100167	0,5	1,459200
16,108500	0,5	1,462700
16,116833	0,5	1,475850
16,125167	0,5	1,481750
16,133500	0,5	1,480600
16,141833	0,5	1,490300
16,150167	0,5	1,494800
16,158500	0,5	1,485900
16,166833	0,5	1,478450
16,175167	0,5	1,459050
16,183500	0,5	1,459750
16,191833	0,5	1,448500
16,200167	0,5	1,441200
16,208500	0,5	1,433800
16,216833	0,5	1,433800
16,225167	0,5	1,428100
16,233500	0,5	1,424500
16,241833	0,5	1,424300
16,250167	0,5	1,419750
16,258500	0,5	1,421900
16,266833	0,5	1,423400
16,275167	0,5	1,423500
16,283500	0,5	1,419300
16,291833	0,5	1,428400
16,300167	0,5	1,427050
16,308500	0,5	1,426750
16,316833	0,5	1,418200
16,325167	0,5	1,417800
16,333500	0,5	1,423850
16,341833	0,5	1,426300
16,350167	0,5	1,423650
16,358500	0,5	1,425250
16,366833	0,5	1,424250
16,375167	0,5	1,426400
16,383500	0,5	1,428600
16,391833	0,5	1,430350
16,400167	0,5	1,431300
16,408500	0,5	1,432850
16,416833	0,5	1,439350
16,425167	0,5	1,429700
16,433500	0,5	1,436800
16,441833	0,5	1,435600
16,450167	0,5	1,436750
16,458500	0,5	1,432600
16,466833	0,5	1,431700
16,475167	0,5	1,430950
16,483500	0,5	1,441400
16,491833	0,5	1,440500
16,500167	0,5	1,443550
16,508500	0,5	1,447800
16,516833	0,5	1,450500
16,525167	0,5	1,454500
16,533500	0,5	1,456150
16,541833	0,5	1,461750
16,550167	0,5	1,457750
16,558500	0,5	1,475850
16,566833	0,5	1,476300
16,575167	0,5	1,471050
16,583500	0,5	1,482100
16,591833	0,5	1,482200
16,600167	0,5	1,483400
16,608500	0,5	1,477350
16,616833	0,5	1,467100
16,625167	0,5	1,474750
16,633500	0,5	1,475850
16,641833	0,5	1,480550
16,650167	0,5	1,474000
16,658500	0,5	1,481150
16,666833	0,5	1,482100
16,675167	0,5	1,484850
16,683500	0,5	1,491800
16,691833	0,5	1,489400
16,700167	0,5	1,498400
16,708500	0,5	1,503550
16,716833	0,5	1,502450
16,725167	0,5	1,507700
16,733500	0,5	1,513800
16,741833	0,5	1,516200
16,750167	0,5	1,514000
16,758500	0,5	1,509850
16,766833	0,5	1,506450
16,775167	0,5	1,510350
16,783500	0,5	1,519200
16,791833	0,5	1,517500
16,800167	0,5	1,526200
16,808500	0,5	1,523900
16,816833	0,5	1,532150
16,825167	0,5	1,534050
16,833500	0,5	1,539500
16,841833	0,5	1,539250
16,850167	0,5	1,547150
16,858500	0,5	1,549700
16,866833	0,5	1,547000
16,875167	0,5	1,552500
16,883500	0,5	1,559550
16,891833	0,5	1,558650
16,900167	0,5	1,558050
16,908500	0,5	1,552100
16,916833	0,5	1,552850
16,925167	0,5	1,563300
16,933500	0,5	1,561250
16,941833	0,5	1,570600
16,950167	0,5	1,569550
16,958500	0,5	1,575600
16,966833	0,5	1,577450
16,975167	0,5	1,585500
16,983500	0,5	1,585500
16,991833	0,5	1,590650
17,000167	0,5	1,595300
17,008500	0,5	1,599250
17,016833	0,5	1,593250
17,025167	0,5	1,604250
17,033500	0,5	1,610750
17,041833	0,5	1,610250
17,050167	0,5	1,609600
17,058500	0,5	1,603900
17,066833	0,5	1,616500
17,075167	0,5	1,615950
17,083500	0,5	1,620950
17,091833	0,5	1,620350
17,100167	0,5	1,625900
17,108500	0,5	1,624050
17,116833	0,5	1,627200
17,125167	0,5	1,629550
17,133500	0,5	1,628150
17,141833	0,5	1,627500
17,150167	0,5	1,636700
17,158500	0,5	1,630300
17,166833	0,5	1,631050
17,175167	0,5	1,636100
17,183500	0,5	1,637600
17,191833	0,5	1,633200
17,200167	0,5	1,627550
17,208500	0,5	1,628800
17,216833	0,5	1,637350
17,225167	0,5	1,639500
17,233500	0,5	1,642950
17,241833	0,5	1,645450
17,250167	0,5	1,647850
17,258500	0,5	1,654800
17,266833	0,5	1,656150
17,275167	0,5	1,658900
17,283500	0,5	1,661550
17,291833	0,5	1,668200
17,300167	0,5	1,670950
17,308500	0,5	1,661750
17,316833	0,5	1,669550
17,325167	0,5	1,664250
17,333500	0,5	1,659650
17,341833	0,5	1,653450
17,350167	0,5	1,642700
17,358500	0,5	1,644300
17,366833	0,5	1,649600
17,375167	0,5	1,646050
17,383500	0,5	1,645550
17,391833	0,5	1,649950
17,400167	0,5	1,649700
17,408500	0,5	1,652300
17,416833	0,5	1,653050
17,425167	0,5	1,654800
17,433500	0,5	1,650750
17,441833	0,5	1,651350
17,450167	0,5	1,660150
17,458500	0,5	1,645600
17,466833	0,5	1,655400
17,475167	0,5	1,649400
17,483500	0,5	1,649850
17,491833	0,5	1,642800
17,500167	0,5	1,635850
17,508500	0,5	1,640800
17,516833	0,5	1,641000
17,525167	0,5	1,643400
17,533500	0,5	1,639000
17,541833	0,5	1,639600
17,550167	0,5	1,641100
17,558500	0,5	1,642900
17,566833	0,5	1,636950
17,575167	0,5	1,639350
17,583500	0,5	1,640600
17,591833	0,5	1,644350
17,600167	0,5	1,642800
17,608500	0,5	1,643150
17,616833	0,5	1,648250
17,625167	0,5	1,645350
17,633500	0,5	1,637700
17,641833	0,5	1,636200
17,650167	0,5	1,633500
17,658500	0,5	1,640950
17,666833	0,5	1,641350
17,675167	0,5	1,649650
17,683500	0,5	1,650150
17,691833	0,5	1,653550
17,700167	0,5	1,654300
17,708500	0,5	1,654950
17,716833	0,5	1,662000
17,725167	0,5	1,656650
17,733500	0,5	1,665350
17,741833	0,5	1,665850
17,750167	0,5	1,662450
17,758500	0,5	1,669450
17,766833	0,5	1,668050
17,775167	0,5	1,661300
17,783500	0,5	1,656500
17,791833	0,5	1,645300
17,800167	0,5	1,647600
17,808500	0,5	1,644250
17,816833	0,5	1,648350
17,825167	0,5	1,641500
17,833500	0,5	1,645900
17,841833	0,5	1,647000
17,850167	0,5	1,649450
17,858500	0,5	1,644050
17,866833	0,5	1,642850
17,875167	0,5	1,645250
17,883500	0,5	1,649250
17,891833	0,5	1,645450
17,900167	0,5	1,644300
17,908500	0,5	1,650600
17,916833	0,5	1,650850
17,925167	0,5	1,651250
17,933500	0,5	1,641350
17,941833	0,5	1,642550
17,950167	0,5	1,646550
17,958500	0,5	1,649800
17,966833	0,5	1,651100
17,975167	0,5	1,653150
17,983500	0,5	1,654700
17,991833	0,5	1,657050
18,000167	0,5	1,654200
18,008500	0,5	1,661000
18,016833	0,5	1,660150
18,025167	0,5	1,656050
18,033500	0,5	1,664200
18,041833	0,5	1,656250
18,050167	0,5	1,656300
18,058500	0,5	1,663950
18,066833	0,5	1,662050
18,075167	0,5	1,657300
18,083500	0,5	1,650000
18,091833	0,5	1,653750
18,100167	0,5	1,659750
18,108500	0,5	1,653700
18,116833	0,5	1,656800
18,125167	0,5	1,653750
18,133500	0,5	1,662250
18,141833	0,5	1,661650
18,150167	0,5	1,667100
18,158500	0,5	1,665350
18,166833	0,5	1,666500
18,175167	0,5	1,673650
18,183500	0,5	1,679000
18,191833	0,5	1,664800
18,200167	0,5	1,680600
18,208500	0,5	1,681600
18,216833	0,5	1,681500
18,225167	0,5	1,670100
18,233500	0,5	1,661900
18,241833	0,5	1,673200
18,250167	0,5	1,673200
18,258500	0,5	1,672650
18,266833	0,5	1,671000
18,275167	0,5	1,674950
18,283500	0,5	1,668250
18,291833	0,5	1,673450
18,300167	0,5	1,671750
18,308500	0,5	1,673700
18,316833	0,5	1,671150
18,325167	0,5	1,679850
18,333500	0,5	1,681450
18,341833	0,5	1,682150
18,350167	0,5	1,694000
18,358500	0,5	1,700350
18,366833	0,5	1,702750
18,375167	0,5	1,700300
18,383500	0,5	1,700700
18,391833	0,5	1,707900
18,400167	0,5	1,719450
18,408500	0,5	1,719400
18,416833	0,5	1,717800
18,425167	0,5	1,717900
18,433500	0,5	1,721000
18,441833	0,5	1,718850
18,450167	0,5	1,725300
18,458500	0,5	1,721100
18,466833	0,5	1,717100
18,475167	0,5	1,717850
18,483500	0,5	1,715550
18,491833	0,5	1,718650
18,500167	0,5	1,720850
18,508500	0,5	1,718100
18,516833	0,5	1,712950
18,525167	0,5	1,706750
18,533500	0,5	1,702100
18,541833	0,5	1,710300
18,550167	0,5	1,712300
18,558500	0,5	1,714750
18,566833	0,5	1,716900
18,575167	0,5	1,719350
18,583500	0,5	1,723900
18,591833	0,5	1,726300
18,600167	0,5	1,724050
18,608500	0,5	1,728850
18,616833	0,5	1,729000
18,625167	0,5	1,735350
18,633500	0,5	1,731550
18,641833	0,5	1,736950
18,650167	0,5	1,744150
18,658500	0,5	1,744400
18,666833	0,5	1,738550
18,675167	0,5	1,734350
18,683500	0,5	1,742350
18,691833	0,5	1,745700
18,700167	0,5	1,752950
18,708500	0,5	1,754100
18,716833	0,5	1,758650
18,725167	0,5	1,765850
18,733500	0,5	1,772450
18,741833	0,5	1,772000
18,750167	0,5	1,783650
18,758500	0,5	1,786600
18,766833	0,5	1,796000
18,775167	0,5	1,792000
18,783500	0,5	1,798500
18,791833	0,5	1,805800
18,800167	0,5	1,809900
18,808500	0,5	1,805950
18,816833	0,5	1,791650
18,825167	0,5	1,804300
18,833500	0,5	1,809800
18,841833	0,5	1,811950
18,850167	0,5	1,816050
18,858500	0,5	1,816300
18,866833	0,5	1,817000
18,875167	0,5	1,812400
18,883500	0,5	1,812100
18,891833	0,5	1,812800
18,900167	0,5	1,809250
18,908500	0,5	1,807650
18,916833	0,5	1,809200
18,925167	0,5	1,801650
18,933500	0,5	1,809450
18,941833	0,5	1,813150
18,950167	0,5	1,812550
18,958500	0,5	1,813350
18,966833	0,5	1,798500
18,975167	0,5	1,806350
18,983500	0,5	1,811950
18,991833	0,5	1,811450
19,000167	0,5	1,815600
19,008500	0,5	1,813600
19,016833	0,5	1,816900
19,025167	0,5	1,821350
19,033500	0,5	1,829350
19,041833	0,5	1,833800
19,050167	0,5	1,840650
19,058500	0,5	1,844750
19,066833	0,5	1,852300
19,075167	0,5	1,846250
19,083500	0,5	1,852050
19,091833	0,5	1,847050
19,100167	0,5	1,841400
19,108500	0,5	1,828750
19,116833	0,5	1,821650
19,125167	0,5	1,827700
19,133500	0,5	1,831550
19,141833	0,5	1,826400
19,150167	0,5	1,830600
19,158500	0,5	1,834700
19,166833	0,5	1,838950
19,175167	0,5	1,843150
19,183500	0,5	1,843300
19,191833	0,5	1,847450
19,200167	0,5	1,855200
19,208500	0,5	1,860800
19,216833	0,5	1,859150
19,225167	0,5	1,860350
19,233500	0,5	1,869800
19,241833	0,5	1,872150
19,250167	0,5	1,865900
19,258500	0,5	1,866200
19,266833	0,5	1,866650
19,275167	0,5	1,878100
19,283500	0,5	1,882100
19,291833	0,5	1,890800
19,300167	0,5	1,891500
19,308500	0,5	1,901750
19,316833	0,5	1,907600
19,325167	0,5	1,912300
19,333500	0,5	1,918000
19,341833	0,5	1,915600
19,350167	0,5	1,928750
19,358500	0,5	1,928450
19,366833	0,5	1,929000
19,375167	0,5	1,937100
19,383500	0,5	1,945200
19,391833	0,5	1,946550
19,400167	0,5	1,941600
19,408500	0,5	1,937800
19,416833	0,5	1,946800
19,425167	0,5	1,953100
19,433500	0,5	1,962800
19,441833	0,5	1,964950
19,450167	0,5	1,974650
19,458500	0,5	1,975900
19,466833	0,5	1,985150
19,475167	0,5	1,991500
19,483500	0,5	1,996200
19,491833	0,5	2,008350
19,500167	0,5	2,014550
19,508500	0,5	2,014000
19,516833	0,5	2,018550
19,525167	0,5	2,031350
19,533500	0,5	2,037750
19,541833	0,5	2,042650
19,550167	0,5	2,033300
19,558500	0,5	2,041250
19,566833	0,5	2,047600
19,575167	0,5	2,060700
19,583500	0,5	2,060200
19,591833	0,5	2,076850
19,600167	0,5	2,083050
19,608500	0,5	2,098250
19,616833	0,5	2,101850
19,625167	0,5	2,111450
19,633500	0,5	2,116900
19,641833	0,5	2,127500
19,650167	0,5	2,138600
19,658500	0,5	2,133300
19,666833	0,5	2,149100
19,675167	0,5	2,156800
19,683500	0,5	2,161750
19,691833	0,5	2,154950
19,700167	0,5	2,147400
19,708500	0,5	2,156250
19,716833	0,5	2,170600
19,725167	0,5	2,169500
19,733500	0,5	2,179750
19,741833	0,5	2,183750
19,750167	0,5	2,188750
19,758500	0,5	2,200050
19,766833	0,5	2,211350
19,775167	0,5	2,217900
19,783500	0,5	2,225400
19,791833	0,5	2,240600
19,800167	0,5	2,251500
19,808500	0,5	2,248500
19,816833	0,5	2,267350
19,825167	0,5	2,275200
19,833500	0,5	2,278350
19,841833	0,5	2,286550
19,850167	0,5	2,284900
19,858500	0,5	2,307100
19,866833	0,5	2,308200
19,875167	0,5	2,326000
19,883500	0,5	2,330650
19,891833	0,5	2,343900
19,900167	0,5	2,350400
19,908500	0,5	2,365950
19,916833	0,5	2,372650
19,925167	0,5	2,379600
19,933500	0,5	2,386550
19,941833	0,5	2,402650
19,950167	0,5	2,398650
19,958500	0,5	2,406550
19,966833	0,5	2,419350
19,975167	0,5	2,417700
19,983500	0,5	2,418250
19,991833	0,5	2,411050
20,000167	0,5	2,422850
20,008500	0,5	2,434500
20,016833	0,5	2,448600
20,025167	0,5	2,449800
20,033500	0,5	2,462700
20,041833	0,5	2,470550
20,050167	0,5	2,475900
20,058500	0,5	2,487300
20,066833	0,5	2,495900
20,075167	0,5	2,503450
20,083500	0,5	2,511550
20,091833	0,5	2,519200
20,100167	0,5	2,522700
20,108500	0,5	2,534600
20,116833	0,5	2,543700
20,125167	0,5	2,546750
20,133500	0,5	2,544550
20,141833	0,5	2,543050
20,150167	0,5	2,548400
20,158500	0,5	2,562050
20,166833	0,5	2,562950
20,175167	0,5	2,571150
20,183500	0,5	2,569750
20,191833	0,5	2,575750
20,200167	0,5	2,582300
20,208500	0,5	2,588000
20,216833	0,5	2,590000
20,225167	0,5	2,596100
20,233500	0,5	2,607550
20,241833	0,5	2,614700
20,250167	0,5	2,617400
20,258500	0,5	2,631550
20,266833	0,5	2,636900
20,275167	0,5	2,640500
20,283500	0,5	2,635250
20,291833	0,5	2,636250
20,300167	0,5	2,647900
20,308500	0,5	2,656450
20,316833	0,5	2,666750
20,325167	0,5	2,675200
20,333500	0,5	2,688300
20,341833	0,5	2,692500
20,350167	0,5	2,705800
20,358500	0,5	2,712000
20,366833	0,5	2,724550
20,375167	0,5	2,739550
20,383500	0,5	2,752600
20,391833	0,5	2,753400
20,400167	0,5	2,768800
20,408500	0,5	2,776150
20,416833	0,5	2,779900
20,425167	0,5	2,781800
20,433500	0,5	2,776750
20,441833	0,5	2,787550
20,450167	0,5	2,798050
20,458500	0,5	2,809500
20,466833	0,5	2,816800
20,475167	0,5	2,833000
20,483500	0,5	2,837350
20,491833	0,5	2,855250
20,500167	0,5	2,867300
20,508500	0,5	2,873500
20,516833	0,5	2,879350
20,525167	0,5	2,897900
20,533500	0,5	2,898800
20,541833	0,5	2,899550
20,550167	0,5	2,905750
20,558500	0,5	2,911300
20,566833	0,5	2,916350
20,575167	0,5	2,909450
20,583500	0,5	2,910000
20,591833	0,5	2,923800
20,600167	0,5	2,934950
20,608500	0,5	2,940550
20,616833	0,5	2,955050
20,625167	0,5	2,965450
20,633500	0,5	2,980950
20,641833	0,5	2,992250
20,650167	0,5	3,008000
20,658500	0,5	3,013700
20,666833	0,5	3,036350
20,675167	0,5	3,052100
20,683500	0,5	3,056600
20,691833	0,5	3,062800
20,700167	0,5	3,074500
20,708500	0,5	3,077550
20,716833	0,5	3,084150
20,725167	0,5	3,076400
20,733500	0,5	3,091800
20,741833	0,5	3,109900
20,750167	0,5	3,117550
20,758500	0,5	3,130100
20,766833	0,5	3,144900
20,775167	0,5	3,155100
20,783500	0,5	3,164150
20,791833	0,5	3,187850
20,800167	0,5	3,199450
20,808500	0,5	3,219450
20,816833	0,5	3,233650
20,825167	0,5	3,256800
20,833500	0,5	3,264600
20,841833	0,5	3,272450
20,850167	0,5	3,279000
20,858500	0,5	3,287600
20,866833	0,5	3,288550
20,875167	0,5	3,281000
20,883500	0,5	3,307800
20,891833	0,5	3,320000
20,900167	0,5	3,338050
20,908500	0,5	3,353150
20,916833	0,5	3,378300
20,925167	0,5	3,406200
20,933500	0,5	3,443700
20,941833	0,5	3,481700
20,950167	0,5	3,526250
20,958500	0,5	3,569250
20,966833	0,5	3,606700
20,975167	0,5	3,630450
20,983500	0,5	3,630800
20,991833	0,5	3,627350
21,000167	0,5	3,623000
21,008500	0,5	3,620000
21,016833	0,5	3,618400
21,025167	0,5	3,624900
21,033500	0,5	3,644500
21,041833	0,5	3,655900
21,050167	0,5	3,667850
21,058500	0,5	3,686850
21,066833	0,5	3,696950
21,075167	0,5	3,715600
21,083500	0,5	3,734850
21,091833	0,5	3,763150
21,100167	0,5	3,781150
21,108500	0,5	3,817300
21,116833	0,5	3,848250
21,125167	0,5	3,868250
21,133500	0,5	3,883700
21,141833	0,5	3,902650
21,150167	0,5	3,915700
21,158500	0,5	3,929750
21,166833	0,5	3,944700
21,175167	0,5	3,963200
21,183500	0,5	3,997850
21,191833	0,5	4,024050
21,200167	0,5	4,056400
21,208500	0,5	4,088900
21,216833	0,5	4,119500
21,225167	0,5	4,154400
21,233500	0,5	4,190550
21,241833	0,5	4,216250
21,250167	0,5	4,246100
21,258500	0,5	4,265150
21,266833	0,5	4,278550
21,275167	0,5	4,262600
21,283500	0,5	4,250050
21,291833	0,5	4,236800
21,300167	0,5	4,230250
21,308500	0,5	4,225350
21,316833	0,5	4,231350
21,325167	0,5	4,259550
21,333500	0,5	4,284150
21,341833	0,5	4,312800
21,350167	0,5	4,351000
21,358500	0,5	4,379550
21,366833	0,5	4,402950
21,375167	0,5	4,419000
21,383500	0,5	4,428450
21,391833	0,5	4,438600
21,400167	0,5	4,458750
21,408500	0,5	4,473000
21,416833	0,5	4,475300
21,425167	0,5	4,470500
21,433500	0,5	4,472200
21,441833	0,5	4,476900
21,450167	0,5	4,474750
21,458500	0,5	4,487100
21,466833	0,5	4,509950
21,475167	0,5	4,517800
21,483500	0,5	4,542750
21,491833	0,5	4,563800
21,500167	0,5	4,583050
21,508500	0,5	4,607850
21,516833	0,5	4,632000
21,525167	0,5	4,656850
21,533500	0,5	4,693250
21,541833	0,5	4,727350
21,550167	0,5	4,773600
21,558500	0,5	4,826300
21,566833	0,5	4,850700
21,575167	0,5	4,875800
21,583500	0,5	4,907900
21,591833	0,5	4,918650
21,600167	0,5	4,919650
21,608500	0,5	4,928750
21,616833	0,5	4,933900
21,625167	0,5	4,940850
21,633500	0,5	4,948750
21,641833	0,5	4,969050
21,650167	0,5	4,989600
21,658500	0,5	5,015800
21,666833	0,5	5,038950
21,675167	0,5	5,066750
21,683500	0,5	5,097700
21,691833	0,5	5,147050
21,700167	0,5	5,179050
21,708500	0,5	5,197500
21,716833	0,5	5,207150
21,725167	0,5	5,217400
21,733500	0,5	5,223000
21,741833	0,5	5,226900
21,750167	0,5	5,228950
21,758500	0,5	5,252150
21,766833	0,5	5,273250
21,775167	0,5	5,293300
21,783500	0,5	5,321450
21,791833	0,5	5,342600
21,800167	0,5	5,369400
21,808500	0,5	5,402900
21,816833	0,5	5,436450
21,825167	0,5	5,465350
21,833500	0,5	5,498700
21,841833	0,5	5,537750
21,850167	0,5	5,574150
21,858500	0,5	5,590100
21,866833	0,5	5,610900
21,875167	0,5	5,631050
21,883500	0,5	5,647550
21,891833	0,5	5,665350
21,900167	0,5	5,687150
21,908500	0,5	5,720350
21,916833	0,5	5,739200
21,925167	0,5	5,768850
21,933500	0,5	5,801900
21,941833	0,5	5,836300
21,950167	0,5	5,875850
21,958500	0,5	5,926600
21,966833	0,5	5,961000
21,975167	0,5	6,005400
21,983500	0,5	6,055850
21,991833	0,5	6,114000
22,000167	0,5	6,151350
22,008500	0,5	6,205000
22,016833	0,5	6,258850
22,025167	0,5	6,315800
22,033500	0,5	6,366400
22,041833	0,5	6,411650
22,050167	0,5	6,468850
22,058500	0,5	6,501800
22,066833	0,5	6,516000
22,075167	0,5	6,517950
22,083500	0,5	6,516650
22,091833	0,5	6,515500
22,100167	0,5	6,521150
22,108500	0,5	6,533500
22,116833	0,5	6,546650
22,125167	0,5	6,564700
22,133500	0,5	6,597450
22,141833	0,5	6,617050
22,150167	0,5	6,645600
22,158500	0,5	6,672550
22,166833	0,5	6,694300
22,175167	0,5	6,724100
22,183500	0,5	6,742700
22,191833	0,5	6,776700
22,200167	0,5	6,814450
22,208500	0,5	6,862000
22,216833	0,5	6,904800
22,225167	0,5	6,956200
22,233500	0,5	7,004800
22,241833	0,5	7,056500
22,250167	0,5	7,097750
22,258500	0,5	7,139750
22,266833	0,5	7,176450
22,275167	0,5	7,218550
22,283500	0,5	7,249500
22,291833	0,5	7,290700
22,300167	0,5	7,335050
22,308500	0,5	7,381500
22,316833	0,5	7,422500
22,325167	0,5	7,468050
22,333500	0,5	7,512800
22,341833	0,5	7,567700
22,350167	0,5	7,636450
22,358500	0,5	7,689750
22,366833	0,5	7,759700
22,375167	0,5	7,825000
22,383500	0,5	7,902000
22,391833	0,5	7,991250
22,400167	0,5	8,101950
22,408500	0,5	8,222850
22,416833	0,5	8,361800
22,425167	0,5	8,496500
22,433500	0,5	8,615600
22,441833	0,5	8,718000
22,450167	0,5	8,790400
22,458500	0,5	8,821750
22,466833	0,5	8,841300
22,475167	0,5	8,848850
22,483500	0,5	8,862000
22,491833	0,5	8,889250
22,500167	0,5	8,908800
22,508500	0,5	8,940700
22,516833	0,5	8,976350
22,525167	0,5	9,031450
22,533500	0,5	9,072200
22,541833	0,5	9,132000
22,550167	0,5	9,183800
22,558500	0,5	9,246400
22,566833	0,5	9,303450
22,575167	0,5	9,364900
22,583500	0,5	9,414100
22,591833	0,5	9,490750
22,600167	0,5	9,543950
22,608500	0,5	9,595900
22,616833	0,5	9,640250
22,625167	0,5	9,669850
22,633500	0,5	9,716400
22,641833	0,5	9,742850
22,650167	0,5	9,760050
22,658500	0,5	9,768250
22,666833	0,5	9,774600
22,675167	0,5	9,765350
22,683500	0,5	9,759000
22,691833	0,5	9,736900
22,700167	0,5	9,708700
22,708500	0,5	9,666500
22,716833	0,5	9,589850
22,725167	0,5	9,545100
22,733500	0,5	9,493600
22,741833	0,5	9,425950
22,750167	0,5	9,337250
22,758500	0,5	9,241100
22,766833	0,5	9,137050
22,775167	0,5	9,028150
22,783500	0,5	8,920850
22,791833	0,5	8,812250
22,800167	0,5	8,696300
22,808500	0,5	8,575450
22,816833	0,5	8,445750
22,825167	0,5	8,314100
22,833500	0,5	8,169600
22,841833	0,5	8,018600
22,850167	0,5	7,861450
22,858500	0,5	7,681550
22,866833	0,5	7,491150
22,875167	0,5	7,330100
22,883500	0,5	7,157100
22,891833	0,5	6,962700
22,900167	0,5	6,774400
22,908500	0,5	6,586100
22,916833	0,5	6,394550
22,925167	0,5	6,206300
22,933500	0,5	6,014250
22,941833	0,5	5,835100
22,950167	0,5	5,656350
22,958500	0,5	5,483250
22,966833	0,5	5,306250
22,975167	0,5	5,141100
22,983500	0,5	4,967600
22,991833	0,5	4,809150
23,000167	0,5	4,646850
23,008500	0,5	4,511400
23,016833	0,5	4,356200
23,025167	0,5	4,197450
23,033500	0,5	4,022600
23,041833	0,5	3,885600
23,050167	0,5	3,743150
23,058500	0,5	3,626300
23,066833	0,5	3,496400
23,075167	0,5	3,360900
23,083500	0,5	3,243750
23,091833	0,5	3,122450
23,100167	0,5	3,008950
23,108500	0,5	2,894850
23,116833	0,5	2,795500
23,125167	0,5	2,682600
23,133500	0,5	2,590600
23,141833	0,5	2,482250
23,150167	0,5	2,410200
23,158500	0,5	2,321200
23,166833	0,5	2,231500
23,175167	0,5	2,117800
23,183500	0,5	2,017050
23,191833	0,5	1,943800
23,200167	0,5	1,868000
23,208500	0,5	1,802500
23,216833	0,5	1,734750
23,225167	0,5	1,659850
23,233500	0,5	1,595800
23,241833	0,5	1,528500
23,250167	0,5	1,464850
23,258500	0,5	1,409650
23,266833	0,5	1,348300
23,275167	0,5	1,295850
23,283500	0,5	1,229150
23,291833	0,5	1,182500
23,300167	0,5	1,145600
23,308500	0,5	1,082650
23,316833	0,5	1,053800
23,325167	0,5	0,982600
23,333500	0,5	0,918600
23,341833	0,5	0,878500
23,350167	0,5	0,836350
23,358500	0,5	0,803650
23,366833	0,5	0,757350
23,375167	0,5	0,722350
23,383500	0,5	0,680650
23,391833	0,5	0,650950
23,400167	0,5	0,614500
23,408500	0,5	0,581800
23,416833	0,5	0,551550
23,425167	0,5	0,516600
23,433500	0,5	0,491100
23,441833	0,5	0,460900
23,450167	0,5	0,380500
23,458500	0,5	0,391350
23,466833	0,5	0,386350
23,475167	0,5	0,349250
23,483500	0,5	0,308550
23,491833	0,5	0,277150
23,500167	0,5	0,253850
23,508500	0,5	0,231850
23,516833	0,5	0,200950
23,525167	0,5	0,177650
23,533500	0,5	0,158500
23,541833	0,5	0,134400
23,550167	0,5	0,113700
23,558500	0,5	0,097300
23,566833	0,5	0,078650
23,575167	0,5	0,058750
23,583500	0,5	0,040350
23,591833	0,5	-0,011700
23,600167	0,5	-0,043950
23,608500	0,5	-0,040800
23,616833	0,5	-0,015000
23,625167	0,5	-0,032950
23,633500	0,5	-0,051700
23,641833	0,5	-0,069200
23,650167	0,5	-0,087400
23,658500	0,5	-0,100150
23,666833	0,5	-0,114850
23,675167	0,5	-0,125750
23,683500	0,5	-0,140250
23,691833	0,5	-0,148250
23,700167	0,5	-0,158250
23,708500	0,5	-0,168000
23,716833	0,5	-0,179200
23,725167	0,5	-0,189850
23,733500	0,5	-0,202550
23,741833	0,5	-0,314500
23,750167	0,5	-0,277950
23,758500	0,5	-0,259550
23,766833	0,5	-0,225950
23,775167	0,5	-0,225250
23,783500	0,5	-0,232100
23,791833	0,5	-0,243200
23,800167	0,5	-0,257100
23,808500	0,5	-0,255050
23,816833	0,5	-0,261400
23,825167	0,5	-0,260400
23,833500	0,5	-0,263050
23,841833	0,5	-0,260800
23,850167	0,5	-0,266100
23,858500	0,5	-0,268000
23,866833	0,5	-0,268000
23,875167	0,5	-0,269500
23,883500	0,5	-0,287400
23,891833	0,5	-0,385700
23,900167	0,5	-0,334450
23,908500	0,5	-0,302500
23,916833	0,5	-0,280250
23,925167	0,5	-0,277900
23,933500	0,5	-0,276800
23,941833	0,5	-0,287400
23,950167	0,5	-0,291900
23,958500	0,5	-0,290350
23,966833	0,5	-0,279450
23,975167	0,5	-0,275800
23,983500	0,5	-0,268050
23,991833	0,5	-0,267050
24,000167	0,5	-0,262000
24,008500	0,5	-0,254200
24,016833	0,5	-0,250850
24,025167	0,5	-0,251700
24,033500	0,5	-0,317350
24,041833	0,5	-0,329800
24,050167	0,5	-0,290350
24,058500	0,5	-0,258500
24,066833	0,5	-0,233850
24,075167	0,5	-0,229500
24,083500	0,5	-0,226350
24,091833	0,5	-0,233650
24,100167	0,5	-0,234200
24,108500	0,5	-0,222300
24,116833	0,5	-0,224800
24,125167	0,5	-0,211950
24,133500	0,5	-0,209050
24,141833	0,5	-0,200100
24,150167	0,5	-0,199100
24,158500	0,5	-0,187950
24,166833	0,5	-0,185050
24,175167	0,5	-0,179600
24,183500	0,5	-0,259700
24,191833	0,5	-0,227100
24,200167	0,5	-0,206400
24,208500	0,5	-0,165350
24,216833	0,5	-0,152350
24,225167	0,5	-0,144650
24,233500	0,5	-0,143450
24,241833	0,5	-0,151400
24,250167	0,5	-0,136600
24,258500	0,5	-0,129650
24,266833	0,5	-0,121650
24,275167	0,5	-0,116550
24,283500	0,5	-0,109450
24,291833	0,5	-0,103600
24,300167	0,5	-0,091200
24,308500	0,5	-0,089850
24,316833	0,5	-0,083900
24,325167	0,5	-0,100300
24,333500	0,5	-0,138300
24,341833	0,5	-0,122700
24,350167	0,5	-0,092000
24,358500	0,5	-0,070100
24,366833	0,5	-0,053500
24,375167	0,5	-0,052400
24,383500	0,5	-0,050650
24,391833	0,5	-0,053700
24,400167	0,5	-0,038600
24,408500	0,5	-0,035350
24,416833	0,5	-0,028200
24,425167	0,5	-0,021150
24,433500	0,5	-0,014850
24,441833	0,5	-0,008350
24,450167	0,5	-0,002450
24,458500	0,5	0,004550
24,466833	0,5	0,005800
24,475167	0,5	-0,036200
24,483500	0,5	-0,029050
24,491833	0,5	-0,011050
24,500167	0,5	0,014200
24,508500	0,5	0,024950
24,516833	0,5	0,028750
24,525167	0,5	0,028900
24,533500	0,5	0,023900
24,541833	0,5	0,032950
24,550167	0,5	0,037850
24,558500	0,5	0,044550
24,566833	0,5	0,044250
24,575167	0,5	0,054300
24,583500	0,5	0,057800
24,591833	0,5	0,066800
24,600167	0,5	0,070400
24,608500	0,5	0,072500
24,616833	0,5	0,077300
24,625167	0,5	0,032500
24,633500	0,5	0,062100
24,641833	0,5	0,065250
24,650167	0,5	0,086800
24,658500	0,5	0,091150
24,666833	0,5	0,098250
24,675167	0,5	0,095300
24,683500	0,5	0,091050
24,691833	0,5	0,095300
24,700167	0,5	0,103250
24,708500	0,5	0,098500
24,716833	0,5	0,108300
24,725167	0,5	0,106450
24,733500	0,5	0,111600
24,741833	0,5	0,113600
24,750167	0,5	0,118600
24,758500	0,5	0,121000
24,766833	0,5	0,113950
24,775167	0,5	0,104450
24,783500	0,5	0,115750
24,791833	0,5	0,125850
24,800167	0,5	0,137150
24,808500	0,5	0,137400
24,816833	0,5	0,143300
24,825167	0,5	0,142450
24,833500	0,5	0,137400
24,841833	0,5	0,144400
24,850167	0,5	0,143800
24,858500	0,5	0,147500
24,866833	0,5	0,149600
24,875167	0,5	0,154650
24,883500	0,5	0,154400
24,891833	0,5	0,159200
24,900167	0,5	0,159000
24,908500	0,5	0,158300
24,916833	0,5	0,148850
24,925167	0,5	0,152350
24,933500	0,5	0,158900
24,941833	0,5	0,169500
24,950167	0,5	0,174200
24,958500	0,5	0,176050
24,966833	0,5	0,179350
24,975167	0,5	0,176250
24,983500	0,5	0,177150
24,991833	0,5	0,174350
25,000167	0,5	0,178400
25,008500	0,5	0,179950
25,016833	0,5	0,184900
25,025167	0,5	0,186300
25,033500	0,5	0,189400
25,041833	0,5	0,191000
25,050167	0,5	0,191150
25,058500	0,5	0,192750
25,066833	0,5	0,183500
25,075167	0,5	0,190350
25,083500	0,5	0,195750
25,091833	0,5	0,198800
25,100167	0,5	0,200350
25,108500	0,5	0,199050
25,116833	0,5	0,202300
25,125167	0,5	0,200100
25,133500	0,5	0,200700
25,141833	0,5	0,203100
25,150167	0,5	0,202800
25,158500	0,5	0,203950
25,166833	0,5	0,209900
25,175167	0,5	0,210350
25,183500	0,5	0,210500
25,191833	0,5	0,213400
25,200167	0,5	0,212650
25,208500	0,5	0,214350
25,216833	0,5	0,212300
25,225167	0,5	0,213300
25,233500	0,5	0,217700
25,241833	0,5	0,216700
25,250167	0,5	0,220100
25,258500	0,5	0,223650
25,266833	0,5	0,221050
25,275167	0,5	0,217500
25,283500	0,5	0,219100
25,291833	0,5	0,218950
25,300167	0,5	0,221500
25,308500	0,5	0,225200
25,316833	0,5	0,223600
25,325167	0,5	0,224250
25,333500	0,5	0,226000
25,341833	0,5	0,230600
25,350167	0,5	0,228750
25,358500	0,5	0,231150
25,366833	0,5	0,231600
25,375167	0,5	0,233750
25,383500	0,5	0,233450
25,391833	0,5	0,235550
25,400167	0,5	0,232450
25,408500	0,5	0,232000
25,416833	0,5	0,233950
25,425167	0,5	0,234650
25,433500	0,5	0,234850
25,441833	0,5	0,233050
25,450167	0,5	0,237050
25,458500	0,5	0,236300
25,466833	0,5	0,238150
25,475167	0,5	0,235250
25,483500	0,5	0,239450
25,491833	0,5	0,236100
25,500167	0,5	0,237600
25,508500	0,5	0,241350
25,516833	0,5	0,243400
25,525167	0,5	0,247400
25,533500	0,5	0,242000
25,541833	0,5	0,242000
25,550167	0,5	0,243150
25,558500	0,5	0,241400
25,566833	0,5	0,245300
25,575167	0,5	0,244500
25,583500	0,5	0,246950
25,591833	0,5	0,247550
25,600167	0,5	0,246800
25,608500	0,5	0,244450
25,616833	0,5	0,247400
25,625167	0,5	0,244450
25,633500	0,5	0,246950
25,641833	0,5	0,248950
25,650167	0,5	0,250250
25,658500	0,5	0,253450
25,666833	0,5	0,250400
25,675167	0,5	0,256500
25,683500	0,5	0,252350
25,691833	0,5	0,252450
25,700167	0,5	0,253700
25,708500	0,5	0,254950
25,716833	0,5	0,258350
25,725167	0,5	0,257150
25,733500	0,5	0,255700
25,741833	0,5	0,259350
25,750167	0,5	0,257700
25,758500	0,5	0,258750
25,766833	0,5	0,256650
25,775167	0,5	0,259750
25,783500	0,5	0,260850
25,791833	0,5	0,259550
25,800167	0,5	0,265200
25,808500	0,5	0,265200
25,816833	0,5	0,266850
25,825167	0,5	0,266350
25,833500	0,5	0,263150
25,841833	0,5	0,262650
25,850167	0,5	0,264250
25,858500	0,5	0,268800
25,866833	0,5	0,274950
25,875167	0,5	0,274600
25,883500	0,5	0,278050
25,891833	0,5	0,274000
25,900167	0,5	0,276150
25,908500	0,5	0,276750
25,916833	0,5	0,281000
25,925167	0,5	0,276450
25,933500	0,5	0,275850
25,941833	0,5	0,277600
25,950167	0,5	0,280400
25,958500	0,5	0,280250
25,966833	0,5	0,286250
25,975167	0,5	0,282150
25,983500	0,5	0,279500
25,991833	0,5	0,282350
26,000167	0,5	0,286300
