File Path	chrom://chromeleon01/ikbm_chromeleon/2022/ICS-5000/ED1/Esteban/20220612_Cell_7_4_eg.seq/722.smp/ED_1.channel/ED_1.chm
Channel	ED_1

Injection Information:
Data Vault	ikbm_chromeleon
Injection	Std_C1ox-0.0025_2
Injection Number	73
Position	RA4
Comment	
Processing Method	Stop sequence after Cell Death
Instrument Method	ICS5000_PA200_FullNative_Ox_26min_ED1
Type	Unknown
Status	Finished
Injection Date	14.06.2022
Injection Time	02:22:07
Injection Volume (µl)	5,0
Dilution Factor	1,0000
Weight	1,0000

Chromatogram Data Information:
Time Min. (min)	0,000167
Time Max. (min)	26,000167
Data Points	3121
Detector	EDet1
Generating Data System	Chromeleon 7.2.9.11323
Exporting Data System	Chromeleon 7.2.9.0
Operator	Instrument Controller
Signal Quantity	
Signal Unit	nC
Signal Min.	-2,451050
Signal Max.	13,849700
Channel	ED_1
Driver Name	DC-5000
Channel Type	Evaluation
Min. Step (s)	0,5
Max. Step (s)	0,5
Average Step (s)	0,5

Signal Parameter Information:
Signal Info	

Chromatogram Data:
Time (min)	Step (s)	Value (nC)
0,000167	n.a.	-0,072950
0,008500	0,5	-0,065200
0,016833	0,5	-0,055550
0,025167	0,5	-0,047150
0,033500	0,5	-0,048350
0,041833	0,5	-0,037900
0,050167	0,5	-0,033050
0,058500	0,5	-0,009600
0,066833	0,5	-0,031000
0,075167	0,5	-0,007400
0,083500	0,5	-0,046850
0,091833	0,5	-0,047200
0,100167	0,5	-0,047650
0,108500	0,5	-0,030050
0,116833	0,5	-0,007100
0,125167	0,5	-0,014900
0,133500	0,5	-0,027850
0,141833	0,5	-0,020100
0,150167	0,5	-0,031650
0,158500	0,5	-0,029750
0,166833	0,5	-0,037750
0,175167	0,5	-0,043550
0,183500	0,5	-0,039700
0,191833	0,5	-0,039000
0,200167	0,5	-0,027800
0,208500	0,5	-0,040700
0,216833	0,5	-0,038450
0,225167	0,5	-0,036750
0,233500	0,5	-0,063500
0,241833	0,5	-0,064550
0,250167	0,5	-0,058550
0,258500	0,5	-0,048400
0,266833	0,5	-0,023300
0,275167	0,5	-0,035000
0,283500	0,5	-0,032550
0,291833	0,5	-0,040650
0,300167	0,5	-0,032150
0,308500	0,5	-0,044600
0,316833	0,5	-0,051600
0,325167	0,5	-0,062900
0,333500	0,5	-0,066550
0,341833	0,5	-0,063650
0,350167	0,5	-0,075950
0,358500	0,5	-0,075300
0,366833	0,5	-0,053900
0,375167	0,5	-0,071650
0,383500	0,5	-0,089200
0,391833	0,5	-0,082900
0,400167	0,5	-0,080400
0,408500	0,5	-0,058750
0,416833	0,5	-0,051150
0,425167	0,5	-0,047700
0,433500	0,5	-0,064700
0,441833	0,5	-0,053150
0,450167	0,5	-0,058850
0,458500	0,5	-0,060850
0,466833	0,5	-0,071950
0,475167	0,5	-0,075800
0,483500	0,5	-0,076850
0,491833	0,5	-0,075750
0,500167	0,5	-0,081400
0,508500	0,5	-0,078000
0,516833	0,5	-0,075950
0,525167	0,5	-0,087050
0,533500	0,5	-0,096950
0,541833	0,5	-0,091600
0,550167	0,5	-0,078400
0,558500	0,5	-0,060300
0,566833	0,5	-0,053650
0,575167	0,5	-0,067900
0,583500	0,5	-0,068150
0,591833	0,5	-0,073000
0,600167	0,5	-0,073000
0,608500	0,5	-0,079500
0,616833	0,5	-0,077050
0,625167	0,5	-0,079800
0,633500	0,5	-0,077200
0,641833	0,5	-0,074600
0,650167	0,5	-0,074850
0,658500	0,5	-0,070150
0,666833	0,5	-0,062650
0,675167	0,5	-0,088750
0,683500	0,5	-0,088150
0,691833	0,5	-0,088150
0,700167	0,5	-0,067850
0,708500	0,5	-0,050650
0,716833	0,5	-0,061050
0,725167	0,5	-0,059150
0,733500	0,5	-0,059150
0,741833	0,5	-0,058700
0,750167	0,5	-0,061650
0,758500	0,5	-0,065300
0,766833	0,5	-0,070250
0,775167	0,5	-0,065000
0,783500	0,5	-0,074250
0,791833	0,5	-0,061100
0,800167	0,5	-0,078150
0,808500	0,5	-0,045650
0,816833	0,5	-0,063000
0,825167	0,5	-0,068650
0,833500	0,5	-0,077350
0,841833	0,5	-0,069250
0,850167	0,5	-0,046650
0,858500	0,5	-0,041250
0,866833	0,5	-0,047550
0,875167	0,5	-0,044600
0,883500	0,5	-0,042450
0,891833	0,5	-0,042000
0,900167	0,5	-0,048200
0,908500	0,5	-0,049150
0,916833	0,5	-0,047900
0,925167	0,5	-0,050000
0,933500	0,5	-0,042750
0,941833	0,5	-0,053950
0,950167	0,5	-0,059100
0,958500	0,5	-0,037400
0,966833	0,5	-0,050700
0,975167	0,5	-0,055750
0,983500	0,5	-0,053650
0,991833	0,5	-0,051100
1,000167	0,5	-0,021500
1,008500	0,5	-0,032050
1,016833	0,5	-0,032750
1,025167	0,5	-0,035000
1,033500	0,5	-0,027850
1,041833	0,5	-0,036000
1,050167	0,5	-0,026450
1,058500	0,5	-0,031000
1,066833	0,5	-0,035750
1,075167	0,5	-0,037000
1,083500	0,5	-0,037750
1,091833	0,5	-0,033150
1,100167	0,5	-0,040900
1,108500	0,5	-0,017700
1,116833	0,5	-0,043750
1,125167	0,5	-0,043550
1,133500	0,5	-0,044550
1,141833	0,5	-0,030050
1,150167	0,5	-0,007700
1,158500	0,5	-0,011850
1,166833	0,5	-0,019150
1,175167	0,5	-0,010050
1,183500	0,5	-0,015500
1,191833	0,5	-0,010050
1,200167	0,5	-0,018700
1,208500	0,5	-0,018650
1,216833	0,5	-0,020050
1,225167	0,5	-0,012150
1,233500	0,5	-0,017750
1,241833	0,5	-0,024100
1,250167	0,5	-0,022600
1,258500	0,5	-0,009400
1,266833	0,5	-0,032350
1,275167	0,5	-0,029350
1,283500	0,5	-0,027000
1,291833	0,5	-0,014150
1,300167	0,5	0,008500
1,308500	0,5	0,001100
1,316833	0,5	0,001500
1,325167	0,5	-0,006450
1,333500	0,5	-0,000350
1,341833	0,5	-0,005800
1,350167	0,5	-0,001350
1,358500	0,5	-0,013850
1,366833	0,5	-0,012750
1,375167	0,5	-0,015800
1,383500	0,5	-0,027750
1,391833	0,5	-0,033850
1,400167	0,5	-0,015200
1,408500	0,5	-0,028300
1,416833	0,5	-0,041500
1,425167	0,5	-0,043100
1,433500	0,5	-0,037850
1,441833	0,5	-0,023450
1,450167	0,5	-0,013050
1,458500	0,5	-0,010150
1,466833	0,5	-0,022050
1,475167	0,5	-0,019650
1,483500	0,5	-0,025450
1,491833	0,5	-0,028800
1,500167	0,5	-0,044100
1,508500	0,5	-0,047300
1,516833	0,5	-0,056400
1,525167	0,5	-0,056100
1,533500	0,5	-0,072550
1,541833	0,5	-0,078600
1,550167	0,5	-0,110000
1,558500	0,5	-0,275050
1,566833	0,5	-0,694400
1,575167	0,5	-1,359650
1,583500	0,5	-1,887900
1,591833	0,5	-1,799300
1,600167	0,5	-1,051450
1,608500	0,5	0,064900
1,616833	0,5	1,322150
1,625167	0,5	2,425250
1,633500	0,5	3,103600
1,641833	0,5	3,259550
1,650167	0,5	3,061200
1,658500	0,5	2,756650
1,666833	0,5	2,517450
1,675167	0,5	2,373250
1,683500	0,5	2,298850
1,691833	0,5	2,261350
1,700167	0,5	2,226050
1,708500	0,5	2,165450
1,716833	0,5	2,127800
1,725167	0,5	2,116800
1,733500	0,5	2,147950
1,741833	0,5	2,178900
1,750167	0,5	2,172850
1,758500	0,5	2,173050
1,766833	0,5	2,292150
1,775167	0,5	2,556000
1,783500	0,5	2,911050
1,791833	0,5	3,212100
1,800167	0,5	3,385100
1,808500	0,5	3,421550
1,816833	0,5	3,350700
1,825167	0,5	3,220150
1,833500	0,5	3,012700
1,841833	0,5	2,815550
1,850167	0,5	2,587400
1,858500	0,5	2,379000
1,866833	0,5	2,189200
1,875167	0,5	2,031200
1,883500	0,5	1,897750
1,891833	0,5	1,767900
1,900167	0,5	1,634900
1,908500	0,5	1,549050
1,916833	0,5	1,461450
1,925167	0,5	1,390700
1,933500	0,5	1,317950
1,941833	0,5	1,260300
1,950167	0,5	1,205150
1,958500	0,5	1,160450
1,966833	0,5	1,134400
1,975167	0,5	1,134650
1,983500	0,5	1,206600
1,991833	0,5	1,403450
2,000167	0,5	1,660700
2,008500	0,5	2,174550
2,016833	0,5	3,259000
2,025167	0,5	5,016850
2,033500	0,5	6,755500
2,041833	0,5	7,378300
2,050167	0,5	6,765650
2,058500	0,5	5,572450
2,066833	0,5	4,444200
2,075167	0,5	3,606000
2,083500	0,5	3,073050
2,091833	0,5	2,726200
2,100167	0,5	2,490250
2,108500	0,5	2,294000
2,116833	0,5	2,137900
2,125167	0,5	2,015650
2,133500	0,5	1,941800
2,141833	0,5	1,921100
2,150167	0,5	1,898600
2,158500	0,5	1,916400
2,166833	0,5	1,958450
2,175167	0,5	2,028000
2,183500	0,5	2,112000
2,191833	0,5	2,169200
2,200167	0,5	2,201450
2,208500	0,5	2,242500
2,216833	0,5	2,282050
2,225167	0,5	2,334750
2,233500	0,5	2,390650
2,241833	0,5	2,456600
2,250167	0,5	2,527800
2,258500	0,5	2,617400
2,266833	0,5	2,699350
2,275167	0,5	2,785450
2,283500	0,5	2,868000
2,291833	0,5	2,964850
2,300167	0,5	3,033150
2,308500	0,5	3,125600
2,316833	0,5	3,215650
2,325167	0,5	3,317400
2,333500	0,5	3,422750
2,341833	0,5	3,505350
2,350167	0,5	3,586150
2,358500	0,5	3,665400
2,366833	0,5	3,741100
2,375167	0,5	3,819850
2,383500	0,5	3,897500
2,391833	0,5	3,965350
2,400167	0,5	4,040850
2,408500	0,5	4,101350
2,416833	0,5	4,164400
2,425167	0,5	4,219300
2,433500	0,5	4,297100
2,441833	0,5	4,341300
2,450167	0,5	4,382100
2,458500	0,5	4,429600
2,466833	0,5	4,480050
2,475167	0,5	4,526300
2,483500	0,5	4,579000
2,491833	0,5	4,603700
2,500167	0,5	4,635050
2,508500	0,5	4,657150
2,516833	0,5	4,679650
2,525167	0,5	4,691750
2,533500	0,5	4,697600
2,541833	0,5	4,705700
2,550167	0,5	4,706150
2,558500	0,5	4,711350
2,566833	0,5	4,689850
2,575167	0,5	4,687200
2,583500	0,5	4,686900
2,591833	0,5	4,662950
2,600167	0,5	4,641100
2,608500	0,5	4,631200
2,616833	0,5	4,615500
2,625167	0,5	4,618200
2,633500	0,5	4,593500
2,641833	0,5	4,579300
2,650167	0,5	4,563100
2,658500	0,5	4,567500
2,666833	0,5	4,577650
2,675167	0,5	4,598200
2,683500	0,5	4,601400
2,691833	0,5	4,579950
2,700167	0,5	4,540900
2,708500	0,5	4,493100
2,716833	0,5	4,476150
2,725167	0,5	4,540500
2,733500	0,5	4,713650
2,741833	0,5	4,974350
2,750167	0,5	5,270900
2,758500	0,5	5,482900
2,766833	0,5	5,503050
2,775167	0,5	5,299300
2,783500	0,5	4,940450
2,791833	0,5	4,527500
2,800167	0,5	4,172950
2,808500	0,5	3,880200
2,816833	0,5	3,661050
2,825167	0,5	3,489150
2,833500	0,5	3,351050
2,841833	0,5	3,233250
2,850167	0,5	3,127950
2,858500	0,5	3,042950
2,866833	0,5	2,955700
2,875167	0,5	2,885000
2,883500	0,5	2,794900
2,891833	0,5	2,706950
2,900167	0,5	2,623200
2,908500	0,5	2,553450
2,916833	0,5	2,495450
2,925167	0,5	2,426100
2,933500	0,5	2,342700
2,941833	0,5	2,276450
2,950167	0,5	2,204250
2,958500	0,5	2,141700
2,966833	0,5	2,062550
2,975167	0,5	1,993450
2,983500	0,5	1,915250
2,991833	0,5	1,853250
3,000167	0,5	1,786950
3,008500	0,5	1,720750
3,016833	0,5	1,643950
3,025167	0,5	1,603950
3,033500	0,5	1,526900
3,041833	0,5	1,472050
3,050167	0,5	1,412650
3,058500	0,5	1,367250
3,066833	0,5	1,333050
3,075167	0,5	1,274000
3,083500	0,5	1,218800
3,091833	0,5	1,151850
3,100167	0,5	1,098600
3,108500	0,5	1,035800
3,116833	0,5	0,982500
3,125167	0,5	0,924000
3,133500	0,5	0,876200
3,141833	0,5	0,828700
3,150167	0,5	0,780600
3,158500	0,5	0,722100
3,166833	0,5	0,680850
3,175167	0,5	0,645450
3,183500	0,5	0,591700
3,191833	0,5	0,547900
3,200167	0,5	0,511500
3,208500	0,5	0,477150
3,216833	0,5	0,462050
3,225167	0,5	0,428600
3,233500	0,5	0,392800
3,241833	0,5	0,355100
3,250167	0,5	0,327100
3,258500	0,5	0,293700
3,266833	0,5	0,262000
3,275167	0,5	0,230500
3,283500	0,5	0,200850
3,291833	0,5	0,173600
3,300167	0,5	0,143100
3,308500	0,5	0,118150
3,316833	0,5	0,090400
3,325167	0,5	0,069750
3,333500	0,5	0,023500
3,341833	0,5	0,001550
3,350167	0,5	-0,021500
3,358500	0,5	-0,029650
3,366833	0,5	-0,038500
3,375167	0,5	-0,057900
3,383500	0,5	-0,084850
3,391833	0,5	-0,098550
3,400167	0,5	-0,115900
3,408500	0,5	-0,124150
3,416833	0,5	-0,142900
3,425167	0,5	-0,158050
3,433500	0,5	-0,172700
3,441833	0,5	-0,188650
3,450167	0,5	-0,203300
3,458500	0,5	-0,227750
3,466833	0,5	-0,234000
3,475167	0,5	-0,258600
3,483500	0,5	-0,284800
3,491833	0,5	-0,299750
3,500167	0,5	-0,311500
3,508500	0,5	-0,315500
3,516833	0,5	-0,313500
3,525167	0,5	-0,332150
3,533500	0,5	-0,335000
3,541833	0,5	-0,350050
3,550167	0,5	-0,349700
3,558500	0,5	-0,362100
3,566833	0,5	-0,361050
3,575167	0,5	-0,359200
3,583500	0,5	-0,353600
3,591833	0,5	-0,342650
3,600167	0,5	-0,348550
3,608500	0,5	-0,344500
3,616833	0,5	-0,334050
3,625167	0,5	-0,354100
3,633500	0,5	-0,373000
3,641833	0,5	-0,380500
3,650167	0,5	-0,391050
3,658500	0,5	-0,390700
3,666833	0,5	-0,399300
3,675167	0,5	-0,409150
3,683500	0,5	-0,433650
3,691833	0,5	-0,444400
3,700167	0,5	-0,459250
3,708500	0,5	-0,463100
3,716833	0,5	-0,474700
3,725167	0,5	-0,476750
3,733500	0,5	-0,479450
3,741833	0,5	-0,482050
3,750167	0,5	-0,486900
3,758500	0,5	-0,475150
3,766833	0,5	-0,478050
3,775167	0,5	-0,492200
3,783500	0,5	-0,502550
3,791833	0,5	-0,498700
3,800167	0,5	-0,488850
3,808500	0,5	-0,480750
3,816833	0,5	-0,487450
3,825167	0,5	-0,495700
3,833500	0,5	-0,497450
3,841833	0,5	-0,502450
3,850167	0,5	-0,504100
3,858500	0,5	-0,518550
3,866833	0,5	-0,522850
3,875167	0,5	-0,530750
3,883500	0,5	-0,533200
3,891833	0,5	-0,530600
3,900167	0,5	-0,536850
3,908500	0,5	-0,528400
3,916833	0,5	-0,533400
3,925167	0,5	-0,545200
3,933500	0,5	-0,548550
3,941833	0,5	-0,549250
3,950167	0,5	-0,533650
3,958500	0,5	-0,530500
3,966833	0,5	-0,540100
3,975167	0,5	-0,539250
3,983500	0,5	-0,537500
3,991833	0,5	-0,534350
4,000167	0,5	-0,534350
4,008500	0,5	-0,532050
4,016833	0,5	-0,530700
4,025167	0,5	-0,516750
4,033500	0,5	-0,507300
4,041833	0,5	-0,486100
4,050167	0,5	-0,494400
4,058500	0,5	-0,458800
4,066833	0,5	-0,462800
4,075167	0,5	-0,450100
4,083500	0,5	-0,439650
4,091833	0,5	-0,415700
4,100167	0,5	-0,382950
4,108500	0,5	-0,360650
4,116833	0,5	-0,325900
4,125167	0,5	-0,276950
4,133500	0,5	-0,219950
4,141833	0,5	-0,149300
4,150167	0,5	-0,070550
4,158500	0,5	0,005550
4,166833	0,5	0,074300
4,175167	0,5	0,124300
4,183500	0,5	0,155250
4,191833	0,5	0,145100
4,200167	0,5	0,114050
4,208500	0,5	0,073150
4,216833	0,5	-0,009700
4,225167	0,5	-0,080650
4,233500	0,5	-0,144300
4,241833	0,5	-0,190050
4,250167	0,5	-0,210500
4,258500	0,5	-0,243650
4,266833	0,5	-0,253700
4,275167	0,5	-0,265200
4,283500	0,5	-0,261500
4,291833	0,5	-0,263950
4,300167	0,5	-0,248950
4,308500	0,5	-0,236250
4,316833	0,5	-0,198700
4,325167	0,5	-0,149500
4,333500	0,5	-0,080450
4,341833	0,5	0,014050
4,350167	0,5	0,117150
4,358500	0,5	0,229550
4,366833	0,5	0,315300
4,375167	0,5	0,398350
4,383500	0,5	0,447400
4,391833	0,5	0,473450
4,400167	0,5	0,452400
4,408500	0,5	0,383500
4,416833	0,5	0,282000
4,425167	0,5	0,176100
4,433500	0,5	0,060600
4,441833	0,5	-0,037200
4,450167	0,5	-0,124900
4,458500	0,5	-0,198100
4,466833	0,5	-0,250900
4,475167	0,5	-0,291800
4,483500	0,5	-0,313900
4,491833	0,5	-0,335850
4,500167	0,5	-0,344450
4,508500	0,5	-0,363500
4,516833	0,5	-0,381500
4,525167	0,5	-0,386200
4,533500	0,5	-0,388750
4,541833	0,5	-0,382000
4,550167	0,5	-0,381450
4,558500	0,5	-0,385650
4,566833	0,5	-0,380950
4,575167	0,5	-0,381350
4,583500	0,5	-0,383900
4,591833	0,5	-0,389350
4,600167	0,5	-0,386550
4,608500	0,5	-0,391150
4,616833	0,5	-0,389150
4,625167	0,5	-0,388750
4,633500	0,5	-0,386000
4,641833	0,5	-0,384300
4,650167	0,5	-0,365700
4,658500	0,5	-0,377100
4,666833	0,5	-0,377950
4,675167	0,5	-0,374400
4,683500	0,5	-0,365650
4,691833	0,5	-0,344150
4,700167	0,5	-0,335650
4,708500	0,5	-0,325450
4,716833	0,5	-0,319950
4,725167	0,5	-0,303650
4,733500	0,5	-0,296700
4,741833	0,5	-0,277550
4,750167	0,5	-0,262300
4,758500	0,5	-0,235950
4,766833	0,5	-0,211400
4,775167	0,5	-0,180900
4,783500	0,5	-0,158100
4,791833	0,5	-0,110300
4,800167	0,5	-0,059850
4,808500	0,5	-0,017650
4,816833	0,5	0,043000
4,825167	0,5	0,131450
4,833500	0,5	0,257050
4,841833	0,5	0,429350
4,850167	0,5	0,649750
4,858500	0,5	0,948050
4,866833	0,5	1,335150
4,875167	0,5	1,816050
4,883500	0,5	2,367550
4,891833	0,5	2,952150
4,900167	0,5	3,505900
4,908500	0,5	3,964750
4,916833	0,5	4,271050
4,925167	0,5	4,385200
4,933500	0,5	4,293350
4,941833	0,5	4,033100
4,950167	0,5	3,621050
4,958500	0,5	3,123050
4,966833	0,5	2,608900
4,975167	0,5	2,118200
4,983500	0,5	1,691550
4,991833	0,5	1,317350
5,000167	0,5	0,999100
5,008500	0,5	0,748400
5,016833	0,5	0,557800
5,025167	0,5	0,402950
5,033500	0,5	0,290150
5,041833	0,5	0,197800
5,050167	0,5	0,124500
5,058500	0,5	0,072300
5,066833	0,5	0,030700
5,075167	0,5	0,002800
5,083500	0,5	-0,026650
5,091833	0,5	-0,031950
5,100167	0,5	-0,048800
5,108500	0,5	-0,053950
5,116833	0,5	-0,055150
5,125167	0,5	-0,038950
5,133500	0,5	-0,023100
5,141833	0,5	-0,016800
5,150167	0,5	-0,021750
5,158500	0,5	-0,023050
5,166833	0,5	-0,039100
5,175167	0,5	-0,052600
5,183500	0,5	-0,070300
5,191833	0,5	-0,093200
5,200167	0,5	-0,116050
5,208500	0,5	-0,137950
5,216833	0,5	-0,155900
5,225167	0,5	-0,175900
5,233500	0,5	-0,193000
5,241833	0,5	-0,192900
5,250167	0,5	-0,211600
5,258500	0,5	-0,218950
5,266833	0,5	-0,220450
5,275167	0,5	-0,220600
5,283500	0,5	-0,209550
5,291833	0,5	-0,211950
5,300167	0,5	-0,208200
5,308500	0,5	-0,219100
5,316833	0,5	-0,218600
5,325167	0,5	-0,225300
5,333500	0,5	-0,225750
5,341833	0,5	-0,233200
5,350167	0,5	-0,238650
5,358500	0,5	-0,240150
5,366833	0,5	-0,243150
5,375167	0,5	-0,251550
5,383500	0,5	-0,250800
5,391833	0,5	-0,253650
5,400167	0,5	-0,268800
5,408500	0,5	-0,273700
5,416833	0,5	-0,277200
5,425167	0,5	-0,270800
5,433500	0,5	-0,267850
5,441833	0,5	-0,266850
5,450167	0,5	-0,276900
5,458500	0,5	-0,279650
5,466833	0,5	-0,286900
5,475167	0,5	-0,288800
5,483500	0,5	-0,297500
5,491833	0,5	-0,299600
5,500167	0,5	-0,308800
5,508500	0,5	-0,309950
5,516833	0,5	-0,315250
5,525167	0,5	-0,319400
5,533500	0,5	-0,318850
5,541833	0,5	-0,322000
5,550167	0,5	-0,335500
5,558500	0,5	-0,338550
5,566833	0,5	-0,341300
5,575167	0,5	-0,335300
5,583500	0,5	-0,329800
5,591833	0,5	-0,336650
5,600167	0,5	-0,342050
5,608500	0,5	-0,347200
5,616833	0,5	-0,351300
5,625167	0,5	-0,360050
5,633500	0,5	-0,363250
5,641833	0,5	-0,374100
5,650167	0,5	-0,376250
5,658500	0,5	-0,382750
5,666833	0,5	-0,378300
5,675167	0,5	-0,384350
5,683500	0,5	-0,375950
5,691833	0,5	-0,389850
5,700167	0,5	-0,399550
5,708500	0,5	-0,404100
5,716833	0,5	-0,402800
5,725167	0,5	-0,397100
5,733500	0,5	-0,398800
5,741833	0,5	-0,404150
5,750167	0,5	-0,409700
5,758500	0,5	-0,413900
5,766833	0,5	-0,418850
5,775167	0,5	-0,425350
5,783500	0,5	-0,433100
5,791833	0,5	-0,438000
5,800167	0,5	-0,445500
5,808500	0,5	-0,444500
5,816833	0,5	-0,457000
5,825167	0,5	-0,457400
5,833500	0,5	-0,459950
5,841833	0,5	-0,470450
5,850167	0,5	-0,478050
5,858500	0,5	-0,476500
5,866833	0,5	-0,477350
5,875167	0,5	-0,471550
5,883500	0,5	-0,479650
5,891833	0,5	-0,480950
5,900167	0,5	-0,486200
5,908500	0,5	-0,489000
5,916833	0,5	-0,490650
5,925167	0,5	-0,494500
5,933500	0,5	-0,501800
5,941833	0,5	-0,504050
5,950167	0,5	-0,501400
5,958500	0,5	-0,509450
5,966833	0,5	-0,515250
5,975167	0,5	-0,512250
5,983500	0,5	-0,517500
5,991833	0,5	-0,521200
6,000167	0,5	-0,528350
6,008500	0,5	-0,530550
6,016833	0,5	-0,523800
6,025167	0,5	-0,523650
6,033500	0,5	-0,520400
6,041833	0,5	-0,524750
6,050167	0,5	-0,522600
6,058500	0,5	-0,528200
6,066833	0,5	-0,527950
6,075167	0,5	-0,532350
6,083500	0,5	-0,536200
6,091833	0,5	-0,533450
6,100167	0,5	-0,535850
6,108500	0,5	-0,534450
6,116833	0,5	-0,537050
6,125167	0,5	-0,529350
6,133500	0,5	-0,535100
6,141833	0,5	-0,540800
6,150167	0,5	-0,541150
6,158500	0,5	-0,536500
6,166833	0,5	-0,527050
6,175167	0,5	-0,522350
6,183500	0,5	-0,529350
6,191833	0,5	-0,526250
6,200167	0,5	-0,530800
6,208500	0,5	-0,527850
6,216833	0,5	-0,527300
6,225167	0,5	-0,526400
6,233500	0,5	-0,527050
6,241833	0,5	-0,523500
6,250167	0,5	-0,517000
6,258500	0,5	-0,511300
6,266833	0,5	-0,502500
6,275167	0,5	-0,480750
6,283500	0,5	-0,470150
6,291833	0,5	-0,450850
6,300167	0,5	-0,433700
6,308500	0,5	-0,405850
6,316833	0,5	-0,377650
6,325167	0,5	-0,365300
6,333500	0,5	-0,358800
6,341833	0,5	-0,357400
6,350167	0,5	-0,356250
6,358500	0,5	-0,365650
6,366833	0,5	-0,380500
6,375167	0,5	-0,395750
6,383500	0,5	-0,411000
6,391833	0,5	-0,424550
6,400167	0,5	-0,441350
6,408500	0,5	-0,456300
6,416833	0,5	-0,460550
6,425167	0,5	-0,470800
6,433500	0,5	-0,482600
6,441833	0,5	-0,488700
6,450167	0,5	-0,487750
6,458500	0,5	-0,482350
6,466833	0,5	-0,474400
6,475167	0,5	-0,471900
6,483500	0,5	-0,470100
6,491833	0,5	-0,467450
6,500167	0,5	-0,463700
6,508500	0,5	-0,461850
6,516833	0,5	-0,456900
6,525167	0,5	-0,449850
6,533500	0,5	-0,446100
6,541833	0,5	-0,435600
6,550167	0,5	-0,431500
6,558500	0,5	-0,423000
6,566833	0,5	-0,409200
6,575167	0,5	-0,399300
6,583500	0,5	-0,397200
6,591833	0,5	-0,382600
6,600167	0,5	-0,377350
6,608500	0,5	-0,358000
6,616833	0,5	-0,351200
6,625167	0,5	-0,346250
6,633500	0,5	-0,343000
6,641833	0,5	-0,339600
6,650167	0,5	-0,338400
6,658500	0,5	-0,339100
6,666833	0,5	-0,342400
6,675167	0,5	-0,347450
6,683500	0,5	-0,345550
6,691833	0,5	-0,353100
6,700167	0,5	-0,355050
6,708500	0,5	-0,358800
6,716833	0,5	-0,354600
6,725167	0,5	-0,361600
6,733500	0,5	-0,369500
6,741833	0,5	-0,367950
6,750167	0,5	-0,362550
6,758500	0,5	-0,357450
6,766833	0,5	-0,353100
6,775167	0,5	-0,353750
6,783500	0,5	-0,349850
6,791833	0,5	-0,349050
6,800167	0,5	-0,343200
6,808500	0,5	-0,346900
6,816833	0,5	-0,339200
6,825167	0,5	-0,341250
6,833500	0,5	-0,340550
6,841833	0,5	-0,335650
6,850167	0,5	-0,340550
6,858500	0,5	-0,338050
6,866833	0,5	-0,329700
6,875167	0,5	-0,337750
6,883500	0,5	-0,336450
6,891833	0,5	-0,332150
6,900167	0,5	-0,327250
6,908500	0,5	-0,316000
6,916833	0,5	-0,319650
6,925167	0,5	-0,316700
6,933500	0,5	-0,318250
6,941833	0,5	-0,313350
6,950167	0,5	-0,315650
6,958500	0,5	-0,310550
6,966833	0,5	-0,309950
6,975167	0,5	-0,309950
6,983500	0,5	-0,310050
6,991833	0,5	-0,311050
7,000167	0,5	-0,315850
7,008500	0,5	-0,306800
7,016833	0,5	-0,305550
7,025167	0,5	-0,306450
7,033500	0,5	-0,306650
7,041833	0,5	-0,298500
7,050167	0,5	-0,286900
7,058500	0,5	-0,283700
7,066833	0,5	-0,280800
7,075167	0,5	-0,283450
7,083500	0,5	-0,280700
7,091833	0,5	-0,277150
7,100167	0,5	-0,267750
7,108500	0,5	-0,257500
7,116833	0,5	-0,245200
7,125167	0,5	-0,222900
7,133500	0,5	-0,183500
7,141833	0,5	-0,148350
7,150167	0,5	-0,103600
7,158500	0,5	-0,045850
7,166833	0,5	0,011350
7,175167	0,5	0,070200
7,183500	0,5	0,144550
7,191833	0,5	0,228400
7,200167	0,5	0,328650
7,208500	0,5	0,466750
7,216833	0,5	0,652800
7,225167	0,5	0,940750
7,233500	0,5	1,392300
7,241833	0,5	2,069600
7,250167	0,5	3,031500
7,258500	0,5	4,288400
7,266833	0,5	5,751050
7,275167	0,5	7,249300
7,283500	0,5	8,517200
7,291833	0,5	9,300000
7,300167	0,5	9,418850
7,308500	0,5	8,877000
7,316833	0,5	7,781300
7,325167	0,5	6,383100
7,333500	0,5	4,925950
7,341833	0,5	3,606750
7,350167	0,5	2,523700
7,358500	0,5	1,700900
7,366833	0,5	1,117350
7,375167	0,5	0,724200
7,383500	0,5	0,461650
7,391833	0,5	0,293450
7,400167	0,5	0,180400
7,408500	0,5	0,101800
7,416833	0,5	0,047150
7,425167	0,5	0,012750
7,433500	0,5	-0,015200
7,441833	0,5	-0,041400
7,450167	0,5	-0,054050
7,458500	0,5	-0,066450
7,466833	0,5	-0,080550
7,475167	0,5	-0,090050
7,483500	0,5	-0,096750
7,491833	0,5	-0,097400
7,500167	0,5	-0,095950
7,508500	0,5	-0,100050
7,516833	0,5	-0,100450
7,525167	0,5	-0,107750
7,533500	0,5	-0,110250
7,541833	0,5	-0,118800
7,550167	0,5	-0,119300
7,558500	0,5	-0,130950
7,566833	0,5	-0,134950
7,575167	0,5	-0,138650
7,583500	0,5	-0,147750
7,591833	0,5	-0,153250
7,600167	0,5	-0,153100
7,608500	0,5	-0,160200
7,616833	0,5	-0,167250
7,625167	0,5	-0,167650
7,633500	0,5	-0,173050
7,641833	0,5	-0,167500
7,650167	0,5	-0,167450
7,658500	0,5	-0,169500
7,666833	0,5	-0,171900
7,675167	0,5	-0,171600
7,683500	0,5	-0,173800
7,691833	0,5	-0,173050
7,700167	0,5	-0,174000
7,708500	0,5	-0,175450
7,716833	0,5	-0,175650
7,725167	0,5	-0,173250
7,733500	0,5	-0,171950
7,741833	0,5	-0,172550
7,750167	0,5	-0,164850
7,758500	0,5	-0,166600
7,766833	0,5	-0,163600
7,775167	0,5	-0,161350
7,783500	0,5	-0,159600
7,791833	0,5	-0,148600
7,800167	0,5	-0,147350
7,808500	0,5	-0,148300
7,816833	0,5	-0,145250
7,825167	0,5	-0,150500
7,833500	0,5	-0,148900
7,841833	0,5	-0,152350
7,850167	0,5	-0,150500
7,858500	0,5	-0,152300
7,866833	0,5	-0,150600
7,875167	0,5	-0,148300
7,883500	0,5	-0,150350
7,891833	0,5	-0,148800
7,900167	0,5	-0,142100
7,908500	0,5	-0,143350
7,916833	0,5	-0,144350
7,925167	0,5	-0,141450
7,933500	0,5	-0,139950
7,941833	0,5	-0,131850
7,950167	0,5	-0,129550
7,958500	0,5	-0,127700
7,966833	0,5	-0,125300
7,975167	0,5	-0,123400
7,983500	0,5	-0,119500
7,991833	0,5	-0,116550
8,000167	0,5	-0,112450
8,008500	0,5	-0,109900
8,016833	0,5	-0,112100
8,025167	0,5	-0,108200
8,033500	0,5	-0,106500
8,041833	0,5	-0,104200
8,050167	0,5	-0,103800
8,058500	0,5	-0,101050
8,066833	0,5	-0,104800
8,075167	0,5	-0,100800
8,083500	0,5	-0,093250
8,091833	0,5	-0,085600
8,100167	0,5	-0,082200
8,108500	0,5	-0,079750
8,116833	0,5	-0,074200
8,125167	0,5	-0,073450
8,133500	0,5	-0,069000
8,141833	0,5	-0,069450
8,150167	0,5	-0,062800
8,158500	0,5	-0,068150
8,166833	0,5	-0,063800
8,175167	0,5	-0,063300
8,183500	0,5	-0,065750
8,191833	0,5	-0,061200
8,200167	0,5	-0,056600
8,208500	0,5	-0,054800
8,216833	0,5	-0,052350
8,225167	0,5	-0,047700
8,233500	0,5	-0,042200
8,241833	0,5	-0,036000
8,250167	0,5	-0,032150
8,258500	0,5	-0,027150
8,266833	0,5	-0,023350
8,275167	0,5	-0,019350
8,283500	0,5	-0,018350
8,291833	0,5	-0,014500
8,300167	0,5	-0,014450
8,308500	0,5	-0,009650
8,316833	0,5	-0,008950
8,325167	0,5	-0,005700
8,333500	0,5	-0,007000
8,341833	0,5	-0,000650
8,350167	0,5	0,001450
8,358500	0,5	0,002600
8,366833	0,5	0,003950
8,375167	0,5	0,009350
8,383500	0,5	0,014950
8,391833	0,5	0,023800
8,400167	0,5	0,028150
8,408500	0,5	0,030650
8,416833	0,5	0,031100
8,425167	0,5	0,035600
8,433500	0,5	0,039500
8,441833	0,5	0,042700
8,450167	0,5	0,045950
8,458500	0,5	0,048650
8,466833	0,5	0,052150
8,475167	0,5	0,059200
8,483500	0,5	0,065050
8,491833	0,5	0,074300
8,500167	0,5	0,081400
8,508500	0,5	0,086250
8,516833	0,5	0,093500
8,525167	0,5	0,098900
8,533500	0,5	0,111150
8,541833	0,5	0,111800
8,550167	0,5	0,114000
8,558500	0,5	0,120050
8,566833	0,5	0,129100
8,575167	0,5	0,141750
8,583500	0,5	0,166500
8,591833	0,5	0,201850
8,600167	0,5	0,251500
8,608500	0,5	0,319400
8,616833	0,5	0,402200
8,625167	0,5	0,499000
8,633500	0,5	0,615050
8,641833	0,5	0,748550
8,650167	0,5	0,911050
8,658500	0,5	1,124650
8,666833	0,5	1,452800
8,675167	0,5	1,999200
8,683500	0,5	2,896100
8,691833	0,5	4,274750
8,700167	0,5	6,202150
8,708500	0,5	8,545600
8,716833	0,5	10,947150
8,725167	0,5	12,880300
8,733500	0,5	13,849700
8,741833	0,5	13,615100
8,750167	0,5	12,278000
8,758500	0,5	10,219300
8,766833	0,5	7,914450
8,775167	0,5	5,776900
8,783500	0,5	4,044050
8,791833	0,5	2,768800
8,800167	0,5	1,907750
8,808500	0,5	1,353950
8,816833	0,5	1,017750
8,825167	0,5	0,813100
8,833500	0,5	0,685600
8,841833	0,5	0,606100
8,850167	0,5	0,552700
8,858500	0,5	0,516100
8,866833	0,5	0,489750
8,875167	0,5	0,467200
8,883500	0,5	0,457100
8,891833	0,5	0,444750
8,900167	0,5	0,435750
8,908500	0,5	0,432650
8,916833	0,5	0,426750
8,925167	0,5	0,424400
8,933500	0,5	0,419750
8,941833	0,5	0,418050
8,950167	0,5	0,418900
8,958500	0,5	0,419250
8,966833	0,5	0,417200
8,975167	0,5	0,415200
8,983500	0,5	0,411200
8,991833	0,5	0,405250
9,000167	0,5	0,403500
9,008500	0,5	0,401700
9,016833	0,5	0,399200
9,025167	0,5	0,396650
9,033500	0,5	0,393850
9,041833	0,5	0,392800
9,050167	0,5	0,391400
9,058500	0,5	0,394200
9,066833	0,5	0,391450
9,075167	0,5	0,388250
9,083500	0,5	0,390200
9,091833	0,5	0,389300
9,100167	0,5	0,391000
9,108500	0,5	0,394000
9,116833	0,5	0,391250
9,125167	0,5	0,397950
9,133500	0,5	0,399050
9,141833	0,5	0,399550
9,150167	0,5	0,401300
9,158500	0,5	0,406100
9,166833	0,5	0,408250
9,175167	0,5	0,409650
9,183500	0,5	0,412450
9,191833	0,5	0,412150
9,200167	0,5	0,415050
9,208500	0,5	0,417450
9,216833	0,5	0,419700
9,225167	0,5	0,417700
9,233500	0,5	0,420400
9,241833	0,5	0,421950
9,250167	0,5	0,423600
9,258500	0,5	0,425400
9,266833	0,5	0,428750
9,275167	0,5	0,439500
9,283500	0,5	0,438850
9,291833	0,5	0,442600
9,300167	0,5	0,446100
9,308500	0,5	0,450000
9,316833	0,5	0,451700
9,325167	0,5	0,455150
9,333500	0,5	0,458900
9,341833	0,5	0,459600
9,350167	0,5	0,464400
9,358500	0,5	0,463550
9,366833	0,5	0,468200
9,375167	0,5	0,470850
9,383500	0,5	0,474250
9,391833	0,5	0,472950
9,400167	0,5	0,473900
9,408500	0,5	0,478100
9,416833	0,5	0,480000
9,425167	0,5	0,486850
9,433500	0,5	0,488100
9,441833	0,5	0,491800
9,450167	0,5	0,493400
9,458500	0,5	0,497250
9,466833	0,5	0,499800
9,475167	0,5	0,500450
9,483500	0,5	0,504650
9,491833	0,5	0,504700
9,500167	0,5	0,508300
9,508500	0,5	0,509050
9,516833	0,5	0,512000
9,525167	0,5	0,513900
9,533500	0,5	0,516700
9,541833	0,5	0,516650
9,550167	0,5	0,516050
9,558500	0,5	0,518650
9,566833	0,5	0,521550
9,575167	0,5	0,529250
9,583500	0,5	0,531250
9,591833	0,5	0,532400
9,600167	0,5	0,533800
9,608500	0,5	0,537650
9,616833	0,5	0,539850
9,625167	0,5	0,540550
9,633500	0,5	0,544350
9,641833	0,5	0,540400
9,650167	0,5	0,543400
9,658500	0,5	0,547850
9,666833	0,5	0,546100
9,675167	0,5	0,548350
9,683500	0,5	0,550050
9,691833	0,5	0,550000
9,700167	0,5	0,551250
9,708500	0,5	0,554200
9,716833	0,5	0,557500
9,725167	0,5	0,557000
9,733500	0,5	0,561250
9,741833	0,5	0,563050
9,750167	0,5	0,568150
9,758500	0,5	0,563700
9,766833	0,5	0,567200
9,775167	0,5	0,566350
9,783500	0,5	0,570550
9,791833	0,5	0,571200
9,800167	0,5	0,572650
9,808500	0,5	0,573900
9,816833	0,5	0,577550
9,825167	0,5	0,580800
9,833500	0,5	0,585100
9,841833	0,5	0,585000
9,850167	0,5	0,588100
9,858500	0,5	0,593200
9,866833	0,5	0,593950
9,875167	0,5	0,592600
9,883500	0,5	0,593900
9,891833	0,5	0,592300
9,900167	0,5	0,589800
9,908500	0,5	0,588050
9,916833	0,5	0,584250
9,925167	0,5	0,583650
9,933500	0,5	0,581700
9,941833	0,5	0,581800
9,950167	0,5	0,583300
9,958500	0,5	0,585200
9,966833	0,5	0,581350
9,975167	0,5	0,584550
9,983500	0,5	0,581950
9,991833	0,5	0,579550
10,000167	0,5	0,575200
10,008500	0,5	0,572650
10,016833	0,5	0,577350
10,025167	0,5	0,577300
10,033500	0,5	0,577750
10,041833	0,5	0,574250
10,050167	0,5	0,575200
10,058500	0,5	0,573550
10,066833	0,5	0,574400
10,075167	0,5	0,572450
10,083500	0,5	0,569250
10,091833	0,5	0,564900
10,100167	0,5	0,569200
10,108500	0,5	0,563700
10,116833	0,5	0,567150
10,125167	0,5	0,568000
10,133500	0,5	0,566550
10,141833	0,5	0,567650
10,150167	0,5	0,567750
10,158500	0,5	0,568500
10,166833	0,5	0,568150
10,175167	0,5	0,564450
10,183500	0,5	0,561250
10,191833	0,5	0,554500
10,200167	0,5	0,549800
10,208500	0,5	0,545250
10,216833	0,5	0,542750
10,225167	0,5	0,536600
10,233500	0,5	0,535600
10,241833	0,5	0,530550
10,250167	0,5	0,527200
10,258500	0,5	0,522750
10,266833	0,5	0,522600
10,275167	0,5	0,520850
10,283500	0,5	0,518150
10,291833	0,5	0,515200
10,300167	0,5	0,510600
10,308500	0,5	0,510500
10,316833	0,5	0,513600
10,325167	0,5	0,517550
10,333500	0,5	0,518900
10,341833	0,5	0,519550
10,350167	0,5	0,522750
10,358500	0,5	0,523900
10,366833	0,5	0,526150
10,375167	0,5	0,522900
10,383500	0,5	0,520650
10,391833	0,5	0,518500
10,400167	0,5	0,514750
10,408500	0,5	0,513750
10,416833	0,5	0,512450
10,425167	0,5	0,509900
10,433500	0,5	0,508050
10,441833	0,5	0,502350
10,450167	0,5	0,500350
10,458500	0,5	0,502100
10,466833	0,5	0,505250
10,475167	0,5	0,501300
10,483500	0,5	0,503300
10,491833	0,5	0,503500
10,500167	0,5	0,499800
10,508500	0,5	0,501450
10,516833	0,5	0,498550
10,525167	0,5	0,498250
10,533500	0,5	0,493900
10,541833	0,5	0,491350
10,550167	0,5	0,488100
10,558500	0,5	0,487300
10,566833	0,5	0,487050
10,575167	0,5	0,483000
10,583500	0,5	0,482400
10,591833	0,5	0,476650
10,600167	0,5	0,478450
10,608500	0,5	0,476650
10,616833	0,5	0,476950
10,625167	0,5	0,474500
10,633500	0,5	0,478550
10,641833	0,5	0,473700
10,650167	0,5	0,473650
10,658500	0,5	0,472300
10,666833	0,5	0,468350
10,675167	0,5	0,463350
10,683500	0,5	0,461650
10,691833	0,5	0,456700
10,700167	0,5	0,448600
10,708500	0,5	0,453800
10,716833	0,5	0,449400
10,725167	0,5	0,448500
10,733500	0,5	0,443050
10,741833	0,5	0,438650
10,750167	0,5	0,441850
10,758500	0,5	0,441050
10,766833	0,5	0,441100
10,775167	0,5	0,441100
10,783500	0,5	0,438150
10,791833	0,5	0,437700
10,800167	0,5	0,435000
10,808500	0,5	0,432100
10,816833	0,5	0,431150
10,825167	0,5	0,423950
10,833500	0,5	0,419050
10,841833	0,5	0,414850
10,850167	0,5	0,410700
10,858500	0,5	0,409750
10,866833	0,5	0,406900
10,875167	0,5	0,402150
10,883500	0,5	0,401850
10,891833	0,5	0,393200
10,900167	0,5	0,396000
10,908500	0,5	0,392550
10,916833	0,5	0,387350
10,925167	0,5	0,384750
10,933500	0,5	0,382150
10,941833	0,5	0,379100
10,950167	0,5	0,375850
10,958500	0,5	0,379650
10,966833	0,5	0,375600
10,975167	0,5	0,369100
10,983500	0,5	0,371250
10,991833	0,5	0,367300
11,000167	0,5	0,367300
11,008500	0,5	0,364600
11,016833	0,5	0,364950
11,025167	0,5	0,357450
11,033500	0,5	0,353600
11,041833	0,5	0,352400
11,050167	0,5	0,353750
11,058500	0,5	0,352500
11,066833	0,5	0,349000
11,075167	0,5	0,349900
11,083500	0,5	0,348550
11,091833	0,5	0,348050
11,100167	0,5	0,350000
11,108500	0,5	0,344300
11,116833	0,5	0,343350
11,125167	0,5	0,344500
11,133500	0,5	0,343200
11,141833	0,5	0,340050
11,150167	0,5	0,345500
11,158500	0,5	0,343850
11,166833	0,5	0,342350
11,175167	0,5	0,336750
11,183500	0,5	0,331800
11,191833	0,5	0,332000
11,200167	0,5	0,332200
11,208500	0,5	0,329350
11,216833	0,5	0,333150
11,225167	0,5	0,327650
11,233500	0,5	0,328750
11,241833	0,5	0,327100
11,250167	0,5	0,323950
11,258500	0,5	0,322050
11,266833	0,5	0,321950
11,275167	0,5	0,322050
11,283500	0,5	0,321300
11,291833	0,5	0,311800
11,300167	0,5	0,315000
11,308500	0,5	0,310250
11,316833	0,5	0,308450
11,325167	0,5	0,302950
11,333500	0,5	0,294900
11,341833	0,5	0,294600
11,350167	0,5	0,289750
11,358500	0,5	0,291600
11,366833	0,5	0,285450
11,375167	0,5	0,283600
11,383500	0,5	0,277300
11,391833	0,5	0,277800
11,400167	0,5	0,267000
11,408500	0,5	0,265050
11,416833	0,5	0,262150
11,425167	0,5	0,257050
11,433500	0,5	0,252150
11,441833	0,5	0,247800
11,450167	0,5	0,246700
11,458500	0,5	0,242750
11,466833	0,5	0,240450
11,475167	0,5	0,231800
11,483500	0,5	0,227300
11,491833	0,5	0,226750
11,500167	0,5	0,226500
11,508500	0,5	0,229250
11,516833	0,5	0,226100
11,525167	0,5	0,225400
11,533500	0,5	0,226450
11,541833	0,5	0,228150
11,550167	0,5	0,231200
11,558500	0,5	0,235250
11,566833	0,5	0,238650
11,575167	0,5	0,237550
11,583500	0,5	0,240900
11,591833	0,5	0,247650
11,600167	0,5	0,255300
11,608500	0,5	0,253350
11,616833	0,5	0,250450
11,625167	0,5	0,245950
11,633500	0,5	0,240000
11,641833	0,5	0,236100
11,650167	0,5	0,233150
11,658500	0,5	0,228250
11,666833	0,5	0,220100
11,675167	0,5	0,214150
11,683500	0,5	0,213150
11,691833	0,5	0,211750
11,700167	0,5	0,207000
11,708500	0,5	0,207450
11,716833	0,5	0,208000
11,725167	0,5	0,206650
11,733500	0,5	0,202800
11,741833	0,5	0,210600
11,750167	0,5	0,208850
11,758500	0,5	0,211650
11,766833	0,5	0,209450
11,775167	0,5	0,204700
11,783500	0,5	0,208450
11,791833	0,5	0,213350
11,800167	0,5	0,210200
11,808500	0,5	0,215950
11,816833	0,5	0,210000
11,825167	0,5	0,212500
11,833500	0,5	0,213700
11,841833	0,5	0,214600
11,850167	0,5	0,211800
11,858500	0,5	0,211000
11,866833	0,5	0,214400
11,875167	0,5	0,212350
11,883500	0,5	0,212100
11,891833	0,5	0,217350
11,900167	0,5	0,215050
11,908500	0,5	0,215000
11,916833	0,5	0,209650
11,925167	0,5	0,207900
11,933500	0,5	0,213800
11,941833	0,5	0,210050
11,950167	0,5	0,211150
11,958500	0,5	0,213500
11,966833	0,5	0,216100
11,975167	0,5	0,215450
11,983500	0,5	0,219400
11,991833	0,5	0,223500
12,000167	0,5	0,219100
12,008500	0,5	0,225050
12,016833	0,5	0,226700
12,025167	0,5	0,224050
12,033500	0,5	0,229850
12,041833	0,5	0,234650
12,050167	0,5	0,235600
12,058500	0,5	0,234700
12,066833	0,5	0,233150
12,075167	0,5	0,232150
12,083500	0,5	0,234250
12,091833	0,5	0,238050
12,100167	0,5	0,232350
12,108500	0,5	0,232250
12,116833	0,5	0,231050
12,125167	0,5	0,226250
12,133500	0,5	0,218950
12,141833	0,5	0,213000
12,150167	0,5	0,206300
12,158500	0,5	0,192800
12,166833	0,5	0,187700
12,175167	0,5	0,178800
12,183500	0,5	0,174700
12,191833	0,5	0,167600
12,200167	0,5	0,158100
12,208500	0,5	0,147800
12,216833	0,5	0,133950
12,225167	0,5	0,128550
12,233500	0,5	0,127350
12,241833	0,5	0,122650
12,250167	0,5	0,118550
12,258500	0,5	0,114900
12,266833	0,5	0,110650
12,275167	0,5	0,106700
12,283500	0,5	0,106500
12,291833	0,5	0,102250
12,300167	0,5	0,097200
12,308500	0,5	0,095100
12,316833	0,5	0,094000
12,325167	0,5	0,089900
12,333500	0,5	0,095150
12,341833	0,5	0,095100
12,350167	0,5	0,097000
12,358500	0,5	0,093000
12,366833	0,5	0,087100
12,375167	0,5	0,093000
12,383500	0,5	0,093450
12,391833	0,5	0,092850
12,400167	0,5	0,087700
12,408500	0,5	0,088400
12,416833	0,5	0,078800
12,425167	0,5	0,077950
12,433500	0,5	0,073200
12,441833	0,5	0,069750
12,450167	0,5	0,067600
12,458500	0,5	0,067150
12,466833	0,5	0,057600
12,475167	0,5	0,061300
12,483500	0,5	0,056750
12,491833	0,5	0,053500
12,500167	0,5	0,049800
12,508500	0,5	0,038900
12,516833	0,5	0,038700
12,525167	0,5	0,039450
12,533500	0,5	0,042000
12,541833	0,5	0,038300
12,550167	0,5	0,040900
12,558500	0,5	0,039700
12,566833	0,5	0,038500
12,575167	0,5	0,040000
12,583500	0,5	0,035550
12,591833	0,5	0,032250
12,600167	0,5	0,033650
12,608500	0,5	0,029200
12,616833	0,5	0,022450
12,625167	0,5	0,027750
12,633500	0,5	0,033000
12,641833	0,5	0,026350
12,650167	0,5	0,024350
12,658500	0,5	0,019050
12,666833	0,5	0,015500
12,675167	0,5	0,016900
12,683500	0,5	0,018950
12,691833	0,5	0,012700
12,700167	0,5	0,012600
12,708500	0,5	0,009400
12,716833	0,5	0,012250
12,725167	0,5	0,010100
12,733500	0,5	0,009200
12,741833	0,5	0,004350
12,750167	0,5	0,003300
12,758500	0,5	0,000850
12,766833	0,5	-0,004600
12,775167	0,5	0,001300
12,783500	0,5	-0,003450
12,791833	0,5	-0,007300
12,800167	0,5	-0,010300
12,808500	0,5	-0,017600
12,816833	0,5	-0,016150
12,825167	0,5	-0,015000
12,833500	0,5	-0,017600
12,841833	0,5	-0,019900
12,850167	0,5	-0,023850
12,858500	0,5	-0,021700
12,866833	0,5	-0,027450
12,875167	0,5	-0,028000
12,883500	0,5	-0,030200
12,891833	0,5	-0,032350
12,900167	0,5	-0,029700
12,908500	0,5	-0,041200
12,916833	0,5	-0,042550
12,925167	0,5	-0,041850
12,933500	0,5	-0,043700
12,941833	0,5	-0,049950
12,950167	0,5	-0,056150
12,958500	0,5	-0,065200
12,966833	0,5	-0,062650
12,975167	0,5	-0,064600
12,983500	0,5	-0,061000
12,991833	0,5	-0,067800
13,000167	0,5	-0,064800
13,008500	0,5	-0,068700
13,016833	0,5	-0,067900
13,025167	0,5	-0,072400
13,033500	0,5	-0,075900
13,041833	0,5	-0,073150
13,050167	0,5	-0,070800
13,058500	0,5	-0,085250
13,066833	0,5	-0,085100
13,075167	0,5	-0,085600
13,083500	0,5	-0,085550
13,091833	0,5	-0,093500
13,100167	0,5	-0,103500
13,108500	0,5	-0,103800
13,116833	0,5	-0,100850
13,125167	0,5	-0,097250
13,133500	0,5	-0,100450
13,141833	0,5	-0,100000
13,150167	0,5	-0,103500
13,158500	0,5	-0,108300
13,166833	0,5	-0,105150
13,175167	0,5	-0,107950
13,183500	0,5	-0,111300
13,191833	0,5	-0,111550
13,200167	0,5	-0,112300
13,208500	0,5	-0,121000
13,216833	0,5	-0,118050
13,225167	0,5	-0,121650
13,233500	0,5	-0,124700
13,241833	0,5	-0,134850
13,250167	0,5	-0,145050
13,258500	0,5	-0,144650
13,266833	0,5	-0,139650
13,275167	0,5	-0,139700
13,283500	0,5	-0,140300
13,291833	0,5	-0,143950
13,300167	0,5	-0,141800
13,308500	0,5	-0,145650
13,316833	0,5	-0,140600
13,325167	0,5	-0,146500
13,333500	0,5	-0,149950
13,341833	0,5	-0,154900
13,350167	0,5	-0,154000
13,358500	0,5	-0,159250
13,366833	0,5	-0,152700
13,375167	0,5	-0,155650
13,383500	0,5	-0,160350
13,391833	0,5	-0,168650
13,400167	0,5	-0,177350
13,408500	0,5	-0,173400
13,416833	0,5	-0,175200
13,425167	0,5	-0,175650
13,433500	0,5	-0,177350
13,441833	0,5	-0,177950
13,450167	0,5	-0,179300
13,458500	0,5	-0,176450
13,466833	0,5	-0,180550
13,475167	0,5	-0,183950
13,483500	0,5	-0,179050
13,491833	0,5	-0,179700
13,500167	0,5	-0,189900
13,508500	0,5	-0,186050
13,516833	0,5	-0,187850
13,525167	0,5	-0,190200
13,533500	0,5	-0,199750
13,541833	0,5	-0,203050
13,550167	0,5	-0,204850
13,558500	0,5	-0,204900
13,566833	0,5	-0,204600
13,575167	0,5	-0,204650
13,583500	0,5	-0,207150
13,591833	0,5	-0,206550
13,600167	0,5	-0,206150
13,608500	0,5	-0,208400
13,616833	0,5	-0,211400
13,625167	0,5	-0,214250
13,633500	0,5	-0,210750
13,641833	0,5	-0,216250
13,650167	0,5	-0,224200
13,658500	0,5	-0,218900
13,666833	0,5	-0,218350
13,675167	0,5	-0,224700
13,683500	0,5	-0,226950
13,691833	0,5	-0,232900
13,700167	0,5	-0,231200
13,708500	0,5	-0,235450
13,716833	0,5	-0,235650
13,725167	0,5	-0,241600
13,733500	0,5	-0,239000
13,741833	0,5	-0,239100
13,750167	0,5	-0,240500
13,758500	0,5	-0,243550
13,766833	0,5	-0,247850
13,775167	0,5	-0,247300
13,783500	0,5	-0,248750
13,791833	0,5	-0,252500
13,800167	0,5	-0,257600
13,808500	0,5	-0,251450
13,816833	0,5	-0,251150
13,825167	0,5	-0,254050
13,833500	0,5	-0,266450
13,841833	0,5	-0,264300
13,850167	0,5	-0,265550
13,858500	0,5	-0,267050
13,866833	0,5	-0,270400
13,875167	0,5	-0,270250
13,883500	0,5	-0,275350
13,891833	0,5	-0,277700
13,900167	0,5	-0,280100
13,908500	0,5	-0,286100
13,916833	0,5	-0,288750
13,925167	0,5	-0,296200
13,933500	0,5	-0,294650
13,941833	0,5	-0,304500
13,950167	0,5	-0,301100
13,958500	0,5	-0,299250
13,966833	0,5	-0,301250
13,975167	0,5	-0,309050
13,983500	0,5	-0,315950
13,991833	0,5	-0,322800
14,000167	0,5	-0,315350
14,008500	0,5	-0,321350
14,016833	0,5	-0,322750
14,025167	0,5	-0,329900
14,033500	0,5	-0,329300
14,041833	0,5	-0,332800
14,050167	0,5	-0,329300
14,058500	0,5	-0,336450
14,066833	0,5	-0,338350
14,075167	0,5	-0,342000
14,083500	0,5	-0,343900
14,091833	0,5	-0,360650
14,100167	0,5	-0,351700
14,108500	0,5	-0,349650
14,116833	0,5	-0,355150
14,125167	0,5	-0,359450
14,133500	0,5	-0,374800
14,141833	0,5	-0,370050
14,150167	0,5	-0,371300
14,158500	0,5	-0,373500
14,166833	0,5	-0,375750
14,175167	0,5	-0,377700
14,183500	0,5	-0,380800
14,191833	0,5	-0,379150
14,200167	0,5	-0,384150
14,208500	0,5	-0,384950
14,216833	0,5	-0,386500
14,225167	0,5	-0,385550
14,233500	0,5	-0,384100
14,241833	0,5	-0,393200
14,250167	0,5	-0,386450
14,258500	0,5	-0,388900
14,266833	0,5	-0,395100
14,275167	0,5	-0,404350
14,283500	0,5	-0,411000
14,291833	0,5	-0,409400
14,300167	0,5	-0,410000
14,308500	0,5	-0,412900
14,316833	0,5	-0,413550
14,325167	0,5	-0,417750
14,333500	0,5	-0,418900
14,341833	0,5	-0,421000
14,350167	0,5	-0,423000
14,358500	0,5	-0,430750
14,366833	0,5	-0,432950
14,375167	0,5	-0,436000
14,383500	0,5	-0,443000
14,391833	0,5	-0,445000
14,400167	0,5	-0,442350
14,408500	0,5	-0,451100
14,416833	0,5	-0,456700
14,425167	0,5	-0,467900
14,433500	0,5	-0,476400
14,441833	0,5	-0,477700
14,450167	0,5	-0,480750
14,458500	0,5	-0,485750
14,466833	0,5	-0,488000
14,475167	0,5	-0,489750
14,483500	0,5	-0,495050
14,491833	0,5	-0,493500
14,500167	0,5	-0,496650
14,508500	0,5	-0,498900
14,516833	0,5	-0,505500
14,525167	0,5	-0,502100
14,533500	0,5	-0,514300
14,541833	0,5	-0,513000
14,550167	0,5	-0,516100
14,558500	0,5	-0,521050
14,566833	0,5	-0,527650
14,575167	0,5	-0,538650
14,583500	0,5	-0,540900
14,591833	0,5	-0,539300
14,600167	0,5	-0,541400
14,608500	0,5	-0,541500
14,616833	0,5	-0,543250
14,625167	0,5	-0,547200
14,633500	0,5	-0,544400
14,641833	0,5	-0,557450
14,650167	0,5	-0,551700
14,658500	0,5	-0,555550
14,666833	0,5	-0,548650
14,675167	0,5	-0,556500
14,683500	0,5	-0,563600
14,691833	0,5	-0,559400
14,700167	0,5	-0,558000
14,708500	0,5	-0,564450
14,716833	0,5	-0,569650
14,725167	0,5	-0,578500
14,733500	0,5	-0,579300
14,741833	0,5	-0,579300
14,750167	0,5	-0,577150
14,758500	0,5	-0,580450
14,766833	0,5	-0,576850
14,775167	0,5	-0,579050
14,783500	0,5	-0,579900
14,791833	0,5	-0,579100
14,800167	0,5	-0,583450
14,808500	0,5	-0,581650
14,816833	0,5	-0,581500
14,825167	0,5	-0,596350
14,833500	0,5	-0,591750
14,841833	0,5	-0,586050
14,850167	0,5	-0,588100
14,858500	0,5	-0,591300
14,866833	0,5	-0,606150
14,875167	0,5	-0,603050
14,883500	0,5	-0,605450
14,891833	0,5	-0,602000
14,900167	0,5	-0,606450
14,908500	0,5	-0,603400
14,916833	0,5	-0,610400
14,925167	0,5	-0,614100
14,933500	0,5	-0,613750
14,941833	0,5	-0,615300
14,950167	0,5	-0,616300
14,958500	0,5	-0,617850
14,966833	0,5	-0,614250
14,975167	0,5	-0,631700
14,983500	0,5	-0,621000
14,991833	0,5	-0,620000
15,000167	0,5	-0,623850
15,008500	0,5	-0,634350
15,016833	0,5	-0,645700
15,025167	0,5	-0,644550
15,033500	0,5	-0,637200
15,041833	0,5	-0,644350
15,050167	0,5	-0,641950
15,058500	0,5	-0,647650
15,066833	0,5	-0,647700
15,075167	0,5	-0,648100
15,083500	0,5	-0,644850
15,091833	0,5	-0,649400
15,100167	0,5	-0,656850
15,108500	0,5	-0,651700
15,116833	0,5	-0,646600
15,125167	0,5	-0,660900
15,133500	0,5	-0,650050
15,141833	0,5	-0,655250
15,150167	0,5	-0,655500
15,158500	0,5	-0,661650
15,166833	0,5	-0,678900
15,175167	0,5	-0,665500
15,183500	0,5	-0,669250
15,191833	0,5	-0,670750
15,200167	0,5	-0,673400
15,208500	0,5	-0,670450
15,216833	0,5	-0,674150
15,225167	0,5	-0,676200
15,233500	0,5	-0,679650
15,241833	0,5	-0,683900
15,250167	0,5	-0,686900
15,258500	0,5	-0,682050
15,266833	0,5	-0,692300
15,275167	0,5	-0,694450
15,283500	0,5	-0,692250
15,291833	0,5	-0,699900
15,300167	0,5	-0,705750
15,308500	0,5	-0,716700
15,316833	0,5	-0,719450
15,325167	0,5	-0,721300
15,333500	0,5	-0,716900
15,341833	0,5	-0,721700
15,350167	0,5	-0,722950
15,358500	0,5	-0,724200
15,366833	0,5	-0,726100
15,375167	0,5	-0,727500
15,383500	0,5	-0,726250
15,391833	0,5	-0,729150
15,400167	0,5	-0,722300
15,408500	0,5	-0,727950
15,416833	0,5	-0,734100
15,425167	0,5	-0,732250
15,433500	0,5	-0,726800
15,441833	0,5	-0,731500
15,450167	0,5	-0,736650
15,458500	0,5	-0,749500
15,466833	0,5	-0,759750
15,475167	0,5	-0,753800
15,483500	0,5	-0,752850
15,491833	0,5	-0,754300
15,500167	0,5	-0,754200
15,508500	0,5	-0,750900
15,516833	0,5	-0,754200
15,525167	0,5	-0,749500
15,533500	0,5	-0,758200
15,541833	0,5	-0,756550
15,550167	0,5	-0,755500
15,558500	0,5	-0,757750
15,566833	0,5	-0,771000
15,575167	0,5	-0,760850
15,583500	0,5	-0,762500
15,591833	0,5	-0,765200
15,600167	0,5	-0,776950
15,608500	0,5	-0,786650
15,616833	0,5	-0,786750
15,625167	0,5	-0,779950
15,633500	0,5	-0,786550
15,641833	0,5	-0,782750
15,650167	0,5	-0,785800
15,658500	0,5	-0,790300
15,666833	0,5	-0,791650
15,675167	0,5	-0,792350
15,683500	0,5	-0,788850
15,691833	0,5	-0,789250
15,700167	0,5	-0,783850
15,708500	0,5	-0,798050
15,716833	0,5	-0,798850
15,725167	0,5	-0,798300
15,733500	0,5	-0,796900
15,741833	0,5	-0,808150
15,750167	0,5	-0,819950
15,758500	0,5	-0,823400
15,766833	0,5	-0,817300
15,775167	0,5	-0,821300
15,783500	0,5	-0,821250
15,791833	0,5	-0,820550
15,800167	0,5	-0,820950
15,808500	0,5	-0,821500
15,816833	0,5	-0,818500
15,825167	0,5	-0,819350
15,833500	0,5	-0,823500
15,841833	0,5	-0,821150
15,850167	0,5	-0,826850
15,858500	0,5	-0,844650
15,866833	0,5	-0,836400
15,875167	0,5	-0,834900
15,883500	0,5	-0,837950
15,891833	0,5	-0,840600
15,900167	0,5	-0,862250
15,908500	0,5	-0,855000
15,916833	0,5	-0,858200
15,925167	0,5	-0,856900
15,933500	0,5	-0,869250
15,941833	0,5	-0,864400
15,950167	0,5	-0,867600
15,958500	0,5	-0,866100
15,966833	0,5	-0,869750
15,975167	0,5	-0,870850
15,983500	0,5	-0,875650
15,991833	0,5	-0,870750
16,000167	0,5	-0,873050
16,008500	0,5	-0,885100
16,016833	0,5	-0,874500
16,025167	0,5	-0,881250
16,033500	0,5	-0,883700
16,041833	0,5	-0,894150
16,050167	0,5	-0,905350
16,058500	0,5	-0,902200
16,066833	0,5	-0,895750
16,075167	0,5	-0,903350
16,083500	0,5	-0,902850
16,091833	0,5	-0,905500
16,100167	0,5	-0,903150
16,108500	0,5	-0,904650
16,116833	0,5	-0,906900
16,125167	0,5	-0,910050
16,133500	0,5	-0,910350
16,141833	0,5	-0,904350
16,150167	0,5	-0,908150
16,158500	0,5	-0,915700
16,166833	0,5	-0,906850
16,175167	0,5	-0,909950
16,183500	0,5	-0,915650
16,191833	0,5	-0,923550
16,200167	0,5	-0,936750
16,208500	0,5	-0,933300
16,216833	0,5	-0,939100
16,225167	0,5	-0,935100
16,233500	0,5	-0,936500
16,241833	0,5	-0,932100
16,250167	0,5	-0,935150
16,258500	0,5	-0,931350
16,266833	0,5	-0,930700
16,275167	0,5	-0,933950
16,283500	0,5	-0,929050
16,291833	0,5	-0,929150
16,300167	0,5	-0,939950
16,308500	0,5	-0,936550
16,316833	0,5	-0,936250
16,325167	0,5	-0,936550
16,333500	0,5	-0,950750
16,341833	0,5	-0,959050
16,350167	0,5	-0,964200
16,358500	0,5	-0,961300
16,366833	0,5	-0,956650
16,375167	0,5	-0,957800
16,383500	0,5	-0,960750
16,391833	0,5	-0,964850
16,400167	0,5	-0,965400
16,408500	0,5	-0,964450
16,416833	0,5	-0,961150
16,425167	0,5	-0,966500
16,433500	0,5	-0,958800
16,441833	0,5	-0,963800
16,450167	0,5	-0,966200
16,458500	0,5	-0,966750
16,466833	0,5	-0,965150
16,475167	0,5	-0,969050
16,483500	0,5	-0,979250
16,491833	0,5	-0,992400
16,500167	0,5	-0,996350
16,508500	0,5	-0,991050
16,516833	0,5	-0,987900
16,525167	0,5	-0,989950
16,533500	0,5	-0,987850
16,541833	0,5	-0,989700
16,550167	0,5	-0,985000
16,558500	0,5	-0,982450
16,566833	0,5	-0,986350
16,575167	0,5	-0,980400
16,583500	0,5	-0,979400
16,591833	0,5	-0,987300
16,600167	0,5	-0,983150
16,608500	0,5	-0,975500
16,616833	0,5	-0,978500
16,625167	0,5	-0,978750
16,633500	0,5	-0,996600
16,641833	0,5	-0,998700
16,650167	0,5	-0,995950
16,658500	0,5	-0,994100
16,666833	0,5	-1,000750
16,675167	0,5	-1,004000
16,683500	0,5	-1,005200
16,691833	0,5	-1,008250
16,700167	0,5	-1,008700
16,708500	0,5	-1,014050
16,716833	0,5	-1,018150
16,725167	0,5	-1,020300
16,733500	0,5	-1,016850
16,741833	0,5	-1,035650
16,750167	0,5	-1,028100
16,758500	0,5	-1,025200
16,766833	0,5	-1,031550
16,775167	0,5	-1,041200
16,783500	0,5	-1,053350
16,791833	0,5	-1,053450
16,800167	0,5	-1,049550
16,808500	0,5	-1,052450
16,816833	0,5	-1,055650
16,825167	0,5	-1,058050
16,833500	0,5	-1,053700
16,841833	0,5	-1,056600
16,850167	0,5	-1,053700
16,858500	0,5	-1,051100
16,866833	0,5	-1,055750
16,875167	0,5	-1,045850
16,883500	0,5	-1,046600
16,891833	0,5	-1,055150
16,900167	0,5	-1,047650
16,908500	0,5	-1,041400
16,916833	0,5	-1,045050
16,925167	0,5	-1,047300
16,933500	0,5	-1,062750
16,941833	0,5	-1,049800
16,950167	0,5	-1,054300
16,958500	0,5	-1,051250
16,966833	0,5	-1,048900
16,975167	0,5	-1,042650
16,983500	0,5	-1,042500
16,991833	0,5	-1,040100
17,000167	0,5	-1,039650
17,008500	0,5	-1,039450
17,016833	0,5	-1,035450
17,025167	0,5	-1,028500
17,033500	0,5	-1,035500
17,041833	0,5	-1,037650
17,050167	0,5	-1,027800
17,058500	0,5	-1,026400
17,066833	0,5	-1,024700
17,075167	0,5	-1,033000
17,083500	0,5	-1,035800
17,091833	0,5	-1,029700
17,100167	0,5	-1,018200
17,108500	0,5	-1,025450
17,116833	0,5	-1,012450
17,125167	0,5	-1,014900
17,133500	0,5	-1,015050
17,141833	0,5	-1,013050
17,150167	0,5	-1,007000
17,158500	0,5	-1,007050
17,166833	0,5	-1,003850
17,175167	0,5	-0,997550
17,183500	0,5	-1,002350
17,191833	0,5	-0,991900
17,200167	0,5	-0,982050
17,208500	0,5	-0,979250
17,216833	0,5	-0,982250
17,225167	0,5	-0,993400
17,233500	0,5	-0,998750
17,241833	0,5	-0,985600
17,250167	0,5	-0,984450
17,258500	0,5	-0,975800
17,266833	0,5	-0,977650
17,275167	0,5	-0,969150
17,283500	0,5	-0,967400
17,291833	0,5	-0,961550
17,300167	0,5	-0,959200
17,308500	0,5	-0,957950
17,316833	0,5	-0,947600
17,325167	0,5	-0,944850
17,333500	0,5	-0,954700
17,341833	0,5	-0,935950
17,350167	0,5	-0,937250
17,358500	0,5	-0,932850
17,366833	0,5	-0,940550
17,375167	0,5	-0,953050
17,383500	0,5	-0,947500
17,391833	0,5	-0,938500
17,400167	0,5	-0,932450
17,408500	0,5	-0,931550
17,416833	0,5	-0,931650
17,425167	0,5	-0,926450
17,433500	0,5	-0,920000
17,441833	0,5	-0,920600
17,450167	0,5	-0,915850
17,458500	0,5	-0,912300
17,466833	0,5	-0,905350
17,475167	0,5	-0,908400
17,483500	0,5	-0,905500
17,491833	0,5	-0,898150
17,500167	0,5	-0,899200
17,508500	0,5	-0,904600
17,516833	0,5	-0,914150
17,525167	0,5	-0,913800
17,533500	0,5	-0,917600
17,541833	0,5	-0,918350
17,550167	0,5	-0,915400
17,558500	0,5	-0,909700
17,566833	0,5	-0,907550
17,575167	0,5	-0,903550
17,583500	0,5	-0,906350
17,591833	0,5	-0,901150
17,600167	0,5	-0,909100
17,608500	0,5	-0,896850
17,616833	0,5	-0,898650
17,625167	0,5	-0,910350
17,633500	0,5	-0,906150
17,641833	0,5	-0,899000
17,650167	0,5	-0,903400
17,658500	0,5	-0,908200
17,666833	0,5	-0,921200
17,675167	0,5	-0,922500
17,683500	0,5	-0,923800
17,691833	0,5	-0,925400
17,700167	0,5	-0,929550
17,708500	0,5	-0,922950
17,716833	0,5	-0,922600
17,725167	0,5	-0,925400
17,733500	0,5	-0,922800
17,741833	0,5	-0,930100
17,750167	0,5	-0,927500
17,758500	0,5	-0,921950
17,766833	0,5	-0,924750
17,775167	0,5	-0,937550
17,783500	0,5	-0,932000
17,791833	0,5	-0,932700
17,800167	0,5	-0,938750
17,808500	0,5	-0,948850
17,816833	0,5	-0,956400
17,825167	0,5	-0,952050
17,833500	0,5	-0,956400
17,841833	0,5	-0,958200
17,850167	0,5	-0,959950
17,858500	0,5	-0,962950
17,866833	0,5	-0,965850
17,875167	0,5	-0,966100
17,883500	0,5	-0,971850
17,891833	0,5	-0,968950
17,900167	0,5	-0,974450
17,908500	0,5	-0,966150
17,916833	0,5	-0,979400
17,925167	0,5	-0,976150
17,933500	0,5	-0,976650
17,941833	0,5	-0,977400
17,950167	0,5	-0,988450
17,958500	0,5	-1,000700
17,966833	0,5	-1,007350
17,975167	0,5	-1,003600
17,983500	0,5	-1,014400
17,991833	0,5	-1,014950
18,000167	0,5	-1,019300
18,008500	0,5	-1,016800
18,016833	0,5	-1,022650
18,025167	0,5	-1,023550
18,033500	0,5	-1,029750
18,041833	0,5	-1,034300
18,050167	0,5	-1,030300
18,058500	0,5	-1,028550
18,066833	0,5	-1,054800
18,075167	0,5	-1,048150
18,083500	0,5	-1,046400
18,091833	0,5	-1,052450
18,100167	0,5	-1,059500
18,108500	0,5	-1,085250
18,116833	0,5	-1,078500
18,125167	0,5	-1,082450
18,133500	0,5	-1,078750
18,141833	0,5	-1,086450
18,150167	0,5	-1,089250
18,158500	0,5	-1,099950
18,166833	0,5	-1,099450
18,175167	0,5	-1,103250
18,183500	0,5	-1,101450
18,191833	0,5	-1,109350
18,200167	0,5	-1,114000
18,208500	0,5	-1,111550
18,216833	0,5	-1,126200
18,225167	0,5	-1,114500
18,233500	0,5	-1,120700
18,241833	0,5	-1,122100
18,250167	0,5	-1,145800
18,258500	0,5	-1,158600
18,266833	0,5	-1,164500
18,275167	0,5	-1,159400
18,283500	0,5	-1,168550
18,291833	0,5	-1,167850
18,300167	0,5	-1,170950
18,308500	0,5	-1,170050
18,316833	0,5	-1,171450
18,325167	0,5	-1,176750
18,333500	0,5	-1,179000
18,341833	0,5	-1,186600
18,350167	0,5	-1,182200
18,358500	0,5	-1,189200
18,366833	0,5	-1,200800
18,375167	0,5	-1,189750
18,383500	0,5	-1,200500
18,391833	0,5	-1,207100
18,400167	0,5	-1,222150
18,408500	0,5	-1,234850
18,416833	0,5	-1,228100
18,425167	0,5	-1,231100
18,433500	0,5	-1,233800
18,441833	0,5	-1,240200
18,450167	0,5	-1,237700
18,458500	0,5	-1,241400
18,466833	0,5	-1,241500
18,475167	0,5	-1,246500
18,483500	0,5	-1,245400
18,491833	0,5	-1,243750
18,500167	0,5	-1,243300
18,508500	0,5	-1,260950
18,516833	0,5	-1,254600
18,525167	0,5	-1,256200
18,533500	0,5	-1,263450
18,541833	0,5	-1,269600
18,550167	0,5	-1,286300
18,558500	0,5	-1,288600
18,566833	0,5	-1,290800
18,575167	0,5	-1,285450
18,583500	0,5	-1,294000
18,591833	0,5	-1,288900
18,600167	0,5	-1,293700
18,608500	0,5	-1,291500
18,616833	0,5	-1,299100
18,625167	0,5	-1,297550
18,633500	0,5	-1,303000
18,641833	0,5	-1,296350
18,650167	0,5	-1,311350
18,658500	0,5	-1,312250
18,666833	0,5	-1,307800
18,675167	0,5	-1,305050
18,683500	0,5	-1,316350
18,691833	0,5	-1,331150
18,700167	0,5	-1,339800
18,708500	0,5	-1,347150
18,716833	0,5	-1,349900
18,725167	0,5	-1,351600
18,733500	0,5	-1,347100
18,741833	0,5	-1,352400
18,750167	0,5	-1,352000
18,758500	0,5	-1,358150
18,766833	0,5	-1,352950
18,775167	0,5	-1,360400
18,783500	0,5	-1,361800
18,791833	0,5	-1,362050
18,800167	0,5	-1,377650
18,808500	0,5	-1,377200
18,816833	0,5	-1,365700
18,825167	0,5	-1,368800
18,833500	0,5	-1,376700
18,841833	0,5	-1,389150
18,850167	0,5	-1,390250
18,858500	0,5	-1,389800
18,866833	0,5	-1,391000
18,875167	0,5	-1,393200
18,883500	0,5	-1,398600
18,891833	0,5	-1,398600
18,900167	0,5	-1,406000
18,908500	0,5	-1,401400
18,916833	0,5	-1,403650
18,925167	0,5	-1,402550
18,933500	0,5	-1,400450
18,941833	0,5	-1,395450
18,950167	0,5	-1,417750
18,958500	0,5	-1,405400
18,966833	0,5	-1,403950
18,975167	0,5	-1,409750
18,983500	0,5	-1,419650
18,991833	0,5	-1,444300
19,000167	0,5	-1,438150
19,008500	0,5	-1,435600
19,016833	0,5	-1,440050
19,025167	0,5	-1,441850
19,033500	0,5	-1,441800
19,041833	0,5	-1,441500
19,050167	0,5	-1,442400
19,058500	0,5	-1,443050
19,066833	0,5	-1,446400
19,075167	0,5	-1,447350
19,083500	0,5	-1,441850
19,091833	0,5	-1,446500
19,100167	0,5	-1,456550
19,108500	0,5	-1,446200
19,116833	0,5	-1,450700
19,125167	0,5	-1,460200
19,133500	0,5	-1,468000
19,141833	0,5	-1,484950
19,150167	0,5	-1,478550
19,158500	0,5	-1,482200
19,166833	0,5	-1,480050
19,175167	0,5	-1,487800
19,183500	0,5	-1,489000
19,191833	0,5	-1,487900
19,200167	0,5	-1,488800
19,208500	0,5	-1,487550
19,216833	0,5	-1,492250
19,225167	0,5	-1,486600
19,233500	0,5	-1,487750
19,241833	0,5	-1,495750
19,250167	0,5	-1,497950
19,258500	0,5	-1,495050
19,266833	0,5	-1,506750
19,275167	0,5	-1,515300
19,283500	0,5	-1,532950
19,291833	0,5	-1,541150
19,300167	0,5	-1,539500
19,308500	0,5	-1,544150
19,316833	0,5	-1,549450
19,325167	0,5	-1,548650
19,333500	0,5	-1,550600
19,341833	0,5	-1,553100
19,350167	0,5	-1,559100
19,358500	0,5	-1,564450
19,366833	0,5	-1,566950
19,375167	0,5	-1,563200
19,383500	0,5	-1,563900
19,391833	0,5	-1,580700
19,400167	0,5	-1,573450
19,408500	0,5	-1,577600
19,416833	0,5	-1,579900
19,425167	0,5	-1,594800
19,433500	0,5	-1,609400
19,441833	0,5	-1,617550
19,450167	0,5	-1,616450
19,458500	0,5	-1,627750
19,466833	0,5	-1,624300
19,475167	0,5	-1,626650
19,483500	0,5	-1,625700
19,491833	0,5	-1,628200
19,500167	0,5	-1,628750
19,508500	0,5	-1,634850
19,516833	0,5	-1,634100
19,525167	0,5	-1,623850
19,533500	0,5	-1,633100
19,541833	0,5	-1,639450
19,550167	0,5	-1,635850
19,558500	0,5	-1,640750
19,566833	0,5	-1,647550
19,575167	0,5	-1,657650
19,583500	0,5	-1,666700
19,591833	0,5	-1,665050
19,600167	0,5	-1,672200
19,608500	0,5	-1,668850
19,616833	0,5	-1,669800
19,625167	0,5	-1,668700
19,633500	0,5	-1,672850
19,641833	0,5	-1,671100
19,650167	0,5	-1,677000
19,658500	0,5	-1,675200
19,666833	0,5	-1,669900
19,675167	0,5	-1,664300
19,683500	0,5	-1,683650
19,691833	0,5	-1,675300
19,700167	0,5	-1,667950
19,708500	0,5	-1,677050
19,716833	0,5	-1,679500
19,725167	0,5	-1,700350
19,733500	0,5	-1,700400
19,741833	0,5	-1,702800
19,750167	0,5	-1,700800
19,758500	0,5	-1,705000
19,766833	0,5	-1,698750
19,775167	0,5	-1,706400
19,783500	0,5	-1,696800
19,791833	0,5	-1,704000
19,800167	0,5	-1,706500
19,808500	0,5	-1,709150
19,816833	0,5	-1,698600
19,825167	0,5	-1,708050
19,833500	0,5	-1,720750
19,841833	0,5	-1,714350
19,850167	0,5	-1,713750
19,858500	0,5	-1,723150
19,866833	0,5	-1,733300
19,875167	0,5	-1,745800
19,883500	0,5	-1,748050
19,891833	0,5	-1,740550
19,900167	0,5	-1,747100
19,908500	0,5	-1,747000
19,916833	0,5	-1,759750
19,925167	0,5	-1,754700
19,933500	0,5	-1,754900
19,941833	0,5	-1,748750
19,950167	0,5	-1,751550
19,958500	0,5	-1,749000
19,966833	0,5	-1,739350
19,975167	0,5	-1,746550
19,983500	0,5	-1,748050
19,991833	0,5	-1,740850
20,000167	0,5	-1,742600
20,008500	0,5	-1,750950
20,016833	0,5	-1,762100
20,025167	0,5	-1,764900
20,033500	0,5	-1,756900
20,041833	0,5	-1,762000
20,050167	0,5	-1,762200
20,058500	0,5	-1,761500
20,066833	0,5	-1,759500
20,075167	0,5	-1,760650
20,083500	0,5	-1,755100
20,091833	0,5	-1,757150
20,100167	0,5	-1,755850
20,108500	0,5	-1,750850
20,116833	0,5	-1,741600
20,125167	0,5	-1,754500
20,133500	0,5	-1,744750
20,141833	0,5	-1,745800
20,150167	0,5	-1,745900
20,158500	0,5	-1,756250
20,166833	0,5	-1,770600
20,175167	0,5	-1,762750
20,183500	0,5	-1,764100
20,191833	0,5	-1,761900
20,200167	0,5	-1,768700
20,208500	0,5	-1,765400
20,216833	0,5	-1,766150
20,225167	0,5	-1,760300
20,233500	0,5	-1,762050
20,241833	0,5	-1,758300
20,250167	0,5	-1,756900
20,258500	0,5	-1,743400
20,266833	0,5	-1,744000
20,275167	0,5	-1,747900
20,283500	0,5	-1,740450
20,291833	0,5	-1,744450
20,300167	0,5	-1,748000
20,308500	0,5	-1,758650
20,316833	0,5	-1,766200
20,325167	0,5	-1,765400
20,333500	0,5	-1,761300
20,341833	0,5	-1,759650
20,350167	0,5	-1,756400
20,358500	0,5	-1,755000
20,366833	0,5	-1,749200
20,375167	0,5	-1,749000
20,383500	0,5	-1,746800
20,391833	0,5	-1,748550
20,400167	0,5	-1,733700
20,408500	0,5	-1,730750
20,416833	0,5	-1,733900
20,425167	0,5	-1,740150
20,433500	0,5	-1,739600
20,441833	0,5	-1,746950
20,450167	0,5	-1,752750
20,458500	0,5	-1,767750
20,466833	0,5	-1,779350
20,475167	0,5	-1,776450
20,483500	0,5	-1,778100
20,491833	0,5	-1,771950
20,500167	0,5	-1,776000
20,508500	0,5	-1,769900
20,516833	0,5	-1,768800
20,525167	0,5	-1,769500
20,533500	0,5	-1,772750
20,541833	0,5	-1,767050
20,550167	0,5	-1,756000
20,558500	0,5	-1,748350
20,566833	0,5	-1,762100
20,575167	0,5	-1,756850
20,583500	0,5	-1,759650
20,591833	0,5	-1,768850
20,600167	0,5	-1,784000
20,608500	0,5	-1,792900
20,616833	0,5	-1,792100
20,625167	0,5	-1,792550
20,633500	0,5	-1,790650
20,641833	0,5	-1,794000
20,650167	0,5	-1,789050
20,658500	0,5	-1,794450
20,666833	0,5	-1,788200
20,675167	0,5	-1,787500
20,683500	0,5	-1,783050
20,691833	0,5	-1,776050
20,700167	0,5	-1,761800
20,708500	0,5	-1,761800
20,716833	0,5	-1,761250
20,725167	0,5	-1,761600
20,733500	0,5	-1,763100
20,741833	0,5	-1,766200
20,750167	0,5	-1,789550
20,758500	0,5	-1,789900
20,766833	0,5	-1,783100
20,775167	0,5	-1,780550
20,783500	0,5	-1,775850
20,791833	0,5	-1,773750
20,800167	0,5	-1,764150
20,808500	0,5	-1,762500
20,816833	0,5	-1,757150
20,825167	0,5	-1,751450
20,833500	0,5	-1,753450
20,841833	0,5	-1,729700
20,850167	0,5	-1,714850
20,858500	0,5	-1,720800
20,866833	0,5	-1,721650
20,875167	0,5	-1,718500
20,883500	0,5	-1,729650
20,891833	0,5	-1,731750
20,900167	0,5	-1,741750
20,908500	0,5	-1,735250
20,916833	0,5	-1,736250
20,925167	0,5	-1,729850
20,933500	0,5	-1,734750
20,941833	0,5	-1,729750
20,950167	0,5	-1,725800
20,958500	0,5	-1,721650
20,966833	0,5	-1,715900
20,975167	0,5	-1,713300
20,983500	0,5	-1,700500
20,991833	0,5	-1,682500
21,000167	0,5	-1,668500
21,008500	0,5	-1,675150
21,016833	0,5	-1,670300
21,025167	0,5	-1,675850
21,033500	0,5	-1,681100
21,041833	0,5	-1,691150
21,050167	0,5	-1,689800
21,058500	0,5	-1,680750
21,066833	0,5	-1,679050
21,075167	0,5	-1,675700
21,083500	0,5	-1,668150
21,091833	0,5	-1,663050
21,100167	0,5	-1,650600
21,108500	0,5	-1,646500
21,116833	0,5	-1,640500
21,125167	0,5	-1,630600
21,133500	0,5	-1,611750
21,141833	0,5	-1,589100
21,150167	0,5	-1,582250
21,158500	0,5	-1,581100
21,166833	0,5	-1,580050
21,175167	0,5	-1,578350
21,183500	0,5	-1,591550
21,191833	0,5	-1,595900
21,200167	0,5	-1,597150
21,208500	0,5	-1,588350
21,216833	0,5	-1,586700
21,225167	0,5	-1,576650
21,233500	0,5	-1,575100
21,241833	0,5	-1,569050
21,250167	0,5	-1,560950
21,258500	0,5	-1,557400
21,266833	0,5	-1,548550
21,275167	0,5	-1,546600
21,283500	0,5	-1,514700
21,291833	0,5	-1,499200
21,300167	0,5	-1,504600
21,308500	0,5	-1,501100
21,316833	0,5	-1,505500
21,325167	0,5	-1,508600
21,333500	0,5	-1,514100
21,341833	0,5	-1,524650
21,350167	0,5	-1,518500
21,358500	0,5	-1,516650
21,366833	0,5	-1,507950
21,375167	0,5	-1,503600
21,383500	0,5	-1,495150
21,391833	0,5	-1,486300
21,400167	0,5	-1,481700
21,408500	0,5	-1,474700
21,416833	0,5	-1,466550
21,425167	0,5	-1,440200
21,433500	0,5	-1,414700
21,441833	0,5	-1,405850
21,450167	0,5	-1,399000
21,458500	0,5	-1,389200
21,466833	0,5	-1,386100
21,475167	0,5	-1,380350
21,483500	0,5	-1,375400
21,491833	0,5	-1,356800
21,500167	0,5	-1,327850
21,508500	0,5	-1,297500
21,516833	0,5	-1,278000
21,525167	0,5	-1,265200
21,533500	0,5	-1,263600
21,541833	0,5	-1,264800
21,550167	0,5	-1,272350
21,558500	0,5	-1,274250
21,566833	0,5	-1,275500
21,575167	0,5	-1,251250
21,583500	0,5	-1,235150
21,591833	0,5	-1,234100
21,600167	0,5	-1,225800
21,608500	0,5	-1,222050
21,616833	0,5	-1,217050
21,625167	0,5	-1,224450
21,633500	0,5	-1,215150
21,641833	0,5	-1,207850
21,650167	0,5	-1,187950
21,658500	0,5	-1,178700
21,666833	0,5	-1,164100
21,675167	0,5	-1,151000
21,683500	0,5	-1,135600
21,691833	0,5	-1,113700
21,700167	0,5	-1,094250
21,708500	0,5	-1,075200
21,716833	0,5	-1,059050
21,725167	0,5	-1,021700
21,733500	0,5	-1,011150
21,741833	0,5	-1,000900
21,750167	0,5	-0,991500
21,758500	0,5	-0,982450
21,766833	0,5	-0,981900
21,775167	0,5	-0,981600
21,783500	0,5	-0,961000
21,791833	0,5	-0,940150
21,800167	0,5	-0,923650
21,808500	0,5	-0,909300
21,816833	0,5	-0,893950
21,825167	0,5	-0,880900
21,833500	0,5	-0,862300
21,841833	0,5	-0,844950
21,850167	0,5	-0,826350
21,858500	0,5	-0,816000
21,866833	0,5	-0,769600
21,875167	0,5	-0,747850
21,883500	0,5	-0,740700
21,891833	0,5	-0,722350
21,900167	0,5	-0,701300
21,908500	0,5	-0,692200
21,916833	0,5	-0,677850
21,925167	0,5	-0,670950
21,933500	0,5	-0,636800
21,941833	0,5	-0,613850
21,950167	0,5	-0,592200
21,958500	0,5	-0,569100
21,966833	0,5	-0,544950
21,975167	0,5	-0,518250
21,983500	0,5	-0,493600
21,991833	0,5	-0,463900
22,000167	0,5	-0,435950
22,008500	0,5	-0,397250
22,016833	0,5	-0,360200
22,025167	0,5	-0,337850
22,033500	0,5	-0,308550
22,041833	0,5	-0,270250
22,050167	0,5	-0,234550
22,058500	0,5	-0,202450
22,066833	0,5	-0,178600
22,075167	0,5	-0,140550
22,083500	0,5	-0,107150
22,091833	0,5	-0,075400
22,100167	0,5	-0,049250
22,108500	0,5	-0,021550
22,116833	0,5	0,004400
22,125167	0,5	0,029100
22,133500	0,5	0,051550
22,141833	0,5	0,081150
22,150167	0,5	0,112050
22,158500	0,5	0,140100
22,166833	0,5	0,181000
22,175167	0,5	0,199650
22,183500	0,5	0,257300
22,191833	0,5	0,290600
22,200167	0,5	0,323150
22,208500	0,5	0,355350
22,216833	0,5	0,388200
22,225167	0,5	0,429900
22,233500	0,5	0,474100
22,241833	0,5	0,517400
22,250167	0,5	0,558150
22,258500	0,5	0,594450
22,266833	0,5	0,634250
22,275167	0,5	0,675900
22,283500	0,5	0,714100
22,291833	0,5	0,764000
22,300167	0,5	0,802750
22,308500	0,5	0,850800
22,316833	0,5	0,890400
22,325167	0,5	0,952600
22,333500	0,5	1,013500
22,341833	0,5	1,064600
22,350167	0,5	1,115300
22,358500	0,5	1,161650
22,366833	0,5	1,203350
22,375167	0,5	1,261950
22,383500	0,5	1,316750
22,391833	0,5	1,369800
22,400167	0,5	1,423650
22,408500	0,5	1,477950
22,416833	0,5	1,534200
22,425167	0,5	1,591550
22,433500	0,5	1,650900
22,441833	0,5	1,704250
22,450167	0,5	1,749850
22,458500	0,5	1,798650
22,466833	0,5	1,869250
22,475167	0,5	1,942900
22,483500	0,5	2,004450
22,491833	0,5	2,052850
22,500167	0,5	2,105500
22,508500	0,5	2,147400
22,516833	0,5	2,204750
22,525167	0,5	2,259200
22,533500	0,5	2,313750
22,541833	0,5	2,362850
22,550167	0,5	2,410950
22,558500	0,5	2,460200
22,566833	0,5	2,501850
22,575167	0,5	2,545950
22,583500	0,5	2,578700
22,591833	0,5	2,606700
22,600167	0,5	2,605750
22,608500	0,5	2,640950
22,616833	0,5	2,681150
22,625167	0,5	2,709600
22,633500	0,5	2,718600
22,641833	0,5	2,720900
22,650167	0,5	2,706250
22,658500	0,5	2,704700
22,666833	0,5	2,694600
22,675167	0,5	2,687500
22,683500	0,5	2,663600
22,691833	0,5	2,646400
22,700167	0,5	2,617150
22,708500	0,5	2,583400
22,716833	0,5	2,543100
22,725167	0,5	2,494500
22,733500	0,5	2,445400
22,741833	0,5	2,346650
22,750167	0,5	2,272750
22,758500	0,5	2,196950
22,766833	0,5	2,140100
22,775167	0,5	2,052400
22,783500	0,5	1,954500
22,791833	0,5	1,851750
22,800167	0,5	1,737950
22,808500	0,5	1,632700
22,816833	0,5	1,527450
22,825167	0,5	1,418350
22,833500	0,5	1,308900
22,841833	0,5	1,192150
22,850167	0,5	1,080950
22,858500	0,5	0,960650
22,866833	0,5	0,846000
22,875167	0,5	0,722800
22,883500	0,5	0,597750
22,891833	0,5	0,444000
22,900167	0,5	0,322300
22,908500	0,5	0,208600
22,916833	0,5	0,073000
22,925167	0,5	-0,064150
22,933500	0,5	-0,186950
22,941833	0,5	-0,311000
22,950167	0,5	-0,426900
22,958500	0,5	-0,553050
22,966833	0,5	-0,660650
22,975167	0,5	-0,770300
22,983500	0,5	-0,868200
22,991833	0,5	-0,965050
23,000167	0,5	-1,059300
23,008500	0,5	-1,156800
23,016833	0,5	-1,250750
23,025167	0,5	-1,333100
23,033500	0,5	-1,399950
23,041833	0,5	-1,493000
23,050167	0,5	-1,573100
23,058500	0,5	-1,677350
23,066833	0,5	-1,774150
23,075167	0,5	-1,837400
23,083500	0,5	-1,899100
23,091833	0,5	-1,946400
23,100167	0,5	-2,008150
23,108500	0,5	-2,057950
23,116833	0,5	-2,095600
23,125167	0,5	-2,125000
23,133500	0,5	-2,159750
23,141833	0,5	-2,188300
23,150167	0,5	-2,220100
23,158500	0,5	-2,243150
23,166833	0,5	-2,272200
23,175167	0,5	-2,299900
23,183500	0,5	-2,311750
23,191833	0,5	-2,325300
23,200167	0,5	-2,345250
23,208500	0,5	-2,401750
23,216833	0,5	-2,431550
23,225167	0,5	-2,443950
23,233500	0,5	-2,445550
23,241833	0,5	-2,447400
23,250167	0,5	-2,449000
23,258500	0,5	-2,451050
23,266833	0,5	-2,438250
23,275167	0,5	-2,433050
23,283500	0,5	-2,409850
23,291833	0,5	-2,400800
23,300167	0,5	-2,381650
23,308500	0,5	-2,370100
23,316833	0,5	-2,350700
23,325167	0,5	-2,328650
23,333500	0,5	-2,355700
23,341833	0,5	-2,307450
23,350167	0,5	-2,290900
23,358500	0,5	-2,308800
23,366833	0,5	-2,308700
23,375167	0,5	-2,299750
23,383500	0,5	-2,284900
23,391833	0,5	-2,264200
23,400167	0,5	-2,246450
23,408500	0,5	-2,225100
23,416833	0,5	-2,207000
23,425167	0,5	-2,179400
23,433500	0,5	-2,152750
23,441833	0,5	-2,120850
23,450167	0,5	-2,099800
23,458500	0,5	-2,070950
23,466833	0,5	-2,044050
23,475167	0,5	-2,028400
23,483500	0,5	-2,045650
23,491833	0,5	-1,995900
23,500167	0,5	-1,940650
23,508500	0,5	-1,936650
23,516833	0,5	-1,927550
23,525167	0,5	-1,914650
23,533500	0,5	-1,896550
23,541833	0,5	-1,880550
23,550167	0,5	-1,862650
23,558500	0,5	-1,848250
23,566833	0,5	-1,830500
23,575167	0,5	-1,809900
23,583500	0,5	-1,791100
23,591833	0,5	-1,771050
23,600167	0,5	-1,747500
23,608500	0,5	-1,729000
23,616833	0,5	-1,706200
23,625167	0,5	-1,780450
23,633500	0,5	-1,748950
23,641833	0,5	-1,690350
23,650167	0,5	-1,638100
23,658500	0,5	-1,619700
23,666833	0,5	-1,605750
23,675167	0,5	-1,592800
23,683500	0,5	-1,579550
23,691833	0,5	-1,564800
23,700167	0,5	-1,544650
23,708500	0,5	-1,530350
23,716833	0,5	-1,512450
23,725167	0,5	-1,497850
23,733500	0,5	-1,478500
23,741833	0,5	-1,464950
23,750167	0,5	-1,447150
23,758500	0,5	-1,437550
23,766833	0,5	-1,439650
23,775167	0,5	-1,544150
23,783500	0,5	-1,498250
23,791833	0,5	-1,456650
23,800167	0,5	-1,403400
23,808500	0,5	-1,384050
23,816833	0,5	-1,371850
23,825167	0,5	-1,365650
23,833500	0,5	-1,355450
23,841833	0,5	-1,337300
23,850167	0,5	-1,319500
23,858500	0,5	-1,304250
23,866833	0,5	-1,288550
23,875167	0,5	-1,269700
23,883500	0,5	-1,251100
23,891833	0,5	-1,226800
23,900167	0,5	-1,213100
23,908500	0,5	-1,196450
23,916833	0,5	-1,288650
23,925167	0,5	-1,279850
23,933500	0,5	-1,259950
23,941833	0,5	-1,195200
23,950167	0,5	-1,157100
23,958500	0,5	-1,139050
23,966833	0,5	-1,135750
23,975167	0,5	-1,130550
23,983500	0,5	-1,125250
23,991833	0,5	-1,102700
24,000167	0,5	-1,093500
24,008500	0,5	-1,075900
24,016833	0,5	-1,061600
24,025167	0,5	-1,042250
24,033500	0,5	-1,028350
24,041833	0,5	-1,011900
24,050167	0,5	-1,001300
24,058500	0,5	-0,987250
24,066833	0,5	-1,095050
24,075167	0,5	-1,058650
24,083500	0,5	-1,025900
24,091833	0,5	-0,959000
24,100167	0,5	-0,927850
24,108500	0,5	-0,905600
24,116833	0,5	-0,891550
24,125167	0,5	-0,895100
24,133500	0,5	-0,872250
24,141833	0,5	-0,859250
24,150167	0,5	-0,837900
24,158500	0,5	-0,825100
24,166833	0,5	-0,808500
24,175167	0,5	-0,790050
24,183500	0,5	-0,773500
24,191833	0,5	-0,754650
24,200167	0,5	-0,742650
24,208500	0,5	-0,757050
24,216833	0,5	-0,839850
24,225167	0,5	-0,799250
24,233500	0,5	-0,773100
24,241833	0,5	-0,721350
24,250167	0,5	-0,701650
24,258500	0,5	-0,686850
24,266833	0,5	-0,679050
24,275167	0,5	-0,677750
24,283500	0,5	-0,663700
24,291833	0,5	-0,634850
24,300167	0,5	-0,621450
24,308500	0,5	-0,596650
24,316833	0,5	-0,584900
24,325167	0,5	-0,570800
24,333500	0,5	-0,554050
24,341833	0,5	-0,530250
24,350167	0,5	-0,519900
24,358500	0,5	-0,572450
24,366833	0,5	-0,575100
24,375167	0,5	-0,545800
24,383500	0,5	-0,513750
24,391833	0,5	-0,474150
24,400167	0,5	-0,465400
24,408500	0,5	-0,458050
24,416833	0,5	-0,460200
24,425167	0,5	-0,460650
24,433500	0,5	-0,436900
24,441833	0,5	-0,429200
24,450167	0,5	-0,415200
24,458500	0,5	-0,408850
24,466833	0,5	-0,389300
24,475167	0,5	-0,375350
24,483500	0,5	-0,357450
24,491833	0,5	-0,345900
24,500167	0,5	-0,335000
24,508500	0,5	-0,389700
24,516833	0,5	-0,369600
24,525167	0,5	-0,354400
24,533500	0,5	-0,317300
24,541833	0,5	-0,294000
24,550167	0,5	-0,277950
24,558500	0,5	-0,273650
24,566833	0,5	-0,272400
24,575167	0,5	-0,263450
24,583500	0,5	-0,252350
24,591833	0,5	-0,241200
24,600167	0,5	-0,234750
24,608500	0,5	-0,221200
24,616833	0,5	-0,211750
24,625167	0,5	-0,198300
24,633500	0,5	-0,189500
24,641833	0,5	-0,183200
24,650167	0,5	-0,188550
24,658500	0,5	-0,214950
24,666833	0,5	-0,206300
24,675167	0,5	-0,184650
24,683500	0,5	-0,166950
24,691833	0,5	-0,153300
24,700167	0,5	-0,148950
24,708500	0,5	-0,140600
24,716833	0,5	-0,140100
24,725167	0,5	-0,128850
24,733500	0,5	-0,119300
24,741833	0,5	-0,111350
24,750167	0,5	-0,097700
24,758500	0,5	-0,090250
24,766833	0,5	-0,079450
24,775167	0,5	-0,074450
24,783500	0,5	-0,065300
24,791833	0,5	-0,059100
24,800167	0,5	-0,071200
24,808500	0,5	-0,074750
24,816833	0,5	-0,065450
24,825167	0,5	-0,051700
24,833500	0,5	-0,036450
24,841833	0,5	-0,028400
24,850167	0,5	-0,026300
24,858500	0,5	-0,028600
24,866833	0,5	-0,027100
24,875167	0,5	-0,020850
24,883500	0,5	-0,016050
24,891833	0,5	-0,012700
24,900167	0,5	-0,004650
24,908500	0,5	0,002300
24,916833	0,5	0,012100
24,925167	0,5	0,019100
24,933500	0,5	0,021650
24,941833	0,5	0,027800
24,950167	0,5	0,005800
24,958500	0,5	0,020950
24,966833	0,5	0,025650
24,975167	0,5	0,039650
24,983500	0,5	0,047650
24,991833	0,5	0,052000
25,000167	0,5	0,054400
25,008500	0,5	0,050550
25,016833	0,5	0,054900
25,025167	0,5	0,061800
25,033500	0,5	0,061600
25,041833	0,5	0,066250
25,050167	0,5	0,067750
25,058500	0,5	0,069450
25,066833	0,5	0,072500
25,075167	0,5	0,077300
25,083500	0,5	0,080850
25,091833	0,5	0,079900
25,100167	0,5	0,076850
25,108500	0,5	0,083450
25,116833	0,5	0,087200
25,125167	0,5	0,096150
25,133500	0,5	0,100850
25,141833	0,5	0,102400
25,150167	0,5	0,102400
25,158500	0,5	0,101100
25,166833	0,5	0,108650
25,175167	0,5	0,109500
25,183500	0,5	0,114000
25,191833	0,5	0,113300
25,200167	0,5	0,116300
25,208500	0,5	0,119700
25,216833	0,5	0,121050
25,225167	0,5	0,124100
25,233500	0,5	0,122750
25,241833	0,5	0,121150
25,250167	0,5	0,122600
25,258500	0,5	0,125600
25,266833	0,5	0,126600
25,275167	0,5	0,125800
25,283500	0,5	0,128900
25,291833	0,5	0,131450
25,300167	0,5	0,127500
25,308500	0,5	0,129400
25,316833	0,5	0,129800
25,325167	0,5	0,131850
25,333500	0,5	0,135300
25,341833	0,5	0,138900
25,350167	0,5	0,138100
25,358500	0,5	0,141200
25,366833	0,5	0,141300
25,375167	0,5	0,144200
25,383500	0,5	0,146650
25,391833	0,5	0,145100
25,400167	0,5	0,148600
25,408500	0,5	0,152200
25,416833	0,5	0,147450
25,425167	0,5	0,148250
25,433500	0,5	0,148100
25,441833	0,5	0,146050
25,450167	0,5	0,144200
25,458500	0,5	0,147400
25,466833	0,5	0,146450
25,475167	0,5	0,146450
25,483500	0,5	0,145950
25,491833	0,5	0,144150
25,500167	0,5	0,146450
25,508500	0,5	0,151050
25,516833	0,5	0,149050
25,525167	0,5	0,150600
25,533500	0,5	0,154050
25,541833	0,5	0,154400
25,550167	0,5	0,160250
25,558500	0,5	0,160650
25,566833	0,5	0,156950
25,575167	0,5	0,156950
25,583500	0,5	0,157500
25,591833	0,5	0,159950
25,600167	0,5	0,159000
25,608500	0,5	0,158850
25,616833	0,5	0,155800
25,625167	0,5	0,152500
25,633500	0,5	0,152550
25,641833	0,5	0,149300
25,650167	0,5	0,152950
25,658500	0,5	0,151400
25,666833	0,5	0,152750
25,675167	0,5	0,152250
25,683500	0,5	0,158550
25,691833	0,5	0,156400
25,700167	0,5	0,162450
25,708500	0,5	0,155500
25,716833	0,5	0,155100
25,725167	0,5	0,155900
25,733500	0,5	0,156750
25,741833	0,5	0,158900
25,750167	0,5	0,159800
25,758500	0,5	0,157550
25,766833	0,5	0,157700
25,775167	0,5	0,162150
25,783500	0,5	0,159400
25,791833	0,5	0,159300
25,800167	0,5	0,157200
25,808500	0,5	0,158500
25,816833	0,5	0,156300
25,825167	0,5	0,154700
25,833500	0,5	0,157000
25,841833	0,5	0,156600
25,850167	0,5	0,160400
25,858500	0,5	0,155850
25,866833	0,5	0,157500
25,875167	0,5	0,156450
25,883500	0,5	0,159350
25,891833	0,5	0,168400
25,900167	0,5	0,168200
25,908500	0,5	0,167500
25,916833	0,5	0,169350
25,925167	0,5	0,171200
25,933500	0,5	0,170500
25,941833	0,5	0,170600
25,950167	0,5	0,171250
25,958500	0,5	0,170500
25,966833	0,5	0,172050
25,975167	0,5	0,170500
25,983500	0,5	0,177750
25,991833	0,5	0,169700
26,000167	0,5	0,180800
