File Path	chrom://chromeleon01/ikbm_chromeleon/2022/ICS-5000/ED1/Esteban/20220612_Cell_7_4_eg.seq/522.smp/ED_1.channel/ED_1.chm
Channel	ED_1

Injection Information:
Data Vault	ikbm_chromeleon
Injection	Std_C1ox-0.005_2
Injection Number	72
Position	RA3
Comment	
Processing Method	Stop sequence after Cell Death
Instrument Method	ICS5000_PA200_FullNative_Ox_26min_ED1
Type	Unknown
Status	Finished
Injection Date	14.06.2022
Injection Time	01:53:21
Injection Volume (µl)	5,0
Dilution Factor	1,0000
Weight	1,0000

Chromatogram Data Information:
Time Min. (min)	0,000167
Time Max. (min)	26,000167
Data Points	3121
Detector	EDet1
Generating Data System	Chromeleon 7.2.9.11323
Exporting Data System	Chromeleon 7.2.9.0
Operator	Instrument Controller
Signal Quantity	
Signal Unit	nC
Signal Min.	-2,426350
Signal Max.	27,003600
Channel	ED_1
Driver Name	DC-5000
Channel Type	Evaluation
Min. Step (s)	0,5
Max. Step (s)	0,5
Average Step (s)	0,5

Signal Parameter Information:
Signal Info	

Chromatogram Data:
Time (min)	Step (s)	Value (nC)
0,000167	n.a.	-0,041850
0,008500	0,5	-0,037550
0,016833	0,5	-0,033150
0,025167	0,5	-0,023300
0,033500	0,5	-0,014250
0,041833	0,5	-0,009950
0,050167	0,5	-0,012400
0,058500	0,5	-0,011250
0,066833	0,5	-0,019850
0,075167	0,5	-0,007800
0,083500	0,5	-0,003650
0,091833	0,5	-0,008550
0,100167	0,5	-0,013050
0,108500	0,5	-0,000050
0,116833	0,5	-0,032100
0,125167	0,5	-0,028950
0,133500	0,5	-0,027400
0,141833	0,5	-0,010500
0,150167	0,5	0,003100
0,158500	0,5	-0,000300
0,166833	0,5	-0,006000
0,175167	0,5	-0,001050
0,183500	0,5	-0,007550
0,191833	0,5	-0,006000
0,200167	0,5	-0,014000
0,208500	0,5	-0,021000
0,216833	0,5	-0,017700
0,225167	0,5	-0,027400
0,233500	0,5	-0,028150
0,241833	0,5	-0,039800
0,250167	0,5	-0,019350
0,258500	0,5	-0,029600
0,266833	0,5	-0,049000
0,275167	0,5	-0,050800
0,283500	0,5	-0,039600
0,291833	0,5	-0,015050
0,300167	0,5	0,005000
0,308500	0,5	-0,016300
0,316833	0,5	-0,025400
0,325167	0,5	-0,035250
0,333500	0,5	-0,028350
0,341833	0,5	-0,038400
0,350167	0,5	-0,037900
0,358500	0,5	-0,046850
0,366833	0,5	-0,047950
0,375167	0,5	-0,046200
0,383500	0,5	-0,063800
0,391833	0,5	-0,067200
0,400167	0,5	-0,051400
0,408500	0,5	-0,064050
0,416833	0,5	-0,072900
0,425167	0,5	-0,066950
0,433500	0,5	-0,058750
0,441833	0,5	-0,033900
0,450167	0,5	-0,035850
0,458500	0,5	-0,034300
0,466833	0,5	-0,046400
0,475167	0,5	-0,046150
0,483500	0,5	-0,054800
0,491833	0,5	-0,046050
0,500167	0,5	-0,057600
0,508500	0,5	-0,058600
0,516833	0,5	-0,063950
0,525167	0,5	-0,065100
0,533500	0,5	-0,075850
0,541833	0,5	-0,066650
0,550167	0,5	-0,064900
0,558500	0,5	-0,079650
0,566833	0,5	-0,084000
0,575167	0,5	-0,078800
0,583500	0,5	-0,059050
0,591833	0,5	-0,045200
0,600167	0,5	-0,038250
0,608500	0,5	-0,048450
0,616833	0,5	-0,048800
0,625167	0,5	-0,051250
0,633500	0,5	-0,051850
0,641833	0,5	-0,065350
0,650167	0,5	-0,060200
0,658500	0,5	-0,064750
0,666833	0,5	-0,058050
0,675167	0,5	-0,064900
0,683500	0,5	-0,070100
0,691833	0,5	-0,050100
0,700167	0,5	-0,056700
0,708500	0,5	-0,075150
0,716833	0,5	-0,071200
0,725167	0,5	-0,067350
0,733500	0,5	-0,044950
0,741833	0,5	-0,036800
0,750167	0,5	-0,046000
0,758500	0,5	-0,048500
0,766833	0,5	-0,049400
0,775167	0,5	-0,047850
0,783500	0,5	-0,052150
0,791833	0,5	-0,048350
0,800167	0,5	-0,058650
0,808500	0,5	-0,051250
0,816833	0,5	-0,055450
0,825167	0,5	-0,053650
0,833500	0,5	-0,067700
0,841833	0,5	-0,029100
0,850167	0,5	-0,056350
0,858500	0,5	-0,063400
0,866833	0,5	-0,063650
0,875167	0,5	-0,055700
0,883500	0,5	-0,026600
0,891833	0,5	-0,030600
0,900167	0,5	-0,040550
0,908500	0,5	-0,025500
0,916833	0,5	-0,028200
0,925167	0,5	-0,028300
0,933500	0,5	-0,029850
0,941833	0,5	-0,037700
0,950167	0,5	-0,038050
0,958500	0,5	-0,040300
0,966833	0,5	-0,037200
0,975167	0,5	-0,051100
0,983500	0,5	-0,051700
0,991833	0,5	-0,026100
1,000167	0,5	-0,050600
1,008500	0,5	-0,053300
1,016833	0,5	-0,043650
1,025167	0,5	-0,038950
1,033500	0,5	-0,009900
1,041833	0,5	-0,026650
1,050167	0,5	-0,021450
1,058500	0,5	-0,026200
1,066833	0,5	-0,020100
1,075167	0,5	-0,017300
1,083500	0,5	-0,018050
1,091833	0,5	-0,022050
1,100167	0,5	-0,023650
1,108500	0,5	-0,022200
1,116833	0,5	-0,021550
1,125167	0,5	-0,028950
1,133500	0,5	-0,028950
1,141833	0,5	-0,013050
1,150167	0,5	-0,033950
1,158500	0,5	-0,027750
1,166833	0,5	-0,027400
1,175167	0,5	-0,009800
1,183500	0,5	0,003400
1,191833	0,5	-0,002250
1,200167	0,5	-0,008550
1,208500	0,5	0,000950
1,216833	0,5	-0,005300
1,225167	0,5	0,000950
1,233500	0,5	-0,005650
1,241833	0,5	-0,004450
1,250167	0,5	-0,010850
1,258500	0,5	-0,005000
1,266833	0,5	-0,002600
1,275167	0,5	-0,007850
1,283500	0,5	0,002300
1,291833	0,5	-0,004150
1,300167	0,5	-0,019000
1,308500	0,5	-0,019350
1,316833	0,5	-0,011300
1,325167	0,5	0,010050
1,333500	0,5	0,025250
1,341833	0,5	0,014150
1,350167	0,5	0,019050
1,358500	0,5	0,008300
1,366833	0,5	0,010050
1,375167	0,5	0,000050
1,383500	0,5	0,001850
1,391833	0,5	-0,003950
1,400167	0,5	0,000650
1,408500	0,5	-0,003050
1,416833	0,5	-0,013100
1,425167	0,5	-0,016800
1,433500	0,5	-0,002150
1,441833	0,5	-0,022050
1,450167	0,5	-0,031700
1,458500	0,5	-0,028700
1,466833	0,5	-0,013900
1,475167	0,5	-0,004400
1,483500	0,5	0,000200
1,491833	0,5	-0,002150
1,500167	0,5	-0,012750
1,508500	0,5	-0,015500
1,516833	0,5	-0,021800
1,525167	0,5	-0,023650
1,533500	0,5	-0,037250
1,541833	0,5	-0,045850
1,550167	0,5	-0,087950
1,558500	0,5	-0,229750
1,566833	0,5	-0,632750
1,575167	0,5	-1,278850
1,583500	0,5	-1,824750
1,591833	0,5	-1,795950
1,600167	0,5	-1,068850
1,608500	0,5	0,080900
1,616833	0,5	1,426650
1,625167	0,5	2,689500
1,633500	0,5	3,521450
1,641833	0,5	3,757650
1,650167	0,5	3,550350
1,658500	0,5	3,203300
1,666833	0,5	2,897050
1,675167	0,5	2,687250
1,683500	0,5	2,557300
1,691833	0,5	2,464300
1,700167	0,5	2,398900
1,708500	0,5	2,336600
1,716833	0,5	2,288600
1,725167	0,5	2,273350
1,733500	0,5	2,267500
1,741833	0,5	2,250200
1,750167	0,5	2,232400
1,758500	0,5	2,227700
1,766833	0,5	2,354500
1,775167	0,5	2,615950
1,783500	0,5	2,969850
1,791833	0,5	3,279800
1,800167	0,5	3,472600
1,808500	0,5	3,510700
1,816833	0,5	3,450100
1,825167	0,5	3,305450
1,833500	0,5	3,105850
1,841833	0,5	2,889600
1,850167	0,5	2,666750
1,858500	0,5	2,465400
1,866833	0,5	2,268100
1,875167	0,5	2,126800
1,883500	0,5	1,951200
1,891833	0,5	1,809350
1,900167	0,5	1,695100
1,908500	0,5	1,610650
1,916833	0,5	1,556500
1,925167	0,5	1,486600
1,933500	0,5	1,411500
1,941833	0,5	1,364250
1,950167	0,5	1,313050
1,958500	0,5	1,278200
1,966833	0,5	1,257700
1,975167	0,5	1,326800
1,983500	0,5	1,548450
1,991833	0,5	1,955300
2,000167	0,5	2,636600
2,008500	0,5	3,937850
2,016833	0,5	6,495250
2,025167	0,5	10,085350
2,033500	0,5	12,766900
2,041833	0,5	12,972150
2,050167	0,5	11,127550
2,058500	0,5	8,713800
2,066833	0,5	6,711750
2,075167	0,5	5,278850
2,083500	0,5	4,363000
2,091833	0,5	3,764550
2,100167	0,5	3,344850
2,108500	0,5	3,003650
2,116833	0,5	2,739450
2,125167	0,5	2,538700
2,133500	0,5	2,405400
2,141833	0,5	2,327200
2,150167	0,5	2,285650
2,158500	0,5	2,264450
2,166833	0,5	2,279650
2,175167	0,5	2,314500
2,183500	0,5	2,329800
2,191833	0,5	2,362550
2,200167	0,5	2,393800
2,208500	0,5	2,431300
2,216833	0,5	2,488150
2,225167	0,5	2,539650
2,233500	0,5	2,592450
2,241833	0,5	2,660050
2,250167	0,5	2,725750
2,258500	0,5	2,802050
2,266833	0,5	2,872350
2,275167	0,5	2,950650
2,283500	0,5	3,031800
2,291833	0,5	3,118650
2,300167	0,5	3,198900
2,308500	0,5	3,287550
2,316833	0,5	3,383500
2,325167	0,5	3,466450
2,333500	0,5	3,532700
2,341833	0,5	3,615700
2,350167	0,5	3,701600
2,358500	0,5	3,800950
2,366833	0,5	3,897250
2,375167	0,5	3,965750
2,383500	0,5	4,041700
2,391833	0,5	4,116400
2,400167	0,5	4,186900
2,408500	0,5	4,246100
2,416833	0,5	4,310650
2,425167	0,5	4,369300
2,433500	0,5	4,435150
2,441833	0,5	4,488800
2,450167	0,5	4,539600
2,458500	0,5	4,581450
2,466833	0,5	4,634950
2,475167	0,5	4,659000
2,483500	0,5	4,686600
2,491833	0,5	4,715950
2,500167	0,5	4,755500
2,508500	0,5	4,790700
2,516833	0,5	4,812450
2,525167	0,5	4,824450
2,533500	0,5	4,835650
2,541833	0,5	4,842950
2,550167	0,5	4,848750
2,558500	0,5	4,850600
2,566833	0,5	4,845050
2,575167	0,5	4,833350
2,583500	0,5	4,820300
2,591833	0,5	4,809150
2,600167	0,5	4,780850
2,608500	0,5	4,775700
2,616833	0,5	4,763000
2,625167	0,5	4,733450
2,633500	0,5	4,720400
2,641833	0,5	4,730450
2,650167	0,5	4,769450
2,658500	0,5	4,834050
2,666833	0,5	4,905750
2,675167	0,5	4,982350
2,683500	0,5	5,007450
2,691833	0,5	4,997600
2,700167	0,5	4,957150
2,708500	0,5	4,954850
2,716833	0,5	5,064500
2,725167	0,5	5,366000
2,733500	0,5	5,894300
2,741833	0,5	6,550500
2,750167	0,5	7,134000
2,758500	0,5	7,417800
2,766833	0,5	7,229950
2,775167	0,5	6,664750
2,783500	0,5	5,941400
2,791833	0,5	5,251600
2,800167	0,5	4,713250
2,808500	0,5	4,298850
2,816833	0,5	3,999300
2,825167	0,5	3,767850
2,833500	0,5	3,601250
2,841833	0,5	3,454450
2,850167	0,5	3,339750
2,858500	0,5	3,225000
2,866833	0,5	3,126050
2,875167	0,5	3,034800
2,883500	0,5	2,948000
2,891833	0,5	2,872750
2,900167	0,5	2,780850
2,908500	0,5	2,718650
2,916833	0,5	2,625750
2,925167	0,5	2,542450
2,933500	0,5	2,466100
2,941833	0,5	2,398900
2,950167	0,5	2,334550
2,958500	0,5	2,264200
2,966833	0,5	2,180650
2,975167	0,5	2,112100
2,983500	0,5	2,037400
2,991833	0,5	1,970400
3,000167	0,5	1,896100
3,008500	0,5	1,832250
3,016833	0,5	1,760000
3,025167	0,5	1,699500
3,033500	0,5	1,645550
3,041833	0,5	1,589050
3,050167	0,5	1,527850
3,058500	0,5	1,486000
3,066833	0,5	1,411950
3,075167	0,5	1,356250
3,083500	0,5	1,291850
3,091833	0,5	1,236500
3,100167	0,5	1,192900
3,108500	0,5	1,122600
3,116833	0,5	1,069000
3,125167	0,5	1,012350
3,133500	0,5	0,962700
3,141833	0,5	0,907550
3,150167	0,5	0,864900
3,158500	0,5	0,812450
3,166833	0,5	0,768600
3,175167	0,5	0,723000
3,183500	0,5	0,683050
3,191833	0,5	0,634100
3,200167	0,5	0,598450
3,208500	0,5	0,564200
3,216833	0,5	0,514050
3,225167	0,5	0,476500
3,233500	0,5	0,450450
3,241833	0,5	0,425700
3,250167	0,5	0,408100
3,258500	0,5	0,372550
3,266833	0,5	0,339800
3,275167	0,5	0,311950
3,283500	0,5	0,281800
3,291833	0,5	0,250900
3,300167	0,5	0,216400
3,308500	0,5	0,186650
3,316833	0,5	0,154100
3,325167	0,5	0,131500
3,333500	0,5	0,105650
3,341833	0,5	0,080100
3,350167	0,5	0,059750
3,358500	0,5	0,038200
3,366833	0,5	0,001600
3,375167	0,5	-0,013850
3,383500	0,5	-0,026450
3,391833	0,5	-0,029800
3,400167	0,5	-0,022700
3,408500	0,5	-0,032700
3,416833	0,5	-0,049000
3,425167	0,5	-0,062950
3,433500	0,5	-0,082700
3,441833	0,5	-0,105750
3,450167	0,5	-0,129550
3,458500	0,5	-0,147650
3,466833	0,5	-0,170650
3,475167	0,5	-0,193650
3,483500	0,5	-0,203400
3,491833	0,5	-0,218800
3,500167	0,5	-0,221950
3,508500	0,5	-0,249600
3,516833	0,5	-0,267300
3,525167	0,5	-0,274550
3,533500	0,5	-0,273800
3,541833	0,5	-0,266700
3,550167	0,5	-0,253550
3,558500	0,5	-0,248750
3,566833	0,5	-0,231250
3,575167	0,5	-0,212250
3,583500	0,5	-0,189300
3,591833	0,5	-0,178600
3,600167	0,5	-0,176350
3,608500	0,5	-0,188800
3,616833	0,5	-0,208950
3,625167	0,5	-0,231800
3,633500	0,5	-0,264250
3,641833	0,5	-0,285300
3,650167	0,5	-0,306050
3,658500	0,5	-0,336150
3,666833	0,5	-0,365000
3,675167	0,5	-0,380850
3,683500	0,5	-0,386050
3,691833	0,5	-0,382600
3,700167	0,5	-0,397750
3,708500	0,5	-0,396500
3,716833	0,5	-0,410150
3,725167	0,5	-0,408150
3,733500	0,5	-0,418650
3,741833	0,5	-0,415150
3,750167	0,5	-0,424000
3,758500	0,5	-0,423250
3,766833	0,5	-0,423650
3,775167	0,5	-0,424800
3,783500	0,5	-0,431150
3,791833	0,5	-0,413550
3,800167	0,5	-0,420450
3,808500	0,5	-0,433350
3,816833	0,5	-0,441200
3,825167	0,5	-0,445050
3,833500	0,5	-0,434250
3,841833	0,5	-0,442150
3,850167	0,5	-0,451500
3,858500	0,5	-0,466600
3,866833	0,5	-0,472300
3,875167	0,5	-0,477600
3,883500	0,5	-0,476800
3,891833	0,5	-0,484600
3,900167	0,5	-0,487150
3,908500	0,5	-0,491250
3,916833	0,5	-0,486600
3,925167	0,5	-0,487300
3,933500	0,5	-0,494500
3,941833	0,5	-0,481800
3,950167	0,5	-0,497400
3,958500	0,5	-0,503300
3,966833	0,5	-0,502850
3,975167	0,5	-0,495400
3,983500	0,5	-0,473400
3,991833	0,5	-0,473600
4,000167	0,5	-0,463500
4,008500	0,5	-0,447500
4,016833	0,5	-0,432350
4,025167	0,5	-0,410950
4,033500	0,5	-0,392400
4,041833	0,5	-0,363400
4,050167	0,5	-0,345000
4,058500	0,5	-0,315850
4,066833	0,5	-0,292400
4,075167	0,5	-0,266000
4,083500	0,5	-0,240600
4,091833	0,5	-0,176300
4,100167	0,5	-0,139300
4,108500	0,5	-0,053300
4,116833	0,5	0,052750
4,125167	0,5	0,197750
4,133500	0,5	0,365200
4,141833	0,5	0,519500
4,150167	0,5	0,659200
4,158500	0,5	0,779300
4,166833	0,5	0,850450
4,175167	0,5	0,859200
4,183500	0,5	0,809550
4,191833	0,5	0,702200
4,200167	0,5	0,573550
4,208500	0,5	0,424850
4,216833	0,5	0,281900
4,225167	0,5	0,147800
4,233500	0,5	0,051050
4,241833	0,5	-0,015000
4,250167	0,5	-0,073550
4,258500	0,5	-0,096100
4,266833	0,5	-0,102200
4,275167	0,5	-0,093000
4,283500	0,5	-0,055200
4,291833	0,5	-0,020400
4,300167	0,5	0,046800
4,308500	0,5	0,143400
4,316833	0,5	0,285050
4,325167	0,5	0,457600
4,333500	0,5	0,661850
4,341833	0,5	0,883950
4,350167	0,5	1,094600
4,358500	0,5	1,271650
4,366833	0,5	1,381650
4,375167	0,5	1,412950
4,383500	0,5	1,372650
4,391833	0,5	1,240300
4,400167	0,5	1,046300
4,408500	0,5	0,838800
4,416833	0,5	0,618900
4,425167	0,5	0,433150
4,433500	0,5	0,261250
4,441833	0,5	0,121450
4,450167	0,5	0,003000
4,458500	0,5	-0,079200
4,466833	0,5	-0,150250
4,475167	0,5	-0,198800
4,483500	0,5	-0,234050
4,491833	0,5	-0,257400
4,500167	0,5	-0,278150
4,508500	0,5	-0,292950
4,516833	0,5	-0,304450
4,525167	0,5	-0,312700
4,533500	0,5	-0,311350
4,541833	0,5	-0,328500
4,550167	0,5	-0,339750
4,558500	0,5	-0,342000
4,566833	0,5	-0,337550
4,575167	0,5	-0,324650
4,583500	0,5	-0,321100
4,591833	0,5	-0,330100
4,600167	0,5	-0,325100
4,608500	0,5	-0,328900
4,616833	0,5	-0,327050
4,625167	0,5	-0,329800
4,633500	0,5	-0,328000
4,641833	0,5	-0,330350
4,650167	0,5	-0,323850
4,658500	0,5	-0,318800
4,666833	0,5	-0,315850
4,675167	0,5	-0,306600
4,683500	0,5	-0,295600
4,691833	0,5	-0,299050
4,700167	0,5	-0,296000
4,708500	0,5	-0,281600
4,716833	0,5	-0,261600
4,725167	0,5	-0,237200
4,733500	0,5	-0,217500
4,741833	0,5	-0,191400
4,750167	0,5	-0,166500
4,758500	0,5	-0,137950
4,766833	0,5	-0,107300
4,775167	0,5	-0,061550
4,783500	0,5	-0,024800
4,791833	0,5	0,029250
4,800167	0,5	0,092300
4,808500	0,5	0,182950
4,816833	0,5	0,288200
4,825167	0,5	0,466300
4,833500	0,5	0,680100
4,841833	0,5	0,972700
4,850167	0,5	1,354150
4,858500	0,5	1,839400
4,866833	0,5	2,400100
4,875167	0,5	2,977800
4,883500	0,5	3,518100
4,891833	0,5	3,970300
4,900167	0,5	4,264450
4,908500	0,5	4,364250
4,916833	0,5	4,262900
4,925167	0,5	3,981300
4,933500	0,5	3,572450
4,941833	0,5	3,088550
4,950167	0,5	2,585750
4,958500	0,5	2,095200
4,966833	0,5	1,655700
4,975167	0,5	1,298900
4,983500	0,5	0,989850
4,991833	0,5	0,737300
5,000167	0,5	0,550150
5,008500	0,5	0,405400
5,016833	0,5	0,308900
5,025167	0,5	0,220050
5,033500	0,5	0,153200
5,041833	0,5	0,099700
5,050167	0,5	0,063400
5,058500	0,5	0,028600
5,066833	0,5	0,010500
5,075167	0,5	-0,006200
5,083500	0,5	-0,018250
5,091833	0,5	-0,015000
5,100167	0,5	-0,012000
5,108500	0,5	-0,002200
5,116833	0,5	0,000450
5,125167	0,5	0,017100
5,133500	0,5	-0,005850
5,141833	0,5	-0,010900
5,150167	0,5	-0,028150
5,158500	0,5	-0,036200
5,166833	0,5	-0,041300
5,175167	0,5	-0,063050
5,183500	0,5	-0,089500
5,191833	0,5	-0,106300
5,200167	0,5	-0,126000
5,208500	0,5	-0,138750
5,216833	0,5	-0,156800
5,225167	0,5	-0,166950
5,233500	0,5	-0,176950
5,241833	0,5	-0,185100
5,250167	0,5	-0,185900
5,258500	0,5	-0,197750
5,266833	0,5	-0,200550
5,275167	0,5	-0,197550
5,283500	0,5	-0,208100
5,291833	0,5	-0,210000
5,300167	0,5	-0,204350
5,308500	0,5	-0,201450
5,316833	0,5	-0,191600
5,325167	0,5	-0,200800
5,333500	0,5	-0,199000
5,341833	0,5	-0,205100
5,350167	0,5	-0,204000
5,358500	0,5	-0,210950
5,366833	0,5	-0,212850
5,375167	0,5	-0,218650
5,383500	0,5	-0,223750
5,391833	0,5	-0,229950
5,400167	0,5	-0,239450
5,408500	0,5	-0,247700
5,416833	0,5	-0,244400
5,425167	0,5	-0,252500
5,433500	0,5	-0,266300
5,441833	0,5	-0,268550
5,450167	0,5	-0,272300
5,458500	0,5	-0,260750
5,466833	0,5	-0,253500
5,475167	0,5	-0,257500
5,483500	0,5	-0,259850
5,491833	0,5	-0,264900
5,500167	0,5	-0,271550
5,508500	0,5	-0,274000
5,516833	0,5	-0,283300
5,525167	0,5	-0,287000
5,533500	0,5	-0,292600
5,541833	0,5	-0,294750
5,550167	0,5	-0,302050
5,558500	0,5	-0,301250
5,566833	0,5	-0,302700
5,575167	0,5	-0,311800
5,583500	0,5	-0,324000
5,591833	0,5	-0,325550
5,600167	0,5	-0,326600
5,608500	0,5	-0,321550
5,616833	0,5	-0,320500
5,625167	0,5	-0,326650
5,633500	0,5	-0,327800
5,641833	0,5	-0,333850
5,650167	0,5	-0,336700
5,658500	0,5	-0,341800
5,666833	0,5	-0,346650
5,675167	0,5	-0,351900
5,683500	0,5	-0,351800
5,691833	0,5	-0,356350
5,700167	0,5	-0,362200
5,708500	0,5	-0,362250
5,716833	0,5	-0,361100
5,725167	0,5	-0,374250
5,733500	0,5	-0,383050
5,741833	0,5	-0,386750
5,750167	0,5	-0,386050
5,758500	0,5	-0,383800
5,766833	0,5	-0,392400
5,775167	0,5	-0,397150
5,783500	0,5	-0,401600
5,791833	0,5	-0,406150
5,800167	0,5	-0,410850
5,808500	0,5	-0,419600
5,816833	0,5	-0,422250
5,825167	0,5	-0,431250
5,833500	0,5	-0,435800
5,841833	0,5	-0,437150
5,850167	0,5	-0,448450
5,858500	0,5	-0,444800
5,866833	0,5	-0,453650
5,875167	0,5	-0,457850
5,883500	0,5	-0,466750
5,891833	0,5	-0,462350
5,900167	0,5	-0,457150
5,908500	0,5	-0,454850
5,916833	0,5	-0,463400
5,925167	0,5	-0,463100
5,933500	0,5	-0,469750
5,941833	0,5	-0,470950
5,950167	0,5	-0,474900
5,958500	0,5	-0,476900
5,966833	0,5	-0,482750
5,975167	0,5	-0,487900
5,983500	0,5	-0,486100
5,991833	0,5	-0,493100
6,000167	0,5	-0,499850
6,008500	0,5	-0,495600
6,016833	0,5	-0,502650
6,025167	0,5	-0,510100
6,033500	0,5	-0,514000
6,041833	0,5	-0,512150
6,050167	0,5	-0,500600
6,058500	0,5	-0,502400
6,066833	0,5	-0,504000
6,075167	0,5	-0,504700
6,083500	0,5	-0,504900
6,091833	0,5	-0,508750
6,100167	0,5	-0,507950
6,108500	0,5	-0,509650
6,116833	0,5	-0,513550
6,125167	0,5	-0,515500
6,133500	0,5	-0,512550
6,141833	0,5	-0,512200
6,150167	0,5	-0,519350
6,158500	0,5	-0,509550
6,166833	0,5	-0,518950
6,175167	0,5	-0,522750
6,183500	0,5	-0,525800
6,191833	0,5	-0,519350
6,200167	0,5	-0,508450
6,208500	0,5	-0,505300
6,216833	0,5	-0,507150
6,225167	0,5	-0,502100
6,233500	0,5	-0,498750
6,241833	0,5	-0,484500
6,250167	0,5	-0,476400
6,258500	0,5	-0,461450
6,266833	0,5	-0,448400
6,275167	0,5	-0,429150
6,283500	0,5	-0,409550
6,291833	0,5	-0,397150
6,300167	0,5	-0,383250
6,308500	0,5	-0,369400
6,316833	0,5	-0,375350
6,325167	0,5	-0,377300
6,333500	0,5	-0,381350
6,341833	0,5	-0,380550
6,350167	0,5	-0,384750
6,358500	0,5	-0,397400
6,366833	0,5	-0,412700
6,375167	0,5	-0,422100
6,383500	0,5	-0,430550
6,391833	0,5	-0,445900
6,400167	0,5	-0,450900
6,408500	0,5	-0,462450
6,416833	0,5	-0,462900
6,425167	0,5	-0,465750
6,433500	0,5	-0,469800
6,441833	0,5	-0,472600
6,450167	0,5	-0,466050
6,458500	0,5	-0,467900
6,466833	0,5	-0,466500
6,475167	0,5	-0,468550
6,483500	0,5	-0,459200
6,491833	0,5	-0,445600
6,500167	0,5	-0,426700
6,508500	0,5	-0,411450
6,516833	0,5	-0,399000
6,525167	0,5	-0,385700
6,533500	0,5	-0,371800
6,541833	0,5	-0,357050
6,550167	0,5	-0,346100
6,558500	0,5	-0,335750
6,566833	0,5	-0,325200
6,575167	0,5	-0,319700
6,583500	0,5	-0,318200
6,591833	0,5	-0,315000
6,600167	0,5	-0,308600
6,608500	0,5	-0,315700
6,616833	0,5	-0,322300
6,625167	0,5	-0,321400
6,633500	0,5	-0,319600
6,641833	0,5	-0,311250
6,650167	0,5	-0,313950
6,658500	0,5	-0,317550
6,666833	0,5	-0,321200
6,675167	0,5	-0,324400
6,683500	0,5	-0,328400
6,691833	0,5	-0,333750
6,700167	0,5	-0,334400
6,708500	0,5	-0,338150
6,716833	0,5	-0,333850
6,725167	0,5	-0,336050
6,733500	0,5	-0,332850
6,741833	0,5	-0,333200
6,750167	0,5	-0,327450
6,758500	0,5	-0,337100
6,766833	0,5	-0,331850
6,775167	0,5	-0,332850
6,783500	0,5	-0,324000
6,791833	0,5	-0,316850
6,800167	0,5	-0,315500
6,808500	0,5	-0,313050
6,816833	0,5	-0,310300
6,825167	0,5	-0,308100
6,833500	0,5	-0,302000
6,841833	0,5	-0,301500
6,850167	0,5	-0,301850
6,858500	0,5	-0,302200
6,866833	0,5	-0,299800
6,875167	0,5	-0,297450
6,883500	0,5	-0,303100
6,891833	0,5	-0,293050
6,900167	0,5	-0,293050
6,908500	0,5	-0,295650
6,916833	0,5	-0,297350
6,925167	0,5	-0,293250
6,933500	0,5	-0,284150
6,941833	0,5	-0,278000
6,950167	0,5	-0,282900
6,958500	0,5	-0,277550
6,966833	0,5	-0,275650
6,975167	0,5	-0,274600
6,983500	0,5	-0,275700
6,991833	0,5	-0,272450
7,000167	0,5	-0,268900
7,008500	0,5	-0,266800
7,016833	0,5	-0,261400
7,025167	0,5	-0,256800
7,033500	0,5	-0,260900
7,041833	0,5	-0,246450
7,050167	0,5	-0,249700
7,058500	0,5	-0,246300
7,066833	0,5	-0,245050
7,075167	0,5	-0,233250
7,083500	0,5	-0,210750
7,091833	0,5	-0,189050
7,100167	0,5	-0,157900
7,108500	0,5	-0,109450
7,116833	0,5	-0,043050
7,125167	0,5	0,029300
7,133500	0,5	0,123100
7,141833	0,5	0,227600
7,150167	0,5	0,340800
7,158500	0,5	0,465100
7,166833	0,5	0,603300
7,175167	0,5	0,757800
7,183500	0,5	0,945500
7,191833	0,5	1,202350
7,200167	0,5	1,556750
7,208500	0,5	2,113400
7,216833	0,5	2,972400
7,225167	0,5	4,280150
7,233500	0,5	6,137800
7,241833	0,5	8,565450
7,250167	0,5	11,400000
7,258500	0,5	14,305250
7,266833	0,5	16,787650
7,275167	0,5	18,354350
7,283500	0,5	18,677900
7,291833	0,5	17,717250
7,300167	0,5	15,702200
7,308500	0,5	13,068950
7,316833	0,5	10,271450
7,325167	0,5	7,682650
7,333500	0,5	5,517750
7,341833	0,5	3,856900
7,350167	0,5	2,649400
7,358500	0,5	1,826400
7,366833	0,5	1,278700
7,375167	0,5	0,921350
7,383500	0,5	0,687000
7,391833	0,5	0,526250
7,400167	0,5	0,411700
7,408500	0,5	0,331050
7,416833	0,5	0,269600
7,425167	0,5	0,224950
7,433500	0,5	0,186050
7,441833	0,5	0,154000
7,450167	0,5	0,126750
7,458500	0,5	0,107650
7,466833	0,5	0,092100
7,475167	0,5	0,072650
7,483500	0,5	0,064200
7,491833	0,5	0,051300
7,500167	0,5	0,037500
7,508500	0,5	0,024150
7,516833	0,5	0,014550
7,525167	0,5	0,011050
7,533500	0,5	0,004750
7,541833	0,5	-0,003000
7,550167	0,5	-0,008300
7,558500	0,5	-0,021150
7,566833	0,5	-0,031200
7,575167	0,5	-0,043550
7,583500	0,5	-0,051950
7,591833	0,5	-0,062000
7,600167	0,5	-0,073350
7,608500	0,5	-0,078400
7,616833	0,5	-0,088250
7,625167	0,5	-0,097050
7,633500	0,5	-0,094650
7,641833	0,5	-0,102500
7,650167	0,5	-0,108200
7,658500	0,5	-0,114150
7,666833	0,5	-0,114700
7,675167	0,5	-0,109100
7,683500	0,5	-0,108150
7,691833	0,5	-0,107050
7,700167	0,5	-0,110450
7,708500	0,5	-0,108450
7,716833	0,5	-0,110650
7,725167	0,5	-0,107650
7,733500	0,5	-0,109550
7,741833	0,5	-0,105750
7,750167	0,5	-0,100050
7,758500	0,5	-0,096450
7,766833	0,5	-0,093900
7,775167	0,5	-0,089350
7,783500	0,5	-0,082750
7,791833	0,5	-0,083700
7,800167	0,5	-0,088050
7,808500	0,5	-0,088000
7,816833	0,5	-0,088300
7,825167	0,5	-0,090250
7,833500	0,5	-0,091450
7,841833	0,5	-0,091300
7,850167	0,5	-0,093800
7,858500	0,5	-0,095100
7,866833	0,5	-0,092650
7,875167	0,5	-0,097150
7,883500	0,5	-0,094150
7,891833	0,5	-0,090800
7,900167	0,5	-0,091550
7,908500	0,5	-0,088400
7,916833	0,5	-0,090050
7,925167	0,5	-0,085550
7,933500	0,5	-0,080500
7,941833	0,5	-0,084550
7,950167	0,5	-0,082950
7,958500	0,5	-0,078100
7,966833	0,5	-0,077100
7,975167	0,5	-0,066350
7,983500	0,5	-0,064350
7,991833	0,5	-0,059250
8,000167	0,5	-0,052550
8,008500	0,5	-0,049950
8,016833	0,5	-0,051000
8,025167	0,5	-0,048050
8,033500	0,5	-0,047700
8,041833	0,5	-0,045900
8,050167	0,5	-0,044650
8,058500	0,5	-0,042850
8,066833	0,5	-0,042350
8,075167	0,5	-0,034500
8,083500	0,5	-0,031400
8,091833	0,5	-0,030350
8,100167	0,5	-0,032500
8,108500	0,5	-0,025850
8,116833	0,5	-0,020500
8,125167	0,5	-0,013600
8,133500	0,5	-0,012550
8,141833	0,5	-0,009850
8,150167	0,5	-0,006200
8,158500	0,5	-0,008450
8,166833	0,5	-0,003050
8,175167	0,5	-0,002450
8,183500	0,5	0,000900
8,191833	0,5	0,003900
8,200167	0,5	0,007200
8,208500	0,5	0,007750
8,216833	0,5	0,010750
8,225167	0,5	0,016950
8,233500	0,5	0,016950
8,241833	0,5	0,019700
8,250167	0,5	0,022350
8,258500	0,5	0,030200
8,266833	0,5	0,034750
8,275167	0,5	0,041800
8,283500	0,5	0,042150
8,291833	0,5	0,045650
8,300167	0,5	0,049000
8,308500	0,5	0,050850
8,316833	0,5	0,055750
8,325167	0,5	0,055950
8,333500	0,5	0,058950
8,341833	0,5	0,063200
8,350167	0,5	0,063950
8,358500	0,5	0,066250
8,366833	0,5	0,071200
8,375167	0,5	0,075300
8,383500	0,5	0,076050
8,391833	0,5	0,078450
8,400167	0,5	0,080000
8,408500	0,5	0,086450
8,416833	0,5	0,095350
8,425167	0,5	0,102350
8,433500	0,5	0,105600
8,441833	0,5	0,111200
8,450167	0,5	0,114650
8,458500	0,5	0,120050
8,466833	0,5	0,125850
8,475167	0,5	0,136300
8,483500	0,5	0,143650
8,491833	0,5	0,155950
8,500167	0,5	0,165200
8,508500	0,5	0,177550
8,516833	0,5	0,185700
8,525167	0,5	0,191600
8,533500	0,5	0,189800
8,541833	0,5	0,189400
8,550167	0,5	0,187650
8,558500	0,5	0,202950
8,566833	0,5	0,225500
8,575167	0,5	0,267850
8,583500	0,5	0,331550
8,591833	0,5	0,419900
8,600167	0,5	0,549450
8,608500	0,5	0,705900
8,616833	0,5	0,894650
8,625167	0,5	1,115700
8,633500	0,5	1,368500
8,641833	0,5	1,669600
8,650167	0,5	2,072750
8,658500	0,5	2,682250
8,666833	0,5	3,689450
8,675167	0,5	5,356950
8,683500	0,5	7,981700
8,691833	0,5	11,702700
8,700167	0,5	16,302050
8,708500	0,5	21,074650
8,716833	0,5	24,966500
8,725167	0,5	27,003600
8,733500	0,5	26,682700
8,741833	0,5	24,184650
8,750167	0,5	20,218750
8,758500	0,5	15,728900
8,766833	0,5	11,503850
8,775167	0,5	8,034750
8,783500	0,5	5,460850
8,791833	0,5	3,705900
8,800167	0,5	2,575750
8,808500	0,5	1,874650
8,816833	0,5	1,446350
8,825167	0,5	1,179350
8,833500	0,5	1,007950
8,841833	0,5	0,891800
8,850167	0,5	0,812750
8,858500	0,5	0,758150
8,866833	0,5	0,717200
8,875167	0,5	0,684900
8,883500	0,5	0,662650
8,891833	0,5	0,643400
8,900167	0,5	0,628600
8,908500	0,5	0,612200
8,916833	0,5	0,605150
8,925167	0,5	0,596650
8,933500	0,5	0,596250
8,941833	0,5	0,588000
8,950167	0,5	0,584450
8,958500	0,5	0,571150
8,966833	0,5	0,565350
8,975167	0,5	0,552150
8,983500	0,5	0,537150
8,991833	0,5	0,526000
9,000167	0,5	0,516550
9,008500	0,5	0,510300
9,016833	0,5	0,506750
9,025167	0,5	0,500700
9,033500	0,5	0,498500
9,041833	0,5	0,491900
9,050167	0,5	0,489650
9,058500	0,5	0,487400
9,066833	0,5	0,481700
9,075167	0,5	0,477850
9,083500	0,5	0,476100
9,091833	0,5	0,477950
9,100167	0,5	0,474950
9,108500	0,5	0,473700
9,116833	0,5	0,475050
9,125167	0,5	0,471100
9,133500	0,5	0,469400
9,141833	0,5	0,468900
9,150167	0,5	0,471850
9,158500	0,5	0,473950
9,166833	0,5	0,476950
9,175167	0,5	0,479150
9,183500	0,5	0,478550
9,191833	0,5	0,478900
9,200167	0,5	0,481000
9,208500	0,5	0,485350
9,216833	0,5	0,484250
9,225167	0,5	0,486500
9,233500	0,5	0,484950
9,241833	0,5	0,487700
9,250167	0,5	0,488250
9,258500	0,5	0,491900
9,266833	0,5	0,496950
9,275167	0,5	0,497050
9,283500	0,5	0,495850
9,291833	0,5	0,498300
9,300167	0,5	0,504250
9,308500	0,5	0,507750
9,316833	0,5	0,509600
9,325167	0,5	0,512250
9,333500	0,5	0,515600
9,341833	0,5	0,520150
9,350167	0,5	0,520750
9,358500	0,5	0,522100
9,366833	0,5	0,523300
9,375167	0,5	0,524000
9,383500	0,5	0,527200
9,391833	0,5	0,532200
9,400167	0,5	0,532050
9,408500	0,5	0,536550
9,416833	0,5	0,535250
9,425167	0,5	0,535650
9,433500	0,5	0,537600
9,441833	0,5	0,540200
9,450167	0,5	0,544100
9,458500	0,5	0,545900
9,466833	0,5	0,549750
9,475167	0,5	0,552450
9,483500	0,5	0,553550
9,491833	0,5	0,556250
9,500167	0,5	0,558850
9,508500	0,5	0,561050
9,516833	0,5	0,560000
9,525167	0,5	0,562150
9,533500	0,5	0,565700
9,541833	0,5	0,567300
9,550167	0,5	0,566250
9,558500	0,5	0,569850
9,566833	0,5	0,572000
9,575167	0,5	0,574300
9,583500	0,5	0,574900
9,591833	0,5	0,578400
9,600167	0,5	0,581900
9,608500	0,5	0,583350
9,616833	0,5	0,585150
9,625167	0,5	0,587500
9,633500	0,5	0,585450
9,641833	0,5	0,590950
9,650167	0,5	0,591250
9,658500	0,5	0,594550
9,666833	0,5	0,595650
9,675167	0,5	0,596250
9,683500	0,5	0,598100
9,691833	0,5	0,598050
9,700167	0,5	0,598050
9,708500	0,5	0,600850
9,716833	0,5	0,604750
9,725167	0,5	0,601650
9,733500	0,5	0,603850
9,741833	0,5	0,606950
9,750167	0,5	0,608150
9,758500	0,5	0,608300
9,766833	0,5	0,609300
9,775167	0,5	0,609800
9,783500	0,5	0,611600
9,791833	0,5	0,608600
9,800167	0,5	0,614500
9,808500	0,5	0,611200
9,816833	0,5	0,616400
9,825167	0,5	0,620650
9,833500	0,5	0,627550
9,841833	0,5	0,627350
9,850167	0,5	0,638700
9,858500	0,5	0,635850
9,866833	0,5	0,637950
9,875167	0,5	0,633450
9,883500	0,5	0,627100
9,891833	0,5	0,623650
9,900167	0,5	0,620700
9,908500	0,5	0,616550
9,916833	0,5	0,616450
9,925167	0,5	0,610500
9,933500	0,5	0,611200
9,941833	0,5	0,610850
9,950167	0,5	0,608500
9,958500	0,5	0,607950
9,966833	0,5	0,607750
9,975167	0,5	0,605650
9,983500	0,5	0,606300
9,991833	0,5	0,604850
10,000167	0,5	0,607700
10,008500	0,5	0,605250
10,016833	0,5	0,598850
10,025167	0,5	0,599700
10,033500	0,5	0,598650
10,041833	0,5	0,600150
10,050167	0,5	0,601750
10,058500	0,5	0,601300
10,066833	0,5	0,599150
10,075167	0,5	0,603400
10,083500	0,5	0,599300
10,091833	0,5	0,600550
10,100167	0,5	0,602250
10,108500	0,5	0,603800
10,116833	0,5	0,608250
10,125167	0,5	0,611400
10,133500	0,5	0,614800
10,141833	0,5	0,614000
10,150167	0,5	0,615150
10,158500	0,5	0,616100
10,166833	0,5	0,608800
10,175167	0,5	0,602950
10,183500	0,5	0,594350
10,191833	0,5	0,590300
10,200167	0,5	0,584000
10,208500	0,5	0,579300
10,216833	0,5	0,574700
10,225167	0,5	0,570850
10,233500	0,5	0,565700
10,241833	0,5	0,565400
10,250167	0,5	0,563300
10,258500	0,5	0,562100
10,266833	0,5	0,559200
10,275167	0,5	0,558750
10,283500	0,5	0,557850
10,291833	0,5	0,558150
10,300167	0,5	0,559100
10,308500	0,5	0,559000
10,316833	0,5	0,560050
10,325167	0,5	0,561100
10,333500	0,5	0,560250
10,341833	0,5	0,568700
10,350167	0,5	0,570400
10,358500	0,5	0,571100
10,366833	0,5	0,567000
10,375167	0,5	0,566950
10,383500	0,5	0,560550
10,391833	0,5	0,556500
10,400167	0,5	0,549300
10,408500	0,5	0,543000
10,416833	0,5	0,539950
10,425167	0,5	0,535150
10,433500	0,5	0,532300
10,441833	0,5	0,529800
10,450167	0,5	0,532550
10,458500	0,5	0,529750
10,466833	0,5	0,529050
10,475167	0,5	0,524100
10,483500	0,5	0,522900
10,491833	0,5	0,521700
10,500167	0,5	0,525750
10,508500	0,5	0,520650
10,516833	0,5	0,519500
10,525167	0,5	0,514950
10,533500	0,5	0,512800
10,541833	0,5	0,511550
10,550167	0,5	0,509200
10,558500	0,5	0,504900
10,566833	0,5	0,503850
10,575167	0,5	0,502050
10,583500	0,5	0,496750
10,591833	0,5	0,502200
10,600167	0,5	0,500550
10,608500	0,5	0,497350
10,616833	0,5	0,493450
10,625167	0,5	0,496700
10,633500	0,5	0,498800
10,641833	0,5	0,499250
10,650167	0,5	0,497100
10,658500	0,5	0,493400
10,666833	0,5	0,491050
10,675167	0,5	0,486450
10,683500	0,5	0,481950
10,691833	0,5	0,476450
10,700167	0,5	0,476100
10,708500	0,5	0,473850
10,716833	0,5	0,474900
10,725167	0,5	0,477050
10,733500	0,5	0,477100
10,741833	0,5	0,484600
10,750167	0,5	0,485800
10,758500	0,5	0,484150
10,766833	0,5	0,480800
10,775167	0,5	0,475200
10,783500	0,5	0,477700
10,791833	0,5	0,475000
10,800167	0,5	0,470000
10,808500	0,5	0,467250
10,816833	0,5	0,465550
10,825167	0,5	0,458250
10,833500	0,5	0,458350
10,841833	0,5	0,457150
10,850167	0,5	0,455050
10,858500	0,5	0,450700
10,866833	0,5	0,449550
10,875167	0,5	0,440200
10,883500	0,5	0,435850
10,891833	0,5	0,435300
10,900167	0,5	0,430700
10,908500	0,5	0,422450
10,916833	0,5	0,417500
10,925167	0,5	0,416550
10,933500	0,5	0,414900
10,941833	0,5	0,414450
10,950167	0,5	0,408050
10,958500	0,5	0,404100
10,966833	0,5	0,404650
10,975167	0,5	0,400600
10,983500	0,5	0,401850
10,991833	0,5	0,404600
11,000167	0,5	0,399450
11,008500	0,5	0,397200
11,016833	0,5	0,395550
11,025167	0,5	0,387650
11,033500	0,5	0,384850
11,041833	0,5	0,381850
11,050167	0,5	0,379300
11,058500	0,5	0,375400
11,066833	0,5	0,367450
11,075167	0,5	0,368550
11,083500	0,5	0,366600
11,091833	0,5	0,368650
11,100167	0,5	0,366650
11,108500	0,5	0,359400
11,116833	0,5	0,365800
11,125167	0,5	0,358800
11,133500	0,5	0,357500
11,141833	0,5	0,358550
11,150167	0,5	0,355700
11,158500	0,5	0,353100
11,166833	0,5	0,352450
11,175167	0,5	0,349550
11,183500	0,5	0,350650
11,191833	0,5	0,346000
11,200167	0,5	0,344000
11,208500	0,5	0,339000
11,216833	0,5	0,334750
11,225167	0,5	0,333550
11,233500	0,5	0,338100
11,241833	0,5	0,334650
11,250167	0,5	0,336200
11,258500	0,5	0,333900
11,266833	0,5	0,332250
11,275167	0,5	0,333450
11,283500	0,5	0,332700
11,291833	0,5	0,334500
11,300167	0,5	0,333000
11,308500	0,5	0,328200
11,316833	0,5	0,327450
11,325167	0,5	0,321400
11,333500	0,5	0,325250
11,341833	0,5	0,316500
11,350167	0,5	0,311750
11,358500	0,5	0,306850
11,366833	0,5	0,301350
11,375167	0,5	0,299800
11,383500	0,5	0,295450
11,391833	0,5	0,293200
11,400167	0,5	0,291750
11,408500	0,5	0,292200
11,416833	0,5	0,289800
11,425167	0,5	0,286350
11,433500	0,5	0,284200
11,441833	0,5	0,277350
11,450167	0,5	0,279850
11,458500	0,5	0,280450
11,466833	0,5	0,272200
11,475167	0,5	0,269250
11,483500	0,5	0,270150
11,491833	0,5	0,265200
11,500167	0,5	0,262550
11,508500	0,5	0,258500
11,516833	0,5	0,258250
11,525167	0,5	0,262650
11,533500	0,5	0,271250
11,541833	0,5	0,278950
11,550167	0,5	0,283550
11,558500	0,5	0,291550
11,566833	0,5	0,300500
11,575167	0,5	0,308200
11,583500	0,5	0,316550
11,591833	0,5	0,318350
11,600167	0,5	0,323700
11,608500	0,5	0,313650
11,616833	0,5	0,304250
11,625167	0,5	0,296050
11,633500	0,5	0,285850
11,641833	0,5	0,273250
11,650167	0,5	0,257300
11,658500	0,5	0,249600
11,666833	0,5	0,242050
11,675167	0,5	0,238200
11,683500	0,5	0,232800
11,691833	0,5	0,233150
11,700167	0,5	0,231550
11,708500	0,5	0,231050
11,716833	0,5	0,231750
11,725167	0,5	0,233000
11,733500	0,5	0,239650
11,741833	0,5	0,237850
11,750167	0,5	0,244350
11,758500	0,5	0,241650
11,766833	0,5	0,240400
11,775167	0,5	0,242750
11,783500	0,5	0,238950
11,791833	0,5	0,234650
11,800167	0,5	0,227250
11,808500	0,5	0,219750
11,816833	0,5	0,225450
11,825167	0,5	0,221300
11,833500	0,5	0,220700
11,841833	0,5	0,221600
11,850167	0,5	0,221700
11,858500	0,5	0,227700
11,866833	0,5	0,227150
11,875167	0,5	0,225450
11,883500	0,5	0,229450
11,891833	0,5	0,229850
11,900167	0,5	0,232400
11,908500	0,5	0,222650
11,916833	0,5	0,225600
11,925167	0,5	0,224650
11,933500	0,5	0,225450
11,941833	0,5	0,223650
11,950167	0,5	0,216600
11,958500	0,5	0,221250
11,966833	0,5	0,227500
11,975167	0,5	0,228950
11,983500	0,5	0,237000
11,991833	0,5	0,237350
12,000167	0,5	0,240150
12,008500	0,5	0,240650
12,016833	0,5	0,246200
12,025167	0,5	0,254300
12,033500	0,5	0,253850
12,041833	0,5	0,259400
12,050167	0,5	0,262500
12,058500	0,5	0,257450
12,066833	0,5	0,263250
12,075167	0,5	0,264850
12,083500	0,5	0,261700
12,091833	0,5	0,257150
12,100167	0,5	0,246800
12,108500	0,5	0,249050
12,116833	0,5	0,245000
12,125167	0,5	0,239800
12,133500	0,5	0,229100
12,141833	0,5	0,226100
12,150167	0,5	0,215100
12,158500	0,5	0,211100
12,166833	0,5	0,200600
12,175167	0,5	0,195800
12,183500	0,5	0,183500
12,191833	0,5	0,176000
12,200167	0,5	0,170400
12,208500	0,5	0,161100
12,216833	0,5	0,161950
12,225167	0,5	0,154000
12,233500	0,5	0,150550
12,241833	0,5	0,140000
12,250167	0,5	0,134650
12,258500	0,5	0,135100
12,266833	0,5	0,132700
12,275167	0,5	0,130500
12,283500	0,5	0,131850
12,291833	0,5	0,129750
12,300167	0,5	0,129050
12,308500	0,5	0,129950
12,316833	0,5	0,134600
12,325167	0,5	0,135950
12,333500	0,5	0,139450
12,341833	0,5	0,141100
12,350167	0,5	0,143250
12,358500	0,5	0,145800
12,366833	0,5	0,154000
12,375167	0,5	0,150250
12,383500	0,5	0,143600
12,391833	0,5	0,131350
12,400167	0,5	0,120250
12,408500	0,5	0,115500
12,416833	0,5	0,110350
12,425167	0,5	0,106000
12,433500	0,5	0,096700
12,441833	0,5	0,097150
12,450167	0,5	0,088550
12,458500	0,5	0,089300
12,466833	0,5	0,081250
12,475167	0,5	0,080550
12,483500	0,5	0,080850
12,491833	0,5	0,076100
12,500167	0,5	0,068650
12,508500	0,5	0,070000
12,516833	0,5	0,069900
12,525167	0,5	0,068200
12,533500	0,5	0,059050
12,541833	0,5	0,052300
12,550167	0,5	0,052550
12,558500	0,5	0,049900
12,566833	0,5	0,050450
12,575167	0,5	0,050250
12,583500	0,5	0,047150
12,591833	0,5	0,046950
12,600167	0,5	0,046550
12,608500	0,5	0,046100
12,616833	0,5	0,042750
12,625167	0,5	0,038450
12,633500	0,5	0,041800
12,641833	0,5	0,034850
12,650167	0,5	0,033550
12,658500	0,5	0,036650
12,666833	0,5	0,036800
12,675167	0,5	0,027000
12,683500	0,5	0,022050
12,691833	0,5	0,016150
12,700167	0,5	0,017300
12,708500	0,5	0,013850
12,716833	0,5	0,010800
12,725167	0,5	0,006400
12,733500	0,5	0,007100
12,741833	0,5	0,006500
12,750167	0,5	0,005950
12,758500	0,5	0,002300
12,766833	0,5	-0,000750
12,775167	0,5	-0,004250
12,783500	0,5	-0,007500
12,791833	0,5	-0,009650
12,800167	0,5	-0,015900
12,808500	0,5	-0,009050
12,816833	0,5	-0,010000
12,825167	0,5	-0,015250
12,833500	0,5	-0,022950
12,841833	0,5	-0,026250
12,850167	0,5	-0,027600
12,858500	0,5	-0,026300
12,866833	0,5	-0,027850
12,875167	0,5	-0,031600
12,883500	0,5	-0,032800
12,891833	0,5	-0,034000
12,900167	0,5	-0,033150
12,908500	0,5	-0,036700
12,916833	0,5	-0,042350
12,925167	0,5	-0,042000
12,933500	0,5	-0,039550
12,941833	0,5	-0,047650
12,950167	0,5	-0,042550
12,958500	0,5	-0,045100
12,966833	0,5	-0,051950
12,975167	0,5	-0,055950
12,983500	0,5	-0,061550
12,991833	0,5	-0,061050
13,000167	0,5	-0,056400
13,008500	0,5	-0,059900
13,016833	0,5	-0,059000
13,025167	0,5	-0,063950
13,033500	0,5	-0,065350
13,041833	0,5	-0,065800
13,050167	0,5	-0,066050
13,058500	0,5	-0,071450
13,066833	0,5	-0,072100
13,075167	0,5	-0,071850
13,083500	0,5	-0,076150
13,091833	0,5	-0,082200
13,100167	0,5	-0,076100
13,108500	0,5	-0,079000
13,116833	0,5	-0,082200
13,125167	0,5	-0,087200
13,133500	0,5	-0,094600
13,141833	0,5	-0,090050
13,150167	0,5	-0,096400
13,158500	0,5	-0,096500
13,166833	0,5	-0,099000
13,175167	0,5	-0,097350
13,183500	0,5	-0,101500
13,191833	0,5	-0,101000
13,200167	0,5	-0,104350
13,208500	0,5	-0,108700
13,216833	0,5	-0,107100
13,225167	0,5	-0,111300
13,233500	0,5	-0,114400
13,241833	0,5	-0,120600
13,250167	0,5	-0,118800
13,258500	0,5	-0,122650
13,266833	0,5	-0,125650
13,275167	0,5	-0,134250
13,283500	0,5	-0,138000
13,291833	0,5	-0,140550
13,300167	0,5	-0,135250
13,308500	0,5	-0,137000
13,316833	0,5	-0,135800
13,325167	0,5	-0,142800
13,333500	0,5	-0,142100
13,341833	0,5	-0,142350
13,350167	0,5	-0,141850
13,358500	0,5	-0,144100
13,366833	0,5	-0,143350
13,375167	0,5	-0,143500
13,383500	0,5	-0,150250
13,391833	0,5	-0,150800
13,400167	0,5	-0,148800
13,408500	0,5	-0,154900
13,416833	0,5	-0,160200
13,425167	0,5	-0,168050
13,433500	0,5	-0,169500
13,441833	0,5	-0,167050
13,450167	0,5	-0,168400
13,458500	0,5	-0,166750
13,466833	0,5	-0,170050
13,475167	0,5	-0,166050
13,483500	0,5	-0,168500
13,491833	0,5	-0,168200
13,500167	0,5	-0,171850
13,508500	0,5	-0,172800
13,516833	0,5	-0,172200
13,525167	0,5	-0,175200
13,533500	0,5	-0,180550
13,541833	0,5	-0,173900
13,550167	0,5	-0,176700
13,558500	0,5	-0,178350
13,566833	0,5	-0,185300
13,575167	0,5	-0,188700
13,583500	0,5	-0,188850
13,591833	0,5	-0,192950
13,600167	0,5	-0,190850
13,608500	0,5	-0,192950
13,616833	0,5	-0,193550
13,625167	0,5	-0,194700
13,633500	0,5	-0,190700
13,641833	0,5	-0,197050
13,650167	0,5	-0,194650
13,658500	0,5	-0,195850
13,666833	0,5	-0,194600
13,675167	0,5	-0,203400
13,683500	0,5	-0,207400
13,691833	0,5	-0,205550
13,700167	0,5	-0,204250
13,708500	0,5	-0,210850
13,716833	0,5	-0,215850
13,725167	0,5	-0,225850
13,733500	0,5	-0,222000
13,741833	0,5	-0,225900
13,750167	0,5	-0,230300
13,758500	0,5	-0,227300
13,766833	0,5	-0,230800
13,775167	0,5	-0,231800
13,783500	0,5	-0,232250
13,791833	0,5	-0,230200
13,800167	0,5	-0,235100
13,808500	0,5	-0,237400
13,816833	0,5	-0,235150
13,825167	0,5	-0,247000
13,833500	0,5	-0,245600
13,841833	0,5	-0,243150
13,850167	0,5	-0,247400
13,858500	0,5	-0,256500
13,866833	0,5	-0,271400
13,875167	0,5	-0,266700
13,883500	0,5	-0,271000
13,891833	0,5	-0,271350
13,900167	0,5	-0,271500
13,908500	0,5	-0,273250
13,916833	0,5	-0,273900
13,925167	0,5	-0,273750
13,933500	0,5	-0,277000
13,941833	0,5	-0,280900
13,950167	0,5	-0,285100
13,958500	0,5	-0,292950
13,966833	0,5	-0,289500
13,975167	0,5	-0,303000
13,983500	0,5	-0,292000
13,991833	0,5	-0,295400
14,000167	0,5	-0,300250
14,008500	0,5	-0,309100
14,016833	0,5	-0,317750
14,025167	0,5	-0,319450
14,033500	0,5	-0,316300
14,041833	0,5	-0,325150
14,050167	0,5	-0,326700
14,058500	0,5	-0,328750
14,066833	0,5	-0,328700
14,075167	0,5	-0,331900
14,083500	0,5	-0,335400
14,091833	0,5	-0,336300
14,100167	0,5	-0,344400
14,108500	0,5	-0,341500
14,116833	0,5	-0,343900
14,125167	0,5	-0,359600
14,133500	0,5	-0,352400
14,141833	0,5	-0,355300
14,150167	0,5	-0,357450
14,158500	0,5	-0,365750
14,166833	0,5	-0,377500
14,175167	0,5	-0,374350
14,183500	0,5	-0,376700
14,191833	0,5	-0,375700
14,200167	0,5	-0,383950
14,208500	0,5	-0,376400
14,216833	0,5	-0,386300
14,225167	0,5	-0,384200
14,233500	0,5	-0,389400
14,241833	0,5	-0,389150
14,250167	0,5	-0,389350
14,258500	0,5	-0,387000
14,266833	0,5	-0,395050
14,275167	0,5	-0,395350
14,283500	0,5	-0,391850
14,291833	0,5	-0,396400
14,300167	0,5	-0,404450
14,308500	0,5	-0,413150
14,316833	0,5	-0,419650
14,325167	0,5	-0,419650
14,333500	0,5	-0,417550
14,341833	0,5	-0,423200
14,350167	0,5	-0,418950
14,358500	0,5	-0,421050
14,366833	0,5	-0,423650
14,375167	0,5	-0,428450
14,383500	0,5	-0,428300
14,391833	0,5	-0,432700
14,400167	0,5	-0,430750
14,408500	0,5	-0,434850
14,416833	0,5	-0,439800
14,425167	0,5	-0,439050
14,433500	0,5	-0,436100
14,441833	0,5	-0,446800
14,450167	0,5	-0,452650
14,458500	0,5	-0,461350
14,466833	0,5	-0,464550
14,475167	0,5	-0,460750
14,483500	0,5	-0,464250
14,491833	0,5	-0,467050
14,500167	0,5	-0,468700
14,508500	0,5	-0,468000
14,516833	0,5	-0,466500
14,525167	0,5	-0,466700
14,533500	0,5	-0,470950
14,541833	0,5	-0,472350
14,550167	0,5	-0,476350
14,558500	0,5	-0,476950
14,566833	0,5	-0,489800
14,575167	0,5	-0,485650
14,583500	0,5	-0,487100
14,591833	0,5	-0,488200
14,600167	0,5	-0,497050
14,608500	0,5	-0,505350
14,616833	0,5	-0,510850
14,625167	0,5	-0,510900
14,633500	0,5	-0,511900
14,641833	0,5	-0,514050
14,650167	0,5	-0,515900
14,658500	0,5	-0,521500
14,666833	0,5	-0,519250
14,675167	0,5	-0,520250
14,683500	0,5	-0,523250
14,691833	0,5	-0,522250
14,700167	0,5	-0,517300
14,708500	0,5	-0,533050
14,716833	0,5	-0,526450
14,725167	0,5	-0,528350
14,733500	0,5	-0,527400
14,741833	0,5	-0,538600
14,750167	0,5	-0,551100
14,758500	0,5	-0,551800
14,766833	0,5	-0,548550
14,775167	0,5	-0,551000
14,783500	0,5	-0,552650
14,791833	0,5	-0,554700
14,800167	0,5	-0,556600
14,808500	0,5	-0,560250
14,816833	0,5	-0,557450
14,825167	0,5	-0,562600
14,833500	0,5	-0,565550
14,841833	0,5	-0,565500
14,850167	0,5	-0,568450
14,858500	0,5	-0,582100
14,866833	0,5	-0,571850
14,875167	0,5	-0,569100
14,883500	0,5	-0,577700
14,891833	0,5	-0,582700
14,900167	0,5	-0,598200
14,908500	0,5	-0,596900
14,916833	0,5	-0,594200
14,925167	0,5	-0,600200
14,933500	0,5	-0,603900
14,941833	0,5	-0,601950
14,950167	0,5	-0,605000
14,958500	0,5	-0,602650
14,966833	0,5	-0,604800
14,975167	0,5	-0,610950
14,983500	0,5	-0,613650
14,991833	0,5	-0,619050
15,000167	0,5	-0,615400
15,008500	0,5	-0,629300
15,016833	0,5	-0,619250
15,025167	0,5	-0,621950
15,033500	0,5	-0,627650
15,041833	0,5	-0,633150
15,050167	0,5	-0,645400
15,058500	0,5	-0,639400
15,066833	0,5	-0,637300
15,075167	0,5	-0,640150
15,083500	0,5	-0,643050
15,091833	0,5	-0,642600
15,100167	0,5	-0,642500
15,108500	0,5	-0,644650
15,116833	0,5	-0,638050
15,125167	0,5	-0,637550
15,133500	0,5	-0,640400
15,141833	0,5	-0,630000
15,150167	0,5	-0,635300
15,158500	0,5	-0,635800
15,166833	0,5	-0,622150
15,175167	0,5	-0,626200
15,183500	0,5	-0,632150
15,191833	0,5	-0,642100
15,200167	0,5	-0,655200
15,208500	0,5	-0,653900
15,216833	0,5	-0,662100
15,225167	0,5	-0,661100
15,233500	0,5	-0,670350
15,241833	0,5	-0,669400
15,250167	0,5	-0,675050
15,258500	0,5	-0,673250
15,266833	0,5	-0,680050
15,275167	0,5	-0,685500
15,283500	0,5	-0,682500
15,291833	0,5	-0,681150
15,300167	0,5	-0,689900
15,308500	0,5	-0,685450
15,316833	0,5	-0,683950
15,325167	0,5	-0,688500
15,333500	0,5	-0,694700
15,341833	0,5	-0,708450
15,350167	0,5	-0,711250
15,358500	0,5	-0,709350
15,366833	0,5	-0,710900
15,375167	0,5	-0,714900
15,383500	0,5	-0,708900
15,391833	0,5	-0,714400
15,400167	0,5	-0,710200
15,408500	0,5	-0,713100
15,416833	0,5	-0,710700
15,425167	0,5	-0,712550
15,433500	0,5	-0,709950
15,441833	0,5	-0,713550
15,450167	0,5	-0,720000
15,458500	0,5	-0,716400
15,466833	0,5	-0,711850
15,475167	0,5	-0,718200
15,483500	0,5	-0,727550
15,491833	0,5	-0,736000
15,500167	0,5	-0,743400
15,508500	0,5	-0,735750
15,516833	0,5	-0,741950
15,525167	0,5	-0,737450
15,533500	0,5	-0,739150
15,541833	0,5	-0,742650
15,550167	0,5	-0,743900
15,558500	0,5	-0,740700
15,566833	0,5	-0,744600
15,575167	0,5	-0,749250
15,583500	0,5	-0,744300
15,591833	0,5	-0,755850
15,600167	0,5	-0,757200
15,608500	0,5	-0,752300
15,616833	0,5	-0,754750
15,625167	0,5	-0,754650
15,633500	0,5	-0,773750
15,641833	0,5	-0,777250
15,650167	0,5	-0,773900
15,658500	0,5	-0,776500
15,666833	0,5	-0,777650
15,675167	0,5	-0,779850
15,683500	0,5	-0,774100
15,691833	0,5	-0,776750
15,700167	0,5	-0,776200
15,708500	0,5	-0,782250
15,716833	0,5	-0,778200
15,725167	0,5	-0,779300
15,733500	0,5	-0,775700
15,741833	0,5	-0,791100
15,750167	0,5	-0,778600
15,758500	0,5	-0,776000
15,766833	0,5	-0,781150
15,775167	0,5	-0,784750
15,783500	0,5	-0,799250
15,791833	0,5	-0,795500
15,800167	0,5	-0,792400
15,808500	0,5	-0,799650
15,816833	0,5	-0,800950
15,825167	0,5	-0,807150
15,833500	0,5	-0,807650
15,841833	0,5	-0,808800
15,850167	0,5	-0,810700
15,858500	0,5	-0,813400
15,866833	0,5	-0,822000
15,875167	0,5	-0,812800
15,883500	0,5	-0,815750
15,891833	0,5	-0,830700
15,900167	0,5	-0,826350
15,908500	0,5	-0,826350
15,916833	0,5	-0,831700
15,925167	0,5	-0,837650
15,933500	0,5	-0,855150
15,941833	0,5	-0,844350
15,950167	0,5	-0,849550
15,958500	0,5	-0,849100
15,966833	0,5	-0,854350
15,975167	0,5	-0,850200
15,983500	0,5	-0,856450
15,991833	0,5	-0,856400
16,000167	0,5	-0,856150
16,008500	0,5	-0,864400
16,016833	0,5	-0,860100
16,025167	0,5	-0,858650
16,033500	0,5	-0,860900
16,041833	0,5	-0,866200
16,050167	0,5	-0,859150
16,058500	0,5	-0,865400
16,066833	0,5	-0,865100
16,075167	0,5	-0,884550
16,083500	0,5	-0,891950
16,091833	0,5	-0,885800
16,100167	0,5	-0,879750
16,108500	0,5	-0,881200
16,116833	0,5	-0,879600
16,125167	0,5	-0,882500
16,133500	0,5	-0,879950
16,141833	0,5	-0,882400
16,150167	0,5	-0,889650
16,158500	0,5	-0,886150
16,166833	0,5	-0,891750
16,175167	0,5	-0,887600
16,183500	0,5	-0,904400
16,191833	0,5	-0,900100
16,200167	0,5	-0,897600
16,208500	0,5	-0,897050
16,216833	0,5	-0,907050
16,225167	0,5	-0,917050
16,233500	0,5	-0,925400
16,241833	0,5	-0,916200
16,250167	0,5	-0,922250
16,258500	0,5	-0,921950
16,266833	0,5	-0,926850
16,275167	0,5	-0,922250
16,283500	0,5	-0,920000
16,291833	0,5	-0,919550
16,300167	0,5	-0,924650
16,308500	0,5	-0,926800
16,316833	0,5	-0,920000
16,325167	0,5	-0,916550
16,333500	0,5	-0,929900
16,341833	0,5	-0,925200
16,350167	0,5	-0,924250
16,358500	0,5	-0,928300
16,366833	0,5	-0,935350
16,375167	0,5	-0,947950
16,383500	0,5	-0,947900
16,391833	0,5	-0,947900
16,400167	0,5	-0,942100
16,408500	0,5	-0,944300
16,416833	0,5	-0,940550
16,425167	0,5	-0,942800
16,433500	0,5	-0,943750
16,441833	0,5	-0,944900
16,450167	0,5	-0,945950
16,458500	0,5	-0,944200
16,466833	0,5	-0,936400
16,475167	0,5	-0,949900
16,483500	0,5	-0,945350
16,491833	0,5	-0,941650
16,500167	0,5	-0,942050
16,508500	0,5	-0,949050
16,516833	0,5	-0,969450
16,525167	0,5	-0,974250
16,533500	0,5	-0,972300
16,541833	0,5	-0,964700
16,550167	0,5	-0,966050
16,558500	0,5	-0,964450
16,566833	0,5	-0,960650
16,575167	0,5	-0,955400
16,583500	0,5	-0,958150
16,591833	0,5	-0,952000
16,600167	0,5	-0,954550
16,608500	0,5	-0,956050
16,616833	0,5	-0,958050
16,625167	0,5	-0,967850
16,633500	0,5	-0,961800
16,641833	0,5	-0,957750
16,650167	0,5	-0,960500
16,658500	0,5	-0,964550
16,666833	0,5	-0,979850
16,675167	0,5	-0,984350
16,683500	0,5	-0,979500
16,691833	0,5	-0,983400
16,700167	0,5	-0,987400
16,708500	0,5	-0,988250
16,716833	0,5	-0,985250
16,725167	0,5	-0,983500
16,733500	0,5	-0,979900
16,741833	0,5	-0,984450
16,750167	0,5	-0,982600
16,758500	0,5	-0,986150
16,766833	0,5	-0,980750
16,775167	0,5	-0,992450
16,783500	0,5	-0,982800
16,791833	0,5	-0,981700
16,800167	0,5	-0,982700
16,808500	0,5	-0,990800
16,816833	0,5	-1,002400
16,825167	0,5	-0,998900
16,833500	0,5	-0,993800
16,841833	0,5	-0,992750
16,850167	0,5	-0,994450
16,858500	0,5	-0,993150
16,866833	0,5	-0,992300
16,875167	0,5	-0,993450
16,883500	0,5	-0,995150
16,891833	0,5	-0,989900
16,900167	0,5	-0,989600
16,908500	0,5	-0,981000
16,916833	0,5	-0,989300
16,925167	0,5	-0,988450
16,933500	0,5	-0,980750
16,941833	0,5	-0,978750
16,950167	0,5	-0,984900
16,958500	0,5	-0,989900
16,966833	0,5	-1,000000
16,975167	0,5	-0,993750
16,983500	0,5	-0,992200
16,991833	0,5	-0,989100
17,000167	0,5	-0,993650
17,008500	0,5	-0,987750
17,016833	0,5	-0,984600
17,025167	0,5	-0,987900
17,033500	0,5	-0,982300
17,041833	0,5	-0,982150
17,050167	0,5	-0,984900
17,058500	0,5	-0,980050
17,066833	0,5	-0,984850
17,075167	0,5	-0,976100
17,083500	0,5	-0,968100
17,091833	0,5	-0,969750
17,100167	0,5	-0,970300
17,108500	0,5	-0,986500
17,116833	0,5	-0,984850
17,125167	0,5	-0,978100
17,133500	0,5	-0,972900
17,141833	0,5	-0,982500
17,150167	0,5	-0,972700
17,158500	0,5	-0,974150
17,166833	0,5	-0,967500
17,175167	0,5	-0,963700
17,183500	0,5	-0,961350
17,191833	0,5	-0,954950
17,200167	0,5	-0,950600
17,208500	0,5	-0,950700
17,216833	0,5	-0,950050
17,225167	0,5	-0,936250
17,233500	0,5	-0,939200
17,241833	0,5	-0,937750
17,250167	0,5	-0,942550
17,258500	0,5	-0,951000
17,266833	0,5	-0,948950
17,275167	0,5	-0,934600
17,283500	0,5	-0,937400
17,291833	0,5	-0,925600
17,300167	0,5	-0,926250
17,308500	0,5	-0,920050
17,316833	0,5	-0,916850
17,325167	0,5	-0,916750
17,333500	0,5	-0,911100
17,341833	0,5	-0,909600
17,350167	0,5	-0,898050
17,358500	0,5	-0,901150
17,366833	0,5	-0,900400
17,375167	0,5	-0,881300
17,383500	0,5	-0,881300
17,391833	0,5	-0,881650
17,400167	0,5	-0,887950
17,408500	0,5	-0,902850
17,416833	0,5	-0,891950
17,425167	0,5	-0,888150
17,433500	0,5	-0,879500
17,441833	0,5	-0,877750
17,450167	0,5	-0,870550
17,458500	0,5	-0,870900
17,466833	0,5	-0,865050
17,475167	0,5	-0,862200
17,483500	0,5	-0,858950
17,491833	0,5	-0,850900
17,500167	0,5	-0,847750
17,508500	0,5	-0,866150
17,516833	0,5	-0,851400
17,525167	0,5	-0,845400
17,533500	0,5	-0,846700
17,541833	0,5	-0,850900
17,550167	0,5	-0,867750
17,558500	0,5	-0,863350
17,566833	0,5	-0,864650
17,575167	0,5	-0,857900
17,583500	0,5	-0,862800
17,591833	0,5	-0,862350
17,600167	0,5	-0,862250
17,608500	0,5	-0,855500
17,616833	0,5	-0,854800
17,625167	0,5	-0,853550
17,633500	0,5	-0,858350
17,641833	0,5	-0,851700
17,650167	0,5	-0,857800
17,658500	0,5	-0,863250
17,666833	0,5	-0,855950
17,675167	0,5	-0,851950
17,683500	0,5	-0,861350
17,691833	0,5	-0,869500
17,700167	0,5	-0,882250
17,708500	0,5	-0,880650
17,716833	0,5	-0,877600
17,725167	0,5	-0,883600
17,733500	0,5	-0,877400
17,741833	0,5	-0,885300
17,750167	0,5	-0,882450
17,758500	0,5	-0,884900
17,766833	0,5	-0,889250
17,775167	0,5	-0,894400
17,783500	0,5	-0,892100
17,791833	0,5	-0,891500
17,800167	0,5	-0,896800
17,808500	0,5	-0,898900
17,816833	0,5	-0,895050
17,825167	0,5	-0,898000
17,833500	0,5	-0,901800
17,841833	0,5	-0,920250
17,850167	0,5	-0,931850
17,858500	0,5	-0,926750
17,866833	0,5	-0,930400
17,875167	0,5	-0,933250
17,883500	0,5	-0,932600
17,891833	0,5	-0,935450
17,900167	0,5	-0,937250
17,908500	0,5	-0,936850
17,916833	0,5	-0,947250
17,925167	0,5	-0,942550
17,933500	0,5	-0,944600
17,941833	0,5	-0,940550
17,950167	0,5	-0,967400
17,958500	0,5	-0,956000
17,966833	0,5	-0,957750
17,975167	0,5	-0,958350
17,983500	0,5	-0,971350
17,991833	0,5	-0,986550
18,000167	0,5	-0,988450
18,008500	0,5	-0,988650
18,016833	0,5	-0,990450
18,025167	0,5	-0,996600
18,033500	0,5	-1,002650
18,041833	0,5	-1,006200
18,050167	0,5	-1,010200
18,058500	0,5	-1,009850
18,066833	0,5	-1,011700
18,075167	0,5	-1,019250
18,083500	0,5	-1,010700
18,091833	0,5	-1,015200
18,100167	0,5	-1,029950
18,108500	0,5	-1,022800
18,116833	0,5	-1,029500
18,125167	0,5	-1,038550
18,133500	0,5	-1,048400
18,141833	0,5	-1,069400
18,150167	0,5	-1,065800
18,158500	0,5	-1,071550
18,166833	0,5	-1,070400
18,175167	0,5	-1,073300
18,183500	0,5	-1,071900
18,191833	0,5	-1,079450
18,200167	0,5	-1,075700
18,208500	0,5	-1,087450
18,216833	0,5	-1,091000
18,225167	0,5	-1,091250
18,233500	0,5	-1,091100
18,241833	0,5	-1,096750
18,250167	0,5	-1,107950
18,258500	0,5	-1,096450
18,266833	0,5	-1,107050
18,275167	0,5	-1,115800
18,283500	0,5	-1,131750
18,291833	0,5	-1,142250
18,300167	0,5	-1,147100
18,308500	0,5	-1,144000
18,316833	0,5	-1,149050
18,325167	0,5	-1,146200
18,333500	0,5	-1,155600
18,341833	0,5	-1,150850
18,350167	0,5	-1,155550
18,358500	0,5	-1,160150
18,366833	0,5	-1,158750
18,375167	0,5	-1,161150
18,383500	0,5	-1,162800
18,391833	0,5	-1,177800
18,400167	0,5	-1,173700
18,408500	0,5	-1,171350
18,416833	0,5	-1,172300
18,425167	0,5	-1,182600
18,433500	0,5	-1,197000
18,441833	0,5	-1,207300
18,450167	0,5	-1,204750
18,458500	0,5	-1,208350
18,466833	0,5	-1,204800
18,475167	0,5	-1,213900
18,483500	0,5	-1,214900
18,491833	0,5	-1,216250
18,500167	0,5	-1,214650
18,508500	0,5	-1,220900
18,516833	0,5	-1,224850
18,525167	0,5	-1,210450
18,533500	0,5	-1,222050
18,541833	0,5	-1,227850
18,550167	0,5	-1,224550
18,558500	0,5	-1,228850
18,566833	0,5	-1,241100
18,575167	0,5	-1,251750
18,583500	0,5	-1,261900
18,591833	0,5	-1,259550
18,600167	0,5	-1,264550
18,608500	0,5	-1,260350
18,616833	0,5	-1,266350
18,625167	0,5	-1,268200
18,633500	0,5	-1,270200
18,641833	0,5	-1,268100
18,650167	0,5	-1,277900
18,658500	0,5	-1,277450
18,666833	0,5	-1,277200
18,675167	0,5	-1,270100
18,683500	0,5	-1,289850
18,691833	0,5	-1,283700
18,700167	0,5	-1,282600
18,708500	0,5	-1,285750
18,716833	0,5	-1,293700
18,725167	0,5	-1,310100
18,733500	0,5	-1,313350
18,741833	0,5	-1,321600
18,750167	0,5	-1,317950
18,758500	0,5	-1,322800
18,766833	0,5	-1,323850
18,775167	0,5	-1,327900
18,783500	0,5	-1,324250
18,791833	0,5	-1,329050
18,800167	0,5	-1,329300
18,808500	0,5	-1,333200
18,816833	0,5	-1,327950
18,825167	0,5	-1,328500
18,833500	0,5	-1,344300
18,841833	0,5	-1,334350
18,850167	0,5	-1,332150
18,858500	0,5	-1,335750
18,866833	0,5	-1,343050
18,875167	0,5	-1,362550
18,883500	0,5	-1,360450
18,891833	0,5	-1,355400
18,900167	0,5	-1,357850
18,908500	0,5	-1,356300
18,916833	0,5	-1,365800
18,925167	0,5	-1,366900
18,933500	0,5	-1,367500
18,941833	0,5	-1,361050
18,950167	0,5	-1,369600
18,958500	0,5	-1,366550
18,966833	0,5	-1,371250
18,975167	0,5	-1,366900
18,983500	0,5	-1,385100
18,991833	0,5	-1,365400
19,000167	0,5	-1,368950
19,008500	0,5	-1,376800
19,016833	0,5	-1,385850
19,025167	0,5	-1,400450
19,033500	0,5	-1,390350
19,041833	0,5	-1,396100
19,050167	0,5	-1,399200
19,058500	0,5	-1,402750
19,066833	0,5	-1,404200
19,075167	0,5	-1,406200
19,083500	0,5	-1,402300
19,091833	0,5	-1,410600
19,100167	0,5	-1,412950
19,108500	0,5	-1,413300
19,116833	0,5	-1,405650
19,125167	0,5	-1,421350
19,133500	0,5	-1,414100
19,141833	0,5	-1,412450
19,150167	0,5	-1,414300
19,158500	0,5	-1,430250
19,166833	0,5	-1,438750
19,175167	0,5	-1,448650
19,183500	0,5	-1,452300
19,191833	0,5	-1,450800
19,200167	0,5	-1,452500
19,208500	0,5	-1,452250
19,216833	0,5	-1,455800
19,225167	0,5	-1,453600
19,233500	0,5	-1,458000
19,241833	0,5	-1,460000
19,250167	0,5	-1,463650
19,258500	0,5	-1,454350
19,266833	0,5	-1,464000
19,275167	0,5	-1,479000
19,283500	0,5	-1,472650
19,291833	0,5	-1,473000
19,300167	0,5	-1,481300
19,308500	0,5	-1,490600
19,316833	0,5	-1,506800
19,325167	0,5	-1,508850
19,333500	0,5	-1,515000
19,341833	0,5	-1,510100
19,350167	0,5	-1,511850
19,358500	0,5	-1,519250
19,366833	0,5	-1,521700
19,375167	0,5	-1,520500
19,383500	0,5	-1,516250
19,391833	0,5	-1,524550
19,400167	0,5	-1,517850
19,408500	0,5	-1,521200
19,416833	0,5	-1,528800
19,425167	0,5	-1,534350
19,433500	0,5	-1,531400
19,441833	0,5	-1,532100
19,450167	0,5	-1,542300
19,458500	0,5	-1,559500
19,466833	0,5	-1,564900
19,475167	0,5	-1,567800
19,483500	0,5	-1,567300
19,491833	0,5	-1,573000
19,500167	0,5	-1,572050
19,508500	0,5	-1,571250
19,516833	0,5	-1,570750
19,525167	0,5	-1,574250
19,533500	0,5	-1,576850
19,541833	0,5	-1,578700
19,550167	0,5	-1,579950
19,558500	0,5	-1,571300
19,566833	0,5	-1,588450
19,575167	0,5	-1,580750
19,583500	0,5	-1,579150
19,591833	0,5	-1,582950
19,600167	0,5	-1,595350
19,608500	0,5	-1,606350
19,616833	0,5	-1,611200
19,625167	0,5	-1,610800
19,633500	0,5	-1,617850
19,641833	0,5	-1,613600
19,650167	0,5	-1,617250
19,658500	0,5	-1,615850
19,666833	0,5	-1,615500
19,675167	0,5	-1,616750
19,683500	0,5	-1,617600
19,691833	0,5	-1,619000
19,700167	0,5	-1,611350
19,708500	0,5	-1,613350
19,716833	0,5	-1,629750
19,725167	0,5	-1,621050
19,733500	0,5	-1,618300
19,741833	0,5	-1,624550
19,750167	0,5	-1,630050
19,758500	0,5	-1,651600
19,766833	0,5	-1,644600
19,775167	0,5	-1,650600
19,783500	0,5	-1,648600
19,791833	0,5	-1,654950
19,800167	0,5	-1,657150
19,808500	0,5	-1,663250
19,816833	0,5	-1,656550
19,825167	0,5	-1,663050
19,833500	0,5	-1,670650
19,841833	0,5	-1,671700
19,850167	0,5	-1,667250
19,858500	0,5	-1,682200
19,866833	0,5	-1,684100
19,875167	0,5	-1,675950
19,883500	0,5	-1,678500
19,891833	0,5	-1,685950
19,900167	0,5	-1,711550
19,908500	0,5	-1,712750
19,916833	0,5	-1,707700
19,925167	0,5	-1,705100
19,933500	0,5	-1,708650
19,941833	0,5	-1,707650
19,950167	0,5	-1,709250
19,958500	0,5	-1,703050
19,966833	0,5	-1,703900
19,975167	0,5	-1,701200
19,983500	0,5	-1,708400
19,991833	0,5	-1,708000
20,000167	0,5	-1,694400
20,008500	0,5	-1,709600
20,016833	0,5	-1,699050
20,025167	0,5	-1,696750
20,033500	0,5	-1,694600
20,041833	0,5	-1,705800
20,050167	0,5	-1,716300
20,058500	0,5	-1,715350
20,066833	0,5	-1,707900
20,075167	0,5	-1,717800
20,083500	0,5	-1,710650
20,091833	0,5	-1,712550
20,100167	0,5	-1,708000
20,108500	0,5	-1,707500
20,116833	0,5	-1,703950
20,125167	0,5	-1,705200
20,133500	0,5	-1,706150
20,141833	0,5	-1,696150
20,150167	0,5	-1,688000
20,158500	0,5	-1,702750
20,166833	0,5	-1,692600
20,175167	0,5	-1,696550
20,183500	0,5	-1,699100
20,191833	0,5	-1,709950
20,200167	0,5	-1,723300
20,208500	0,5	-1,714950
20,216833	0,5	-1,718000
20,225167	0,5	-1,705950
20,233500	0,5	-1,708750
20,241833	0,5	-1,706100
20,250167	0,5	-1,712400
20,258500	0,5	-1,705100
20,266833	0,5	-1,702400
20,275167	0,5	-1,701950
20,283500	0,5	-1,692150
20,291833	0,5	-1,680800
20,300167	0,5	-1,685200
20,308500	0,5	-1,679800
20,316833	0,5	-1,674750
20,325167	0,5	-1,676650
20,333500	0,5	-1,682350
20,341833	0,5	-1,699150
20,350167	0,5	-1,698550
20,358500	0,5	-1,700250
20,366833	0,5	-1,689400
20,375167	0,5	-1,690100
20,383500	0,5	-1,683900
20,391833	0,5	-1,684750
20,400167	0,5	-1,679800
20,408500	0,5	-1,685850
20,416833	0,5	-1,682750
20,425167	0,5	-1,691050
20,433500	0,5	-1,677900
20,441833	0,5	-1,675700
20,450167	0,5	-1,685000
20,458500	0,5	-1,686300
20,466833	0,5	-1,680600
20,475167	0,5	-1,687950
20,483500	0,5	-1,696800
20,491833	0,5	-1,707850
20,500167	0,5	-1,711550
20,508500	0,5	-1,705600
20,516833	0,5	-1,714550
20,525167	0,5	-1,711000
20,533500	0,5	-1,711950
20,541833	0,5	-1,703750
20,550167	0,5	-1,706200
20,558500	0,5	-1,703250
20,566833	0,5	-1,704250
20,575167	0,5	-1,699500
20,583500	0,5	-1,685850
20,591833	0,5	-1,681450
20,600167	0,5	-1,690150
20,608500	0,5	-1,690600
20,616833	0,5	-1,694350
20,625167	0,5	-1,700500
20,633500	0,5	-1,716200
20,641833	0,5	-1,724200
20,650167	0,5	-1,714450
20,658500	0,5	-1,718950
20,666833	0,5	-1,710000
20,675167	0,5	-1,715700
20,683500	0,5	-1,710700
20,691833	0,5	-1,716000
20,700167	0,5	-1,713200
20,708500	0,5	-1,708600
20,716833	0,5	-1,707750
20,725167	0,5	-1,690150
20,733500	0,5	-1,677500
20,741833	0,5	-1,685800
20,750167	0,5	-1,682100
20,758500	0,5	-1,682850
20,766833	0,5	-1,685750
20,775167	0,5	-1,686000
20,783500	0,5	-1,705550
20,791833	0,5	-1,694450
20,800167	0,5	-1,692150
20,808500	0,5	-1,685250
20,816833	0,5	-1,691300
20,825167	0,5	-1,685350
20,833500	0,5	-1,686800
20,841833	0,5	-1,677100
20,850167	0,5	-1,676300
20,858500	0,5	-1,671850
20,866833	0,5	-1,666500
20,875167	0,5	-1,645850
20,883500	0,5	-1,641900
20,891833	0,5	-1,648000
20,900167	0,5	-1,641400
20,908500	0,5	-1,648250
20,916833	0,5	-1,653350
20,925167	0,5	-1,667150
20,933500	0,5	-1,674350
20,941833	0,5	-1,669850
20,950167	0,5	-1,663350
20,958500	0,5	-1,667150
20,966833	0,5	-1,670400
20,975167	0,5	-1,666600
20,983500	0,5	-1,660550
20,991833	0,5	-1,661050
21,000167	0,5	-1,650550
21,008500	0,5	-1,652300
21,016833	0,5	-1,632150
21,025167	0,5	-1,615350
21,033500	0,5	-1,614150
21,041833	0,5	-1,618800
21,050167	0,5	-1,614200
21,058500	0,5	-1,625000
21,066833	0,5	-1,630850
21,075167	0,5	-1,641750
21,083500	0,5	-1,640050
21,091833	0,5	-1,629900
21,100167	0,5	-1,625050
21,108500	0,5	-1,615750
21,116833	0,5	-1,617900
21,125167	0,5	-1,606250
21,133500	0,5	-1,598700
21,141833	0,5	-1,585250
21,150167	0,5	-1,589800
21,158500	0,5	-1,580000
21,166833	0,5	-1,554500
21,175167	0,5	-1,541250
21,183500	0,5	-1,539050
21,191833	0,5	-1,534200
21,200167	0,5	-1,536250
21,208500	0,5	-1,537200
21,216833	0,5	-1,548250
21,225167	0,5	-1,557900
21,233500	0,5	-1,554750
21,241833	0,5	-1,555400
21,250167	0,5	-1,545200
21,258500	0,5	-1,535200
21,266833	0,5	-1,527650
21,275167	0,5	-1,525100
21,283500	0,5	-1,514950
21,291833	0,5	-1,512900
21,300167	0,5	-1,502700
21,308500	0,5	-1,488450
21,316833	0,5	-1,464400
21,325167	0,5	-1,457850
21,333500	0,5	-1,459400
21,341833	0,5	-1,459150
21,350167	0,5	-1,461000
21,358500	0,5	-1,472050
21,366833	0,5	-1,478350
21,375167	0,5	-1,474050
21,383500	0,5	-1,469200
21,391833	0,5	-1,458800
21,400167	0,5	-1,454350
21,408500	0,5	-1,442500
21,416833	0,5	-1,438600
21,425167	0,5	-1,423900
21,433500	0,5	-1,413100
21,441833	0,5	-1,396100
21,450167	0,5	-1,389550
21,458500	0,5	-1,352700
21,466833	0,5	-1,325700
21,475167	0,5	-1,314250
21,483500	0,5	-1,296300
21,491833	0,5	-1,270450
21,500167	0,5	-1,255800
21,508500	0,5	-1,246950
21,516833	0,5	-1,239000
21,525167	0,5	-1,237750
21,533500	0,5	-1,236850
21,541833	0,5	-1,238800
21,550167	0,5	-1,241950
21,558500	0,5	-1,245200
21,566833	0,5	-1,241400
21,575167	0,5	-1,240650
21,583500	0,5	-1,224100
21,591833	0,5	-1,223400
21,600167	0,5	-1,208650
21,608500	0,5	-1,173600
21,616833	0,5	-1,163200
21,625167	0,5	-1,158450
21,633500	0,5	-1,141950
21,641833	0,5	-1,142250
21,650167	0,5	-1,134900
21,658500	0,5	-1,138350
21,666833	0,5	-1,122050
21,675167	0,5	-1,102450
21,683500	0,5	-1,092700
21,691833	0,5	-1,074850
21,700167	0,5	-1,058800
21,708500	0,5	-1,034900
21,716833	0,5	-1,024050
21,725167	0,5	-1,001400
21,733500	0,5	-0,992550
21,741833	0,5	-0,972850
21,750167	0,5	-0,946400
21,758500	0,5	-0,925950
21,766833	0,5	-0,919000
21,775167	0,5	-0,900700
21,783500	0,5	-0,886200
21,791833	0,5	-0,877800
21,800167	0,5	-0,868500
21,808500	0,5	-0,868600
21,816833	0,5	-0,842350
21,825167	0,5	-0,831350
21,833500	0,5	-0,818100
21,841833	0,5	-0,801650
21,850167	0,5	-0,777400
21,858500	0,5	-0,762000
21,866833	0,5	-0,741350
21,875167	0,5	-0,725000
21,883500	0,5	-0,701850
21,891833	0,5	-0,685350
21,900167	0,5	-0,648050
21,908500	0,5	-0,635050
21,916833	0,5	-0,617050
21,925167	0,5	-0,595650
21,933500	0,5	-0,573300
21,941833	0,5	-0,559500
21,950167	0,5	-0,552100
21,958500	0,5	-0,539650
21,966833	0,5	-0,508550
21,975167	0,5	-0,484050
21,983500	0,5	-0,458800
21,991833	0,5	-0,429600
22,000167	0,5	-0,402350
22,008500	0,5	-0,367700
22,016833	0,5	-0,343750
22,025167	0,5	-0,307250
22,033500	0,5	-0,279250
22,041833	0,5	-0,247050
22,050167	0,5	-0,206900
22,058500	0,5	-0,174100
22,066833	0,5	-0,128650
22,075167	0,5	-0,091550
22,083500	0,5	-0,063400
22,091833	0,5	-0,046500
22,100167	0,5	-0,037550
22,108500	0,5	-0,008750
22,116833	0,5	0,021250
22,125167	0,5	0,049000
22,133500	0,5	0,068850
22,141833	0,5	0,097950
22,150167	0,5	0,134650
22,158500	0,5	0,164200
22,166833	0,5	0,207000
22,175167	0,5	0,240300
22,183500	0,5	0,278650
22,191833	0,5	0,301500
22,200167	0,5	0,343050
22,208500	0,5	0,388350
22,216833	0,5	0,446950
22,225167	0,5	0,481450
22,233500	0,5	0,522950
22,241833	0,5	0,549400
22,250167	0,5	0,582000
22,258500	0,5	0,630350
22,266833	0,5	0,669450
22,275167	0,5	0,716050
22,283500	0,5	0,756750
22,291833	0,5	0,805100
22,300167	0,5	0,853150
22,308500	0,5	0,903150
22,316833	0,5	0,945000
22,325167	0,5	1,001450
22,333500	0,5	1,040300
22,341833	0,5	1,091350
22,350167	0,5	1,148200
22,358500	0,5	1,221450
22,366833	0,5	1,278700
22,375167	0,5	1,331000
22,383500	0,5	1,374250
22,391833	0,5	1,423800
22,400167	0,5	1,476550
22,408500	0,5	1,536450
22,416833	0,5	1,598800
22,425167	0,5	1,658150
22,433500	0,5	1,719900
22,441833	0,5	1,777500
22,450167	0,5	1,843400
22,458500	0,5	1,903250
22,466833	0,5	1,962350
22,475167	0,5	2,015450
22,483500	0,5	2,044200
22,491833	0,5	2,087400
22,500167	0,5	2,169100
22,508500	0,5	2,230950
22,516833	0,5	2,274200
22,525167	0,5	2,316800
22,533500	0,5	2,343850
22,541833	0,5	2,375850
22,550167	0,5	2,412550
22,558500	0,5	2,444400
22,566833	0,5	2,475900
22,575167	0,5	2,501500
22,583500	0,5	2,526900
22,591833	0,5	2,549800
22,600167	0,5	2,564700
22,608500	0,5	2,572050
22,616833	0,5	2,565150
22,625167	0,5	2,543600
22,633500	0,5	2,509650
22,641833	0,5	2,498800
22,650167	0,5	2,487800
22,658500	0,5	2,453450
22,666833	0,5	2,399750
22,675167	0,5	2,341700
22,683500	0,5	2,259450
22,691833	0,5	2,197750
22,700167	0,5	2,130750
22,708500	0,5	2,058000
22,716833	0,5	1,970550
22,725167	0,5	1,886750
22,733500	0,5	1,800200
22,741833	0,5	1,703700
22,750167	0,5	1,605500
22,758500	0,5	1,497500
22,766833	0,5	1,387000
22,775167	0,5	1,217250
22,783500	0,5	1,118100
22,791833	0,5	1,000900
22,800167	0,5	0,884650
22,808500	0,5	0,748300
22,816833	0,5	0,613050
22,825167	0,5	0,476950
22,833500	0,5	0,349000
22,841833	0,5	0,212650
22,850167	0,5	0,084350
22,858500	0,5	-0,037650
22,866833	0,5	-0,159300
22,875167	0,5	-0,272450
22,883500	0,5	-0,387950
22,891833	0,5	-0,508900
22,900167	0,5	-0,615650
22,908500	0,5	-0,732650
22,916833	0,5	-0,825350
22,925167	0,5	-0,952700
22,933500	0,5	-1,051900
22,941833	0,5	-1,171400
22,950167	0,5	-1,290850
22,958500	0,5	-1,388150
22,966833	0,5	-1,471450
22,975167	0,5	-1,554250
22,983500	0,5	-1,630700
22,991833	0,5	-1,706150
23,000167	0,5	-1,771000
23,008500	0,5	-1,827500
23,016833	0,5	-1,881550
23,025167	0,5	-1,936300
23,033500	0,5	-1,987000
23,041833	0,5	-2,030700
23,050167	0,5	-2,083000
23,058500	0,5	-2,125700
23,066833	0,5	-2,162250
23,075167	0,5	-2,207850
23,083500	0,5	-2,249600
23,091833	0,5	-2,304150
23,100167	0,5	-2,337900
23,108500	0,5	-2,365950
23,116833	0,5	-2,384800
23,125167	0,5	-2,392550
23,133500	0,5	-2,409150
23,141833	0,5	-2,416400
23,150167	0,5	-2,426350
23,158500	0,5	-2,417250
23,166833	0,5	-2,416400
23,175167	0,5	-2,407250
23,183500	0,5	-2,404700
23,191833	0,5	-2,400250
23,200167	0,5	-2,392900
23,208500	0,5	-2,388750
23,216833	0,5	-2,374400
23,225167	0,5	-2,375950
23,233500	0,5	-2,382500
23,241833	0,5	-2,402200
23,250167	0,5	-2,399300
23,258500	0,5	-2,397050
23,266833	0,5	-2,378650
23,275167	0,5	-2,360650
23,283500	0,5	-2,339250
23,291833	0,5	-2,329400
23,300167	0,5	-2,307100
23,308500	0,5	-2,285300
23,316833	0,5	-2,253850
23,325167	0,5	-2,229100
23,333500	0,5	-2,197250
23,341833	0,5	-2,174800
23,350167	0,5	-2,146400
23,358500	0,5	-2,116550
23,366833	0,5	-2,092400
23,375167	0,5	-2,076500
23,383500	0,5	-2,063150
23,391833	0,5	-2,062600
23,400167	0,5	-2,044600
23,408500	0,5	-2,026300
23,416833	0,5	-2,005700
23,425167	0,5	-1,988000
23,433500	0,5	-1,971900
23,441833	0,5	-1,952800
23,450167	0,5	-1,933650
23,458500	0,5	-1,910000
23,466833	0,5	-1,891350
23,475167	0,5	-1,862750
23,483500	0,5	-1,841050
23,491833	0,5	-1,814900
23,500167	0,5	-1,795200
23,508500	0,5	-1,773100
23,516833	0,5	-1,750200
23,525167	0,5	-1,740800
23,533500	0,5	-1,708500
23,541833	0,5	-1,696300
23,550167	0,5	-1,683000
23,558500	0,5	-1,665800
23,566833	0,5	-1,649950
23,575167	0,5	-1,631800
23,583500	0,5	-1,616200
23,591833	0,5	-1,595100
23,600167	0,5	-1,582750
23,608500	0,5	-1,561450
23,616833	0,5	-1,549750
23,625167	0,5	-1,529900
23,633500	0,5	-1,519350
23,641833	0,5	-1,501400
23,650167	0,5	-1,493100
23,658500	0,5	-1,492550
23,666833	0,5	-1,481050
23,675167	0,5	-1,462300
23,683500	0,5	-1,439100
23,691833	0,5	-1,424800
23,700167	0,5	-1,415200
23,708500	0,5	-1,399550
23,716833	0,5	-1,395750
23,725167	0,5	-1,378550
23,733500	0,5	-1,357650
23,741833	0,5	-1,339800
23,750167	0,5	-1,319950
23,758500	0,5	-1,300250
23,766833	0,5	-1,282650
23,775167	0,5	-1,264700
23,783500	0,5	-1,244900
23,791833	0,5	-1,233200
23,800167	0,5	-1,236950
23,808500	0,5	-1,249200
23,816833	0,5	-1,230300
23,825167	0,5	-1,212250
23,833500	0,5	-1,173800
23,841833	0,5	-1,167450
23,850167	0,5	-1,164300
23,858500	0,5	-1,166500
23,866833	0,5	-1,164200
23,875167	0,5	-1,136800
23,883500	0,5	-1,124900
23,891833	0,5	-1,113350
23,900167	0,5	-1,101550
23,908500	0,5	-1,085200
23,916833	0,5	-1,066750
23,925167	0,5	-1,043550
23,933500	0,5	-1,029100
23,941833	0,5	-1,009650
23,950167	0,5	-1,035250
23,958500	0,5	-0,994550
23,966833	0,5	-1,006550
23,975167	0,5	-0,953900
23,983500	0,5	-0,933500
23,991833	0,5	-0,920150
24,000167	0,5	-0,921050
24,008500	0,5	-0,923250
24,016833	0,5	-0,921750
24,025167	0,5	-0,892850
24,033500	0,5	-0,878950
24,041833	0,5	-0,857800
24,050167	0,5	-0,844600
24,058500	0,5	-0,823950
24,066833	0,5	-0,807850
24,075167	0,5	-0,794300
24,083500	0,5	-0,786450
24,091833	0,5	-0,780050
24,100167	0,5	-0,783550
24,108500	0,5	-0,766000
24,116833	0,5	-0,766500
24,125167	0,5	-0,723350
24,133500	0,5	-0,706450
24,141833	0,5	-0,697450
24,150167	0,5	-0,691450
24,158500	0,5	-0,702350
24,166833	0,5	-0,688800
24,175167	0,5	-0,679100
24,183500	0,5	-0,641350
24,191833	0,5	-0,634150
24,200167	0,5	-0,607550
24,208500	0,5	-0,597650
24,216833	0,5	-0,572150
24,225167	0,5	-0,558650
24,233500	0,5	-0,542550
24,241833	0,5	-0,533900
24,250167	0,5	-0,532850
24,258500	0,5	-0,536600
24,266833	0,5	-0,518700
24,275167	0,5	-0,488350
24,283500	0,5	-0,479200
24,291833	0,5	-0,470350
24,300167	0,5	-0,483250
24,308500	0,5	-0,487250
24,316833	0,5	-0,481550
24,325167	0,5	-0,460250
24,333500	0,5	-0,449900
24,341833	0,5	-0,428100
24,350167	0,5	-0,422650
24,358500	0,5	-0,398550
24,366833	0,5	-0,390900
24,375167	0,5	-0,369700
24,383500	0,5	-0,358350
24,391833	0,5	-0,347100
24,400167	0,5	-0,333000
24,408500	0,5	-0,336350
24,416833	0,5	-0,318750
24,425167	0,5	-0,294300
24,433500	0,5	-0,291250
24,441833	0,5	-0,286450
24,450167	0,5	-0,302900
24,458500	0,5	-0,302500
24,466833	0,5	-0,279300
24,475167	0,5	-0,270000
24,483500	0,5	-0,256800
24,491833	0,5	-0,254950
24,500167	0,5	-0,241950
24,508500	0,5	-0,232250
24,516833	0,5	-0,218750
24,525167	0,5	-0,217700
24,533500	0,5	-0,208700
24,541833	0,5	-0,201250
24,550167	0,5	-0,186000
24,558500	0,5	-0,201550
24,566833	0,5	-0,173650
24,575167	0,5	-0,163500
24,583500	0,5	-0,154350
24,591833	0,5	-0,152050
24,600167	0,5	-0,159200
24,608500	0,5	-0,143750
24,616833	0,5	-0,144100
24,625167	0,5	-0,132750
24,633500	0,5	-0,125950
24,641833	0,5	-0,115850
24,650167	0,5	-0,111800
24,658500	0,5	-0,097550
24,666833	0,5	-0,091450
24,675167	0,5	-0,082650
24,683500	0,5	-0,078750
24,691833	0,5	-0,064250
24,700167	0,5	-0,066200
24,708500	0,5	-0,072850
24,716833	0,5	-0,058700
24,725167	0,5	-0,048750
24,733500	0,5	-0,050750
24,741833	0,5	-0,052300
24,750167	0,5	-0,060150
24,758500	0,5	-0,046800
24,766833	0,5	-0,044250
24,775167	0,5	-0,034150
24,783500	0,5	-0,030700
24,791833	0,5	-0,023650
24,800167	0,5	-0,018350
24,808500	0,5	-0,008000
24,816833	0,5	0,000600
24,825167	0,5	0,003750
24,833500	0,5	0,009750
24,841833	0,5	0,015900
24,850167	0,5	0,019650
24,858500	0,5	0,025000
24,866833	0,5	0,035050
24,875167	0,5	0,036050
24,883500	0,5	0,035750
24,891833	0,5	0,031850
24,900167	0,5	0,028550
24,908500	0,5	0,036900
24,916833	0,5	0,041850
24,925167	0,5	0,043100
24,933500	0,5	0,043800
24,941833	0,5	0,045600
24,950167	0,5	0,049350
24,958500	0,5	0,057250
24,966833	0,5	0,060750
24,975167	0,5	0,062050
24,983500	0,5	0,067500
24,991833	0,5	0,074300
25,000167	0,5	0,074800
25,008500	0,5	0,081050
25,016833	0,5	0,084050
25,025167	0,5	0,089550
25,033500	0,5	0,091000
25,041833	0,5	0,087250
25,050167	0,5	0,087700
25,058500	0,5	0,091750
25,066833	0,5	0,091950
25,075167	0,5	0,099300
25,083500	0,5	0,099100
25,091833	0,5	0,102850
25,100167	0,5	0,102600
25,108500	0,5	0,105850
25,116833	0,5	0,106100
25,125167	0,5	0,106050
25,133500	0,5	0,109500
25,141833	0,5	0,111950
25,150167	0,5	0,106100
25,158500	0,5	0,111950
25,166833	0,5	0,114750
25,175167	0,5	0,115300
25,183500	0,5	0,115350
25,191833	0,5	0,116150
25,200167	0,5	0,119150
25,208500	0,5	0,120900
25,216833	0,5	0,126700
25,225167	0,5	0,125500
25,233500	0,5	0,131650
25,241833	0,5	0,128900
25,250167	0,5	0,131200
25,258500	0,5	0,130650
25,266833	0,5	0,132400
25,275167	0,5	0,136700
25,283500	0,5	0,137100
25,291833	0,5	0,135050
25,300167	0,5	0,134200
25,308500	0,5	0,133000
25,316833	0,5	0,136800
25,325167	0,5	0,130900
25,333500	0,5	0,129850
25,341833	0,5	0,131950
25,350167	0,5	0,133850
25,358500	0,5	0,133600
25,366833	0,5	0,135850
25,375167	0,5	0,136100
25,383500	0,5	0,138900
25,391833	0,5	0,140800
25,400167	0,5	0,139700
25,408500	0,5	0,144100
25,416833	0,5	0,143950
25,425167	0,5	0,142550
25,433500	0,5	0,144250
25,441833	0,5	0,146900
25,450167	0,5	0,146000
25,458500	0,5	0,145400
25,466833	0,5	0,143300
25,475167	0,5	0,144250
25,483500	0,5	0,145350
25,491833	0,5	0,146700
25,500167	0,5	0,144100
25,508500	0,5	0,143950
25,516833	0,5	0,143500
25,525167	0,5	0,144250
25,533500	0,5	0,142250
25,541833	0,5	0,146550
25,550167	0,5	0,144650
25,558500	0,5	0,146150
25,566833	0,5	0,145850
25,575167	0,5	0,144250
25,583500	0,5	0,143600
25,591833	0,5	0,150450
25,600167	0,5	0,145100
25,608500	0,5	0,147350
25,616833	0,5	0,142600
25,625167	0,5	0,143100
25,633500	0,5	0,150350
25,641833	0,5	0,146500
25,650167	0,5	0,145850
25,658500	0,5	0,149750
25,666833	0,5	0,147350
25,675167	0,5	0,148950
25,683500	0,5	0,146300
25,691833	0,5	0,145800
25,700167	0,5	0,143750
25,708500	0,5	0,143800
25,716833	0,5	0,144950
25,725167	0,5	0,140500
25,733500	0,5	0,142900
25,741833	0,5	0,146100
25,750167	0,5	0,140450
25,758500	0,5	0,141500
25,766833	0,5	0,143050
25,775167	0,5	0,145750
25,783500	0,5	0,154550
25,791833	0,5	0,148950
25,800167	0,5	0,152650
25,808500	0,5	0,149100
25,816833	0,5	0,149100
25,825167	0,5	0,146150
25,833500	0,5	0,150700
25,841833	0,5	0,148950
25,850167	0,5	0,150650
25,858500	0,5	0,152500
25,866833	0,5	0,156100
25,875167	0,5	0,148900
25,883500	0,5	0,151700
25,891833	0,5	0,153800
25,900167	0,5	0,149700
25,908500	0,5	0,150650
25,916833	0,5	0,152850
25,925167	0,5	0,158950
25,933500	0,5	0,162000
25,941833	0,5	0,163350
25,950167	0,5	0,160350
25,958500	0,5	0,166900
25,966833	0,5	0,162900
25,975167	0,5	0,164650
25,983500	0,5	0,162300
25,991833	0,5	0,162000
26,000167	0,5	0,162450
