File Path	chrom://chromeleon01/ikbm_chromeleon/2022/ICS-5000/ED1/Esteban/20220612_Cell_7_4_eg.seq/694.smp/ED_1.channel/ED_1.chm
Channel	ED_1

Injection Information:
Data Vault	ikbm_chromeleon
Injection	Std_C1ox-0.01_1
Injection Number	7
Position	RA2
Comment	
Processing Method	Stop sequence after Cell Death
Instrument Method	ICS5000_PA200_FullNative_Ox_26min_ED1
Type	Unknown
Status	Finished
Injection Date	12.06.2022
Injection Time	18:51:19
Injection Volume (µl)	5,0
Dilution Factor	1,0000
Weight	1,0000

Chromatogram Data Information:
Time Min. (min)	0,000167
Time Max. (min)	26,000167
Data Points	3121
Detector	EDet1
Generating Data System	Chromeleon 7.2.9.11323
Exporting Data System	Chromeleon 7.2.9.0
Operator	Instrument Controller
Signal Quantity	
Signal Unit	nC
Signal Min.	-1,672350
Signal Max.	42,261951
Channel	ED_1
Driver Name	DC-5000
Channel Type	Evaluation
Min. Step (s)	0,5
Max. Step (s)	0,5
Average Step (s)	0,5

Signal Parameter Information:
Signal Info	

Chromatogram Data:
Time (min)	Step (s)	Value (nC)
0,000167	n.a.	-0,079700
0,008500	0,5	-0,060950
0,016833	0,5	-0,051400
0,025167	0,5	-0,041250
0,033500	0,5	-0,039500
0,041833	0,5	-0,033550
0,050167	0,5	-0,039150
0,058500	0,5	-0,031050
0,066833	0,5	-0,040150
0,075167	0,5	-0,032650
0,083500	0,5	-0,011050
0,091833	0,5	-0,023350
0,100167	0,5	-0,044050
0,108500	0,5	-0,033750
0,116833	0,5	-0,031100
0,125167	0,5	-0,008500
0,133500	0,5	-0,007950
0,141833	0,5	-0,010450
0,150167	0,5	-0,011100
0,158500	0,5	-0,007000
0,166833	0,5	-0,014300
0,175167	0,5	-0,016700
0,183500	0,5	-0,011400
0,191833	0,5	-0,019650
0,200167	0,5	-0,015000
0,208500	0,5	-0,020000
0,216833	0,5	-0,019950
0,225167	0,5	-0,022150
0,233500	0,5	-0,003000
0,241833	0,5	-0,027950
0,250167	0,5	-0,028900
0,258500	0,5	-0,025800
0,266833	0,5	-0,009400
0,275167	0,5	0,006350
0,283500	0,5	0,001350
0,291833	0,5	-0,004050
0,300167	0,5	0,009650
0,308500	0,5	0,001050
0,316833	0,5	-0,008600
0,325167	0,5	-0,012050
0,333500	0,5	-0,015750
0,341833	0,5	-0,014250
0,350167	0,5	-0,010800
0,358500	0,5	-0,004350
0,366833	0,5	-0,022350
0,375167	0,5	-0,003450
0,383500	0,5	-0,004600
0,391833	0,5	-0,018300
0,400167	0,5	-0,021500
0,408500	0,5	-0,012950
0,416833	0,5	-0,004500
0,425167	0,5	0,005400
0,433500	0,5	-0,009150
0,441833	0,5	0,004450
0,450167	0,5	0,002000
0,458500	0,5	0,003950
0,466833	0,5	0,001100
0,475167	0,5	0,007250
0,483500	0,5	-0,000550
0,491833	0,5	-0,002600
0,500167	0,5	0,004750
0,508500	0,5	-0,001950
0,516833	0,5	-0,012900
0,525167	0,5	0,007800
0,533500	0,5	-0,005300
0,541833	0,5	-0,006150
0,550167	0,5	-0,006900
0,558500	0,5	-0,000550
0,566833	0,5	0,030650
0,575167	0,5	0,021700
0,583500	0,5	0,022900
0,591833	0,5	0,020350
0,600167	0,5	0,030350
0,608500	0,5	0,020450
0,616833	0,5	0,026250
0,625167	0,5	0,021850
0,633500	0,5	0,027950
0,641833	0,5	0,027350
0,650167	0,5	0,026600
0,658500	0,5	0,025650
0,666833	0,5	0,025200
0,675167	0,5	0,035150
0,683500	0,5	0,026350
0,691833	0,5	0,027600
0,700167	0,5	0,027200
0,708500	0,5	0,041150
0,716833	0,5	0,060100
0,725167	0,5	0,059200
0,733500	0,5	0,052700
0,741833	0,5	0,059250
0,750167	0,5	0,056350
0,758500	0,5	0,066350
0,766833	0,5	0,061150
0,775167	0,5	0,065200
0,783500	0,5	0,055350
0,791833	0,5	0,061050
0,800167	0,5	0,062700
0,808500	0,5	0,067700
0,816833	0,5	0,066300
0,825167	0,5	0,078200
0,833500	0,5	0,059700
0,841833	0,5	0,065100
0,850167	0,5	0,066400
0,858500	0,5	0,087000
0,866833	0,5	0,101000
0,875167	0,5	0,098050
0,883500	0,5	0,101600
0,891833	0,5	0,102950
0,900167	0,5	0,101700
0,908500	0,5	0,100000
0,916833	0,5	0,100650
0,925167	0,5	0,099550
0,933500	0,5	0,101250
0,941833	0,5	0,098750
0,950167	0,5	0,101650
0,958500	0,5	0,095950
0,966833	0,5	0,115250
0,975167	0,5	0,106100
0,983500	0,5	0,099800
0,991833	0,5	0,103150
1,000167	0,5	0,109350
1,008500	0,5	0,125850
1,016833	0,5	0,133250
1,025167	0,5	0,131900
1,033500	0,5	0,130500
1,041833	0,5	0,134200
1,050167	0,5	0,139100
1,058500	0,5	0,132850
1,066833	0,5	0,130350
1,075167	0,5	0,131450
1,083500	0,5	0,128100
1,091833	0,5	0,133500
1,100167	0,5	0,122450
1,108500	0,5	0,130750
1,116833	0,5	0,142650
1,125167	0,5	0,131150
1,133500	0,5	0,122000
1,141833	0,5	0,129250
1,150167	0,5	0,128250
1,158500	0,5	0,154400
1,166833	0,5	0,145450
1,175167	0,5	0,149600
1,183500	0,5	0,140400
1,191833	0,5	0,146950
1,200167	0,5	0,138550
1,208500	0,5	0,141650
1,216833	0,5	0,136350
1,225167	0,5	0,131700
1,233500	0,5	0,134150
1,241833	0,5	0,137250
1,250167	0,5	0,137650
1,258500	0,5	0,135100
1,266833	0,5	0,139850
1,275167	0,5	0,120650
1,283500	0,5	0,114700
1,291833	0,5	0,113650
1,300167	0,5	0,125500
1,308500	0,5	0,133200
1,316833	0,5	0,125450
1,325167	0,5	0,113100
1,333500	0,5	0,121000
1,341833	0,5	0,109900
1,350167	0,5	0,111750
1,358500	0,5	0,103700
1,366833	0,5	0,100850
1,375167	0,5	0,094450
1,383500	0,5	0,088200
1,391833	0,5	0,091550
1,400167	0,5	0,076850
1,408500	0,5	0,084200
1,416833	0,5	0,078800
1,425167	0,5	0,067800
1,433500	0,5	0,064750
1,441833	0,5	0,070800
1,450167	0,5	0,087300
1,458500	0,5	0,109950
1,466833	0,5	0,101450
1,475167	0,5	0,120500
1,483500	0,5	0,113100
1,491833	0,5	0,119000
1,500167	0,5	0,107600
1,508500	0,5	0,103050
1,516833	0,5	0,091800
1,525167	0,5	0,086900
1,533500	0,5	0,079800
1,541833	0,5	0,059800
1,550167	0,5	0,005450
1,558500	0,5	-0,117250
1,566833	0,5	-0,502400
1,575167	0,5	-1,088500
1,583500	0,5	-1,586450
1,591833	0,5	-1,615600
1,600167	0,5	-1,065700
1,608500	0,5	-0,131350
1,616833	0,5	1,078350
1,625167	0,5	2,323000
1,633500	0,5	3,240750
1,641833	0,5	3,574850
1,650167	0,5	3,434300
1,658500	0,5	3,099000
1,666833	0,5	2,813150
1,675167	0,5	2,624600
1,683500	0,5	2,536500
1,691833	0,5	2,496300
1,700167	0,5	2,506850
1,708500	0,5	2,521350
1,716833	0,5	2,503950
1,725167	0,5	2,483950
1,733500	0,5	2,489400
1,741833	0,5	2,584600
1,750167	0,5	2,841350
1,758500	0,5	3,224100
1,766833	0,5	3,613000
1,775167	0,5	3,885500
1,783500	0,5	3,958900
1,791833	0,5	3,855800
1,800167	0,5	3,639150
1,808500	0,5	3,374850
1,816833	0,5	3,106800
1,825167	0,5	2,872800
1,833500	0,5	2,669800
1,841833	0,5	2,519750
1,850167	0,5	2,411050
1,858500	0,5	2,316750
1,866833	0,5	2,194850
1,875167	0,5	2,142050
1,883500	0,5	2,257950
1,891833	0,5	2,833800
1,900167	0,5	4,334500
1,908500	0,5	7,711650
1,916833	0,5	13,925900
1,925167	0,5	21,501450
1,933500	0,5	25,928700
1,941833	0,5	24,695400
1,950167	0,5	19,881750
1,958500	0,5	14,715950
1,966833	0,5	10,775800
1,975167	0,5	8,147100
1,983500	0,5	6,451300
1,991833	0,5	5,304300
2,000167	0,5	4,527050
2,008500	0,5	3,950600
2,016833	0,5	3,543300
2,025167	0,5	3,266650
2,033500	0,5	3,074400
2,041833	0,5	2,936550
2,050167	0,5	2,799550
2,058500	0,5	2,655700
2,066833	0,5	2,533600
2,075167	0,5	2,430000
2,083500	0,5	2,352400
2,091833	0,5	2,294250
2,100167	0,5	2,253900
2,108500	0,5	2,221300
2,116833	0,5	2,203400
2,125167	0,5	2,201050
2,133500	0,5	2,194750
2,141833	0,5	2,213200
2,150167	0,5	2,253800
2,158500	0,5	2,273700
2,166833	0,5	2,309250
2,175167	0,5	2,368000
2,183500	0,5	2,424950
2,191833	0,5	2,502300
2,200167	0,5	2,564900
2,208500	0,5	2,626650
2,216833	0,5	2,680400
2,225167	0,5	2,744000
2,233500	0,5	2,800600
2,241833	0,5	2,880700
2,250167	0,5	2,960200
2,258500	0,5	3,048300
2,266833	0,5	3,138300
2,275167	0,5	3,227650
2,283500	0,5	3,313050
2,291833	0,5	3,407250
2,300167	0,5	3,500200
2,308500	0,5	3,574950
2,316833	0,5	3,664650
2,325167	0,5	3,757350
2,333500	0,5	3,861100
2,341833	0,5	3,958750
2,350167	0,5	4,043800
2,358500	0,5	4,126700
2,366833	0,5	4,222950
2,375167	0,5	4,311050
2,383500	0,5	4,416050
2,391833	0,5	4,532000
2,400167	0,5	4,679800
2,408500	0,5	4,863100
2,416833	0,5	5,089950
2,425167	0,5	5,346400
2,433500	0,5	5,630700
2,441833	0,5	6,053700
2,450167	0,5	6,765450
2,458500	0,5	7,945550
2,466833	0,5	9,583500
2,475167	0,5	11,236550
2,483500	0,5	12,221600
2,491833	0,5	12,103050
2,500167	0,5	11,030650
2,508500	0,5	9,594200
2,516833	0,5	8,272750
2,525167	0,5	7,296700
2,533500	0,5	6,650400
2,541833	0,5	6,253750
2,550167	0,5	6,000050
2,558500	0,5	5,852450
2,566833	0,5	5,751200
2,575167	0,5	5,678100
2,583500	0,5	5,618650
2,591833	0,5	5,590000
2,600167	0,5	5,540950
2,608500	0,5	5,505250
2,616833	0,5	5,467800
2,625167	0,5	5,436650
2,633500	0,5	5,398350
2,641833	0,5	5,339300
2,650167	0,5	5,277500
2,658500	0,5	5,214150
2,666833	0,5	5,151000
2,675167	0,5	5,089200
2,683500	0,5	5,040750
2,691833	0,5	4,981700
2,700167	0,5	4,933200
2,708500	0,5	4,873250
2,716833	0,5	4,824200
2,725167	0,5	4,761350
2,733500	0,5	4,710350
2,741833	0,5	4,651650
2,750167	0,5	4,576300
2,758500	0,5	4,496600
2,766833	0,5	4,415700
2,775167	0,5	4,340800
2,783500	0,5	4,273000
2,791833	0,5	4,187950
2,800167	0,5	4,107000
2,808500	0,5	4,023500
2,816833	0,5	3,944400
2,825167	0,5	3,859500
2,833500	0,5	3,781900
2,841833	0,5	3,706650
2,850167	0,5	3,626800
2,858500	0,5	3,553700
2,866833	0,5	3,467250
2,875167	0,5	3,394300
2,883500	0,5	3,324650
2,891833	0,5	3,244850
2,900167	0,5	3,156350
2,908500	0,5	3,082550
2,916833	0,5	2,999200
2,925167	0,5	2,937150
2,933500	0,5	2,864050
2,941833	0,5	2,789650
2,950167	0,5	2,712300
2,958500	0,5	2,641750
2,966833	0,5	2,569500
2,975167	0,5	2,505750
2,983500	0,5	2,433250
2,991833	0,5	2,369200
3,000167	0,5	2,313800
3,008500	0,5	2,259650
3,016833	0,5	2,205200
3,025167	0,5	2,154750
3,033500	0,5	2,122350
3,041833	0,5	2,060750
3,050167	0,5	2,008450
3,058500	0,5	1,964950
3,066833	0,5	1,939100
3,075167	0,5	1,939950
3,083500	0,5	1,935950
3,091833	0,5	1,934500
3,100167	0,5	1,927250
3,108500	0,5	1,883700
3,116833	0,5	1,813150
3,125167	0,5	1,709650
3,133500	0,5	1,602300
3,141833	0,5	1,485250
3,150167	0,5	1,384800
3,158500	0,5	1,304700
3,166833	0,5	1,230100
3,175167	0,5	1,180750
3,183500	0,5	1,151150
3,191833	0,5	1,111500
3,200167	0,5	1,085450
3,208500	0,5	1,062400
3,216833	0,5	1,035100
3,225167	0,5	1,008650
3,233500	0,5	0,944200
3,241833	0,5	0,896000
3,250167	0,5	0,836650
3,258500	0,5	0,789300
3,266833	0,5	0,734900
3,275167	0,5	0,696300
3,283500	0,5	0,650000
3,291833	0,5	0,617900
3,300167	0,5	0,583100
3,308500	0,5	0,550050
3,316833	0,5	0,511950
3,325167	0,5	0,493500
3,333500	0,5	0,473150
3,341833	0,5	0,450500
3,350167	0,5	0,440050
3,358500	0,5	0,451200
3,366833	0,5	0,473450
3,375167	0,5	0,510250
3,383500	0,5	0,542850
3,391833	0,5	0,578750
3,400167	0,5	0,614800
3,408500	0,5	0,641700
3,416833	0,5	0,677600
3,425167	0,5	0,726500
3,433500	0,5	0,821050
3,441833	0,5	0,982050
3,450167	0,5	1,235850
3,458500	0,5	1,575600
3,466833	0,5	1,976400
3,475167	0,5	2,401250
3,483500	0,5	2,764300
3,491833	0,5	2,988700
3,500167	0,5	3,034600
3,508500	0,5	2,889000
3,516833	0,5	2,594250
3,525167	0,5	2,200650
3,533500	0,5	1,786550
3,541833	0,5	1,418950
3,550167	0,5	1,131050
3,558500	0,5	0,943600
3,566833	0,5	0,848650
3,575167	0,5	0,855250
3,583500	0,5	0,960150
3,591833	0,5	1,193900
3,600167	0,5	1,551950
3,608500	0,5	2,025050
3,616833	0,5	2,563350
3,625167	0,5	3,112750
3,633500	0,5	3,539650
3,641833	0,5	3,791900
3,650167	0,5	3,801500
3,658500	0,5	3,585900
3,666833	0,5	3,177800
3,675167	0,5	2,659000
3,683500	0,5	2,113250
3,691833	0,5	1,619550
3,700167	0,5	1,204350
3,708500	0,5	0,881650
3,716833	0,5	0,647400
3,725167	0,5	0,471650
3,733500	0,5	0,346400
3,741833	0,5	0,251250
3,750167	0,5	0,178600
3,758500	0,5	0,104300
3,766833	0,5	0,062350
3,775167	0,5	0,024000
3,783500	0,5	-0,019700
3,791833	0,5	-0,053000
3,800167	0,5	-0,075250
3,808500	0,5	-0,090700
3,816833	0,5	-0,098500
3,825167	0,5	-0,117700
3,833500	0,5	-0,132650
3,841833	0,5	-0,153850
3,850167	0,5	-0,159150
3,858500	0,5	-0,173250
3,866833	0,5	-0,180650
3,875167	0,5	-0,195100
3,883500	0,5	-0,206650
3,891833	0,5	-0,214000
3,900167	0,5	-0,224400
3,908500	0,5	-0,232600
3,916833	0,5	-0,224650
3,925167	0,5	-0,237450
3,933500	0,5	-0,249200
3,941833	0,5	-0,250400
3,950167	0,5	-0,252150
3,958500	0,5	-0,243000
3,966833	0,5	-0,241750
3,975167	0,5	-0,237400
3,983500	0,5	-0,244550
3,991833	0,5	-0,237950
4,000167	0,5	-0,243250
4,008500	0,5	-0,245550
4,016833	0,5	-0,248000
4,025167	0,5	-0,250350
4,033500	0,5	-0,250350
4,041833	0,5	-0,248800
4,050167	0,5	-0,241850
4,058500	0,5	-0,235000
4,066833	0,5	-0,208800
4,075167	0,5	-0,200050
4,083500	0,5	-0,175250
4,091833	0,5	-0,138850
4,100167	0,5	-0,087550
4,108500	0,5	-0,017300
4,116833	0,5	0,043500
4,125167	0,5	0,114750
4,133500	0,5	0,210150
4,141833	0,5	0,325400
4,150167	0,5	0,480900
4,158500	0,5	0,679850
4,166833	0,5	0,970300
4,175167	0,5	1,382450
4,183500	0,5	1,969300
4,191833	0,5	2,753050
4,200167	0,5	3,728650
4,208500	0,5	4,852500
4,216833	0,5	6,043400
4,225167	0,5	7,091700
4,233500	0,5	7,895650
4,241833	0,5	8,320300
4,250167	0,5	8,313750
4,258500	0,5	7,906850
4,266833	0,5	7,156300
4,275167	0,5	6,225450
4,283500	0,5	5,221100
4,291833	0,5	4,256250
4,300167	0,5	3,393600
4,308500	0,5	2,670750
4,316833	0,5	2,080700
4,325167	0,5	1,623450
4,333500	0,5	1,273850
4,341833	0,5	1,016450
4,350167	0,5	0,800100
4,358500	0,5	0,657800
4,366833	0,5	0,538450
4,375167	0,5	0,442800
4,383500	0,5	0,371550
4,391833	0,5	0,330300
4,400167	0,5	0,301350
4,408500	0,5	0,289750
4,416833	0,5	0,281900
4,425167	0,5	0,281150
4,433500	0,5	0,290650
4,441833	0,5	0,300200
4,450167	0,5	0,299150
4,458500	0,5	0,291750
4,466833	0,5	0,280600
4,475167	0,5	0,248150
4,483500	0,5	0,215600
4,491833	0,5	0,168950
4,500167	0,5	0,123900
4,508500	0,5	0,085950
4,516833	0,5	0,040600
4,525167	0,5	0,002400
4,533500	0,5	-0,024750
4,541833	0,5	-0,044700
4,550167	0,5	-0,051450
4,558500	0,5	-0,063200
4,566833	0,5	-0,074100
4,575167	0,5	-0,089150
4,583500	0,5	-0,095050
4,591833	0,5	-0,104050
4,600167	0,5	-0,109100
4,608500	0,5	-0,116150
4,616833	0,5	-0,127800
4,625167	0,5	-0,129400
4,633500	0,5	-0,137300
4,641833	0,5	-0,139700
4,650167	0,5	-0,144800
4,658500	0,5	-0,144600
4,666833	0,5	-0,158150
4,675167	0,5	-0,163550
4,683500	0,5	-0,172800
4,691833	0,5	-0,168400
4,700167	0,5	-0,164500
4,708500	0,5	-0,162200
4,716833	0,5	-0,171450
4,725167	0,5	-0,167550
4,733500	0,5	-0,176300
4,741833	0,5	-0,178350
4,750167	0,5	-0,183900
4,758500	0,5	-0,185950
4,766833	0,5	-0,190100
4,775167	0,5	-0,192150
4,783500	0,5	-0,190150
4,791833	0,5	-0,198050
4,800167	0,5	-0,188950
4,808500	0,5	-0,191850
4,816833	0,5	-0,196700
4,825167	0,5	-0,198650
4,833500	0,5	-0,194850
4,841833	0,5	-0,181700
4,850167	0,5	-0,174500
4,858500	0,5	-0,181950
4,866833	0,5	-0,177650
4,875167	0,5	-0,183250
4,883500	0,5	-0,175300
4,891833	0,5	-0,179700
4,900167	0,5	-0,176150
4,908500	0,5	-0,176250
4,916833	0,5	-0,172300
4,925167	0,5	-0,172200
4,933500	0,5	-0,173700
4,941833	0,5	-0,175400
4,950167	0,5	-0,158900
4,958500	0,5	-0,166200
4,966833	0,5	-0,167650
4,975167	0,5	-0,168500
4,983500	0,5	-0,164900
4,991833	0,5	-0,149050
5,000167	0,5	-0,155600
5,008500	0,5	-0,151750
5,016833	0,5	-0,157050
5,025167	0,5	-0,154650
5,033500	0,5	-0,157950
5,041833	0,5	-0,154400
5,050167	0,5	-0,163350
5,058500	0,5	-0,159050
5,066833	0,5	-0,160050
5,075167	0,5	-0,159100
5,083500	0,5	-0,161500
5,091833	0,5	-0,165700
5,100167	0,5	-0,158050
5,108500	0,5	-0,166150
5,116833	0,5	-0,167800
5,125167	0,5	-0,164250
5,133500	0,5	-0,159600
5,141833	0,5	-0,147100
5,150167	0,5	-0,150250
5,158500	0,5	-0,153400
5,166833	0,5	-0,150000
5,175167	0,5	-0,149300
5,183500	0,5	-0,148250
5,191833	0,5	-0,148250
5,200167	0,5	-0,148750
5,208500	0,5	-0,150750
5,216833	0,5	-0,147500
5,225167	0,5	-0,148350
5,233500	0,5	-0,143200
5,241833	0,5	-0,146050
5,250167	0,5	-0,138800
5,258500	0,5	-0,151550
5,266833	0,5	-0,148050
5,275167	0,5	-0,147500
5,283500	0,5	-0,141100
5,291833	0,5	-0,129950
5,300167	0,5	-0,135000
5,308500	0,5	-0,133450
5,316833	0,5	-0,132500
5,325167	0,5	-0,127900
5,333500	0,5	-0,125150
5,341833	0,5	-0,122550
5,350167	0,5	-0,123350
5,358500	0,5	-0,125150
5,366833	0,5	-0,123250
5,375167	0,5	-0,119100
5,383500	0,5	-0,123000
5,391833	0,5	-0,114500
5,400167	0,5	-0,120850
5,408500	0,5	-0,125850
5,416833	0,5	-0,129650
5,425167	0,5	-0,120450
5,433500	0,5	-0,116050
5,441833	0,5	-0,110500
5,450167	0,5	-0,111500
5,458500	0,5	-0,111550
5,466833	0,5	-0,107250
5,475167	0,5	-0,101250
5,483500	0,5	-0,097350
5,491833	0,5	-0,087050
5,500167	0,5	-0,074650
5,508500	0,5	-0,057650
5,516833	0,5	-0,038450
5,525167	0,5	-0,026650
5,533500	0,5	-0,011650
5,541833	0,5	0,009550
5,550167	0,5	0,013850
5,558500	0,5	0,014900
5,566833	0,5	0,017150
5,575167	0,5	0,014150
5,583500	0,5	0,016150
5,591833	0,5	0,005450
5,600167	0,5	-0,006800
5,608500	0,5	-0,022200
5,616833	0,5	-0,033250
5,625167	0,5	-0,047000
5,633500	0,5	-0,055850
5,641833	0,5	-0,069200
5,650167	0,5	-0,075050
5,658500	0,5	-0,082150
5,666833	0,5	-0,084200
5,675167	0,5	-0,087650
5,683500	0,5	-0,077750
5,691833	0,5	-0,069100
5,700167	0,5	-0,065050
5,708500	0,5	-0,058500
5,716833	0,5	-0,051400
5,725167	0,5	-0,038150
5,733500	0,5	-0,033700
5,741833	0,5	-0,042000
5,750167	0,5	-0,057550
5,758500	0,5	-0,068600
5,766833	0,5	-0,090300
5,775167	0,5	-0,105050
5,783500	0,5	-0,122000
5,791833	0,5	-0,129800
5,800167	0,5	-0,140300
5,808500	0,5	-0,139950
5,816833	0,5	-0,144400
5,825167	0,5	-0,143600
5,833500	0,5	-0,135100
5,841833	0,5	-0,135200
5,850167	0,5	-0,139950
5,858500	0,5	-0,135650
5,866833	0,5	-0,130750
5,875167	0,5	-0,119850
5,883500	0,5	-0,118700
5,891833	0,5	-0,125100
5,900167	0,5	-0,127050
5,908500	0,5	-0,130200
5,916833	0,5	-0,133300
5,925167	0,5	-0,137550
5,933500	0,5	-0,144950
5,941833	0,5	-0,156550
5,950167	0,5	-0,159750
5,958500	0,5	-0,168250
5,966833	0,5	-0,173450
5,975167	0,5	-0,191500
5,983500	0,5	-0,185200
5,991833	0,5	-0,199750
6,000167	0,5	-0,204150
6,008500	0,5	-0,207600
6,016833	0,5	-0,211350
6,025167	0,5	-0,203850
6,033500	0,5	-0,209200
6,041833	0,5	-0,209700
6,050167	0,5	-0,207800
6,058500	0,5	-0,209850
6,066833	0,5	-0,211750
6,075167	0,5	-0,209100
6,083500	0,5	-0,212950
6,091833	0,5	-0,212600
6,100167	0,5	-0,215800
6,108500	0,5	-0,214350
6,116833	0,5	-0,219950
6,125167	0,5	-0,221150
6,133500	0,5	-0,216000
6,141833	0,5	-0,225450
6,150167	0,5	-0,224050
6,158500	0,5	-0,223750
6,166833	0,5	-0,220500
6,175167	0,5	-0,208700
6,183500	0,5	-0,211350
6,191833	0,5	-0,212350
6,200167	0,5	-0,214350
6,208500	0,5	-0,210300
6,216833	0,5	-0,212750
6,225167	0,5	-0,212200
6,233500	0,5	-0,209400
6,241833	0,5	-0,208050
6,250167	0,5	-0,203500
6,258500	0,5	-0,199050
6,266833	0,5	-0,196950
6,275167	0,5	-0,186700
6,283500	0,5	-0,173150
6,291833	0,5	-0,166700
6,300167	0,5	-0,144350
6,308500	0,5	-0,115250
6,316833	0,5	-0,067200
6,325167	0,5	-0,013750
6,333500	0,5	0,051500
6,341833	0,5	0,130050
6,350167	0,5	0,224400
6,358500	0,5	0,334700
6,366833	0,5	0,458900
6,375167	0,5	0,595850
6,383500	0,5	0,747850
6,391833	0,5	0,907500
6,400167	0,5	1,081400
6,408500	0,5	1,268900
6,416833	0,5	1,488800
6,425167	0,5	1,761400
6,433500	0,5	2,102250
6,441833	0,5	2,567000
6,450167	0,5	3,227550
6,458500	0,5	4,167450
6,466833	0,5	5,501700
6,475167	0,5	7,322950
6,483500	0,5	9,693450
6,491833	0,5	12,613400
6,500167	0,5	15,959450
6,508500	0,5	19,484850
6,516833	0,5	22,840350
6,525167	0,5	25,632800
6,533500	0,5	27,502300
6,541833	0,5	28,235250
6,550167	0,5	27,771200
6,558500	0,5	26,202000
6,566833	0,5	23,797700
6,575167	0,5	20,858100
6,583500	0,5	17,681200
6,591833	0,5	14,564750
6,600167	0,5	11,722100
6,608500	0,5	9,265950
6,616833	0,5	7,245800
6,625167	0,5	5,631500
6,633500	0,5	4,399150
6,641833	0,5	3,463000
6,650167	0,5	2,771750
6,658500	0,5	2,257600
6,666833	0,5	1,884050
6,675167	0,5	1,594350
6,683500	0,5	1,373950
6,691833	0,5	1,206150
6,700167	0,5	1,068150
6,708500	0,5	0,953850
6,716833	0,5	0,867150
6,725167	0,5	0,788900
6,733500	0,5	0,720000
6,741833	0,5	0,659800
6,750167	0,5	0,608700
6,758500	0,5	0,572900
6,766833	0,5	0,539250
6,775167	0,5	0,507650
6,783500	0,5	0,473500
6,791833	0,5	0,450500
6,800167	0,5	0,423000
6,808500	0,5	0,405050
6,816833	0,5	0,380850
6,825167	0,5	0,360850
6,833500	0,5	0,341800
6,841833	0,5	0,328350
6,850167	0,5	0,319600
6,858500	0,5	0,304750
6,866833	0,5	0,297800
6,875167	0,5	0,282350
6,883500	0,5	0,269850
6,891833	0,5	0,258250
6,900167	0,5	0,250650
6,908500	0,5	0,254700
6,916833	0,5	0,249900
6,925167	0,5	0,238350
6,933500	0,5	0,233050
6,941833	0,5	0,231100
6,950167	0,5	0,224550
6,958500	0,5	0,218200
6,966833	0,5	0,216500
6,975167	0,5	0,211500
6,983500	0,5	0,208150
6,991833	0,5	0,206600
7,000167	0,5	0,203500
7,008500	0,5	0,196600
7,016833	0,5	0,202900
7,025167	0,5	0,188650
7,033500	0,5	0,190650
7,041833	0,5	0,187150
7,050167	0,5	0,188600
7,058500	0,5	0,191800
7,066833	0,5	0,189650
7,075167	0,5	0,188800
7,083500	0,5	0,189750
7,091833	0,5	0,188650
7,100167	0,5	0,185400
7,108500	0,5	0,188400
7,116833	0,5	0,183550
7,125167	0,5	0,183700
7,133500	0,5	0,182100
7,141833	0,5	0,183700
7,150167	0,5	0,180950
7,158500	0,5	0,182000
7,166833	0,5	0,188300
7,175167	0,5	0,179750
7,183500	0,5	0,185300
7,191833	0,5	0,187200
7,200167	0,5	0,187500
7,208500	0,5	0,202750
7,216833	0,5	0,198950
7,225167	0,5	0,199000
7,233500	0,5	0,202100
7,241833	0,5	0,203550
7,250167	0,5	0,203400
7,258500	0,5	0,207050
7,266833	0,5	0,212000
7,275167	0,5	0,213600
7,283500	0,5	0,216000
7,291833	0,5	0,219750
7,300167	0,5	0,225700
7,308500	0,5	0,233400
7,316833	0,5	0,239850
7,325167	0,5	0,240200
7,333500	0,5	0,249100
7,341833	0,5	0,251550
7,350167	0,5	0,258650
7,358500	0,5	0,261650
7,366833	0,5	0,262550
7,375167	0,5	0,260300
7,383500	0,5	0,257750
7,391833	0,5	0,251800
7,400167	0,5	0,249300
7,408500	0,5	0,248650
7,416833	0,5	0,247650
7,425167	0,5	0,244550
7,433500	0,5	0,242200
7,441833	0,5	0,242100
7,450167	0,5	0,245050
7,458500	0,5	0,248600
7,466833	0,5	0,244050
7,475167	0,5	0,244450
7,483500	0,5	0,244050
7,491833	0,5	0,247550
7,500167	0,5	0,253100
7,508500	0,5	0,260250
7,516833	0,5	0,261200
7,525167	0,5	0,264200
7,533500	0,5	0,266500
7,541833	0,5	0,272250
7,550167	0,5	0,268650
7,558500	0,5	0,271500
7,566833	0,5	0,272500
7,575167	0,5	0,275200
7,583500	0,5	0,281000
7,591833	0,5	0,276700
7,600167	0,5	0,284250
7,608500	0,5	0,293650
7,616833	0,5	0,290550
7,625167	0,5	0,293800
7,633500	0,5	0,301300
7,641833	0,5	0,310350
7,650167	0,5	0,324800
7,658500	0,5	0,329350
7,666833	0,5	0,336800
7,675167	0,5	0,339250
7,683500	0,5	0,346550
7,691833	0,5	0,344900
7,700167	0,5	0,349300
7,708500	0,5	0,346900
7,716833	0,5	0,346050
7,725167	0,5	0,345350
7,733500	0,5	0,346150
7,741833	0,5	0,340200
7,750167	0,5	0,346850
7,758500	0,5	0,350050
7,766833	0,5	0,354450
7,775167	0,5	0,359550
7,783500	0,5	0,367650
7,791833	0,5	0,380750
7,800167	0,5	0,392300
7,808500	0,5	0,402550
7,816833	0,5	0,408700
7,825167	0,5	0,410550
7,833500	0,5	0,410450
7,841833	0,5	0,404550
7,850167	0,5	0,401350
7,858500	0,5	0,393800
7,866833	0,5	0,385700
7,875167	0,5	0,379500
7,883500	0,5	0,376100
7,891833	0,5	0,372850
7,900167	0,5	0,375500
7,908500	0,5	0,373700
7,916833	0,5	0,372250
7,925167	0,5	0,374250
7,933500	0,5	0,380300
7,941833	0,5	0,388100
7,950167	0,5	0,392150
7,958500	0,5	0,392750
7,966833	0,5	0,399350
7,975167	0,5	0,399900
7,983500	0,5	0,405100
7,991833	0,5	0,409300
8,000167	0,5	0,415600
8,008500	0,5	0,416300
8,016833	0,5	0,421000
8,025167	0,5	0,423750
8,033500	0,5	0,427050
8,041833	0,5	0,425200
8,050167	0,5	0,432300
8,058500	0,5	0,430950
8,066833	0,5	0,432650
8,075167	0,5	0,434250
8,083500	0,5	0,441050
8,091833	0,5	0,448700
8,100167	0,5	0,449450
8,108500	0,5	0,455950
8,116833	0,5	0,457850
8,125167	0,5	0,458300
8,133500	0,5	0,461650
8,141833	0,5	0,466900
8,150167	0,5	0,471250
8,158500	0,5	0,474500
8,166833	0,5	0,481500
8,175167	0,5	0,491500
8,183500	0,5	0,496800
8,191833	0,5	0,510450
8,200167	0,5	0,523950
8,208500	0,5	0,535650
8,216833	0,5	0,545750
8,225167	0,5	0,551850
8,233500	0,5	0,562300
8,241833	0,5	0,565150
8,250167	0,5	0,565200
8,258500	0,5	0,560600
8,266833	0,5	0,558200
8,275167	0,5	0,569500
8,283500	0,5	0,590100
8,291833	0,5	0,629250
8,300167	0,5	0,701400
8,308500	0,5	0,808000
8,316833	0,5	0,950200
8,325167	0,5	1,135700
8,333500	0,5	1,363850
8,341833	0,5	1,626250
8,350167	0,5	1,920450
8,358500	0,5	2,248200
8,366833	0,5	2,617450
8,375167	0,5	3,070200
8,383500	0,5	3,692600
8,391833	0,5	4,624150
8,400167	0,5	6,096100
8,408500	0,5	8,426150
8,416833	0,5	11,954700
8,425167	0,5	16,861900
8,433500	0,5	22,995100
8,441833	0,5	29,689400
8,450167	0,5	35,879401
8,458500	0,5	40,370351
8,466833	0,5	42,261951
8,475167	0,5	41,234601
8,483500	0,5	37,660401
8,491833	0,5	32,362550
8,500167	0,5	26,319000
8,508500	0,5	20,410550
8,516833	0,5	15,248250
8,525167	0,5	11,104300
8,533500	0,5	7,995600
8,541833	0,5	5,783050
8,550167	0,5	4,266550
8,558500	0,5	3,257300
8,566833	0,5	2,593350
8,575167	0,5	2,154250
8,583500	0,5	1,859350
8,591833	0,5	1,658600
8,600167	0,5	1,513350
8,608500	0,5	1,407550
8,616833	0,5	1,324650
8,625167	0,5	1,260750
8,633500	0,5	1,202950
8,641833	0,5	1,158850
8,650167	0,5	1,113900
8,658500	0,5	1,073500
8,666833	0,5	1,040900
8,675167	0,5	1,015800
8,683500	0,5	0,991850
8,691833	0,5	0,971400
8,700167	0,5	0,951100
8,708500	0,5	0,933800
8,716833	0,5	0,915350
8,725167	0,5	0,902950
8,733500	0,5	0,892000
8,741833	0,5	0,878650
8,750167	0,5	0,865200
8,758500	0,5	0,859850
8,766833	0,5	0,847100
8,775167	0,5	0,835550
8,783500	0,5	0,828050
8,791833	0,5	0,819750
8,800167	0,5	0,811400
8,808500	0,5	0,806000
8,816833	0,5	0,797850
8,825167	0,5	0,793350
8,833500	0,5	0,791650
8,841833	0,5	0,788350
8,850167	0,5	0,779950
8,858500	0,5	0,778050
8,866833	0,5	0,774250
8,875167	0,5	0,767150
8,883500	0,5	0,768150
8,891833	0,5	0,762250
8,900167	0,5	0,760400
8,908500	0,5	0,758400
8,916833	0,5	0,754300
8,925167	0,5	0,749550
8,933500	0,5	0,750600
8,941833	0,5	0,747900
8,950167	0,5	0,741200
8,958500	0,5	0,741050
8,966833	0,5	0,737950
8,975167	0,5	0,738650
8,983500	0,5	0,739250
8,991833	0,5	0,739050
9,000167	0,5	0,738450
9,008500	0,5	0,739050
9,016833	0,5	0,735850
9,025167	0,5	0,734350
9,033500	0,5	0,735450
9,041833	0,5	0,732150
9,050167	0,5	0,731450
9,058500	0,5	0,732500
9,066833	0,5	0,732500
9,075167	0,5	0,728400
9,083500	0,5	0,728850
9,091833	0,5	0,726500
9,100167	0,5	0,724350
9,108500	0,5	0,723450
9,116833	0,5	0,723200
9,125167	0,5	0,721400
9,133500	0,5	0,727550
9,141833	0,5	0,725900
9,150167	0,5	0,724100
9,158500	0,5	0,726500
9,166833	0,5	0,726650
9,175167	0,5	0,728300
9,183500	0,5	0,731650
9,191833	0,5	0,727600
9,200167	0,5	0,727000
9,208500	0,5	0,724850
9,216833	0,5	0,728150
9,225167	0,5	0,725900
9,233500	0,5	0,726200
9,241833	0,5	0,726100
9,250167	0,5	0,723950
9,258500	0,5	0,723350
9,266833	0,5	0,722650
9,275167	0,5	0,724650
9,283500	0,5	0,727500
9,291833	0,5	0,725950
9,300167	0,5	0,728650
9,308500	0,5	0,730100
9,316833	0,5	0,727850
9,325167	0,5	0,730850
9,333500	0,5	0,730050
9,341833	0,5	0,729950
9,350167	0,5	0,731550
9,358500	0,5	0,729500
9,366833	0,5	0,728500
9,375167	0,5	0,728500
9,383500	0,5	0,731800
9,391833	0,5	0,727850
9,400167	0,5	0,726350
9,408500	0,5	0,726900
9,416833	0,5	0,729750
9,425167	0,5	0,734350
9,433500	0,5	0,735550
9,441833	0,5	0,737000
9,450167	0,5	0,736950
9,458500	0,5	0,739700
9,466833	0,5	0,741200
9,475167	0,5	0,741900
9,483500	0,5	0,742750
9,491833	0,5	0,743850
9,500167	0,5	0,743550
9,508500	0,5	0,745400
9,516833	0,5	0,747300
9,525167	0,5	0,748000
9,533500	0,5	0,749250
9,541833	0,5	0,749650
9,550167	0,5	0,751100
9,558500	0,5	0,750250
9,566833	0,5	0,752600
9,575167	0,5	0,752200
9,583500	0,5	0,755750
9,591833	0,5	0,751650
9,600167	0,5	0,751250
9,608500	0,5	0,750400
9,616833	0,5	0,750400
9,625167	0,5	0,752050
9,633500	0,5	0,748200
9,641833	0,5	0,747700
9,650167	0,5	0,746350
9,658500	0,5	0,749600
9,666833	0,5	0,750300
9,675167	0,5	0,751000
9,683500	0,5	0,748950
9,691833	0,5	0,752200
9,700167	0,5	0,752950
9,708500	0,5	0,754000
9,716833	0,5	0,756600
9,725167	0,5	0,756950
9,733500	0,5	0,752100
9,741833	0,5	0,754100
9,750167	0,5	0,752600
9,758500	0,5	0,750450
9,766833	0,5	0,749750
9,775167	0,5	0,752050
9,783500	0,5	0,754750
9,791833	0,5	0,761100
9,800167	0,5	0,767100
9,808500	0,5	0,774650
9,816833	0,5	0,786500
9,825167	0,5	0,807900
9,833500	0,5	0,819650
9,841833	0,5	0,835350
9,850167	0,5	0,846250
9,858500	0,5	0,851900
9,866833	0,5	0,856500
9,875167	0,5	0,850650
9,883500	0,5	0,844700
9,891833	0,5	0,840200
9,900167	0,5	0,831250
9,908500	0,5	0,826350
9,916833	0,5	0,820250
9,925167	0,5	0,812850
9,933500	0,5	0,803400
9,941833	0,5	0,796300
9,950167	0,5	0,782950
9,958500	0,5	0,774700
9,966833	0,5	0,764900
9,975167	0,5	0,756950
9,983500	0,5	0,746450
9,991833	0,5	0,741300
10,000167	0,5	0,738250
10,008500	0,5	0,733950
10,016833	0,5	0,732800
10,025167	0,5	0,729350
10,033500	0,5	0,729350
10,041833	0,5	0,727800
10,050167	0,5	0,727400
10,058500	0,5	0,725550
10,066833	0,5	0,725750
10,075167	0,5	0,726300
10,083500	0,5	0,724100
10,091833	0,5	0,724500
10,100167	0,5	0,722800
10,108500	0,5	0,726400
10,116833	0,5	0,726750
10,125167	0,5	0,728150
10,133500	0,5	0,731050
10,141833	0,5	0,733950
10,150167	0,5	0,734350
10,158500	0,5	0,736000
10,166833	0,5	0,737300
10,175167	0,5	0,738200
10,183500	0,5	0,735450
10,191833	0,5	0,730300
10,200167	0,5	0,729150
10,208500	0,5	0,726850
10,216833	0,5	0,725100
10,225167	0,5	0,725700
10,233500	0,5	0,727650
10,241833	0,5	0,727950
10,250167	0,5	0,729600
10,258500	0,5	0,737200
10,266833	0,5	0,741850
10,275167	0,5	0,749100
10,283500	0,5	0,757200
10,291833	0,5	0,760650
10,300167	0,5	0,762350
10,308500	0,5	0,767750
10,316833	0,5	0,772650
10,325167	0,5	0,770200
10,333500	0,5	0,769000
10,341833	0,5	0,764650
10,350167	0,5	0,761350
10,358500	0,5	0,757900
10,366833	0,5	0,754850
10,375167	0,5	0,754650
10,383500	0,5	0,754600
10,391833	0,5	0,755300
10,400167	0,5	0,754850
10,408500	0,5	0,748750
10,416833	0,5	0,749350
10,425167	0,5	0,743300
10,433500	0,5	0,730750
10,441833	0,5	0,726850
10,450167	0,5	0,716550
10,458500	0,5	0,716900
10,466833	0,5	0,711050
10,475167	0,5	0,707750
10,483500	0,5	0,701700
10,491833	0,5	0,699800
10,500167	0,5	0,699050
10,508500	0,5	0,697000
10,516833	0,5	0,694600
10,525167	0,5	0,697950
10,533500	0,5	0,696350
10,541833	0,5	0,698450
10,550167	0,5	0,693850
10,558500	0,5	0,696600
10,566833	0,5	0,697850
10,575167	0,5	0,695000
10,583500	0,5	0,693500
10,591833	0,5	0,693300
10,600167	0,5	0,696500
10,608500	0,5	0,698100
10,616833	0,5	0,700350
10,625167	0,5	0,701900
10,633500	0,5	0,705200
10,641833	0,5	0,708950
10,650167	0,5	0,714800
10,658500	0,5	0,716900
10,666833	0,5	0,723450
10,675167	0,5	0,719850
10,683500	0,5	0,723100
10,691833	0,5	0,725100
10,700167	0,5	0,723250
10,708500	0,5	0,722850
10,716833	0,5	0,718850
10,725167	0,5	0,715400
10,733500	0,5	0,706750
10,741833	0,5	0,699050
10,750167	0,5	0,700150
10,758500	0,5	0,699850
10,766833	0,5	0,694750
10,775167	0,5	0,693150
10,783500	0,5	0,690550
10,791833	0,5	0,690800
10,800167	0,5	0,688050
10,808500	0,5	0,686300
10,816833	0,5	0,687150
10,825167	0,5	0,685950
10,833500	0,5	0,686200
10,841833	0,5	0,683800
10,850167	0,5	0,676750
10,858500	0,5	0,679450
10,866833	0,5	0,678050
10,875167	0,5	0,675300
10,883500	0,5	0,671550
10,891833	0,5	0,666450
10,900167	0,5	0,671150
10,908500	0,5	0,670250
10,916833	0,5	0,669750
10,925167	0,5	0,669500
10,933500	0,5	0,669250
10,941833	0,5	0,669950
10,950167	0,5	0,668650
10,958500	0,5	0,666400
10,966833	0,5	0,667950
10,975167	0,5	0,667000
10,983500	0,5	0,669050
10,991833	0,5	0,667750
11,000167	0,5	0,664100
11,008500	0,5	0,669350
11,016833	0,5	0,668150
11,025167	0,5	0,668650
11,033500	0,5	0,664900
11,041833	0,5	0,668800
11,050167	0,5	0,674350
11,058500	0,5	0,681200
11,066833	0,5	0,686450
11,075167	0,5	0,695100
11,083500	0,5	0,709150
11,091833	0,5	0,723200
11,100167	0,5	0,739550
11,108500	0,5	0,753800
11,116833	0,5	0,765500
11,125167	0,5	0,777500
11,133500	0,5	0,780400
11,141833	0,5	0,776450
11,150167	0,5	0,767700
11,158500	0,5	0,756000
11,166833	0,5	0,741550
11,175167	0,5	0,728650
11,183500	0,5	0,713000
11,191833	0,5	0,702900
11,200167	0,5	0,698850
11,208500	0,5	0,694000
11,216833	0,5	0,689600
11,225167	0,5	0,689500
11,233500	0,5	0,683050
11,241833	0,5	0,683650
11,250167	0,5	0,684500
11,258500	0,5	0,681200
11,266833	0,5	0,680050
11,275167	0,5	0,680850
11,283500	0,5	0,681850
11,291833	0,5	0,682950
11,300167	0,5	0,692000
11,308500	0,5	0,699600
11,316833	0,5	0,703450
11,325167	0,5	0,710450
11,333500	0,5	0,721250
11,341833	0,5	0,728200
11,350167	0,5	0,735350
11,358500	0,5	0,742000
11,366833	0,5	0,747000
11,375167	0,5	0,745850
11,383500	0,5	0,744700
11,391833	0,5	0,738200
11,400167	0,5	0,736350
11,408500	0,5	0,733000
11,416833	0,5	0,728750
11,425167	0,5	0,727300
11,433500	0,5	0,723700
11,441833	0,5	0,719950
11,450167	0,5	0,718250
11,458500	0,5	0,709700
11,466833	0,5	0,700350
11,475167	0,5	0,689500
11,483500	0,5	0,683150
11,491833	0,5	0,676500
11,500167	0,5	0,670950
11,508500	0,5	0,665750
11,516833	0,5	0,659150
11,525167	0,5	0,651750
11,533500	0,5	0,645850
11,541833	0,5	0,641000
11,550167	0,5	0,634650
11,558500	0,5	0,631600
11,566833	0,5	0,627750
11,575167	0,5	0,626600
11,583500	0,5	0,615200
11,591833	0,5	0,615900
11,600167	0,5	0,610450
11,608500	0,5	0,608500
11,616833	0,5	0,604600
11,625167	0,5	0,598150
11,633500	0,5	0,601300
11,641833	0,5	0,601600
11,650167	0,5	0,598650
11,658500	0,5	0,596000
11,666833	0,5	0,594550
11,675167	0,5	0,592900
11,683500	0,5	0,590400
11,691833	0,5	0,593300
11,700167	0,5	0,589150
11,708500	0,5	0,585100
11,716833	0,5	0,581000
11,725167	0,5	0,582750
11,733500	0,5	0,577750
11,741833	0,5	0,579250
11,750167	0,5	0,576250
11,758500	0,5	0,576350
11,766833	0,5	0,573350
11,775167	0,5	0,569750
11,783500	0,5	0,573850
11,791833	0,5	0,576050
11,800167	0,5	0,575800
11,808500	0,5	0,575700
11,816833	0,5	0,573900
11,825167	0,5	0,573600
11,833500	0,5	0,572750
11,841833	0,5	0,570750
11,850167	0,5	0,567150
11,858500	0,5	0,569200
11,866833	0,5	0,565200
11,875167	0,5	0,567100
11,883500	0,5	0,565900
11,891833	0,5	0,569150
11,900167	0,5	0,569350
11,908500	0,5	0,565600
11,916833	0,5	0,566350
11,925167	0,5	0,566400
11,933500	0,5	0,569750
11,941833	0,5	0,576100
11,950167	0,5	0,575800
11,958500	0,5	0,578900
11,966833	0,5	0,575150
11,975167	0,5	0,578150
11,983500	0,5	0,581450
11,991833	0,5	0,579750
12,000167	0,5	0,580650
12,008500	0,5	0,578300
12,016833	0,5	0,578000
12,025167	0,5	0,577250
12,033500	0,5	0,580100
12,041833	0,5	0,582200
12,050167	0,5	0,579600
12,058500	0,5	0,580700
12,066833	0,5	0,579400
12,075167	0,5	0,583400
12,083500	0,5	0,587100
12,091833	0,5	0,593100
12,100167	0,5	0,596650
12,108500	0,5	0,603100
12,116833	0,5	0,611650
12,125167	0,5	0,621250
12,133500	0,5	0,632200
12,141833	0,5	0,648450
12,150167	0,5	0,659500
12,158500	0,5	0,676650
12,166833	0,5	0,686050
12,175167	0,5	0,693350
12,183500	0,5	0,700850
12,191833	0,5	0,702900
12,200167	0,5	0,696750
12,208500	0,5	0,688600
12,216833	0,5	0,680050
12,225167	0,5	0,671050
12,233500	0,5	0,666600
12,241833	0,5	0,659900
12,250167	0,5	0,657250
12,258500	0,5	0,651600
12,266833	0,5	0,645300
12,275167	0,5	0,645800
12,283500	0,5	0,641250
12,291833	0,5	0,641100
12,300167	0,5	0,640800
12,308500	0,5	0,638250
12,316833	0,5	0,631400
12,325167	0,5	0,633850
12,333500	0,5	0,634150
12,341833	0,5	0,631750
12,350167	0,5	0,630650
12,358500	0,5	0,624550
12,366833	0,5	0,625950
12,375167	0,5	0,632000
12,383500	0,5	0,637050
12,391833	0,5	0,637700
12,400167	0,5	0,642700
12,408500	0,5	0,642700
12,416833	0,5	0,649850
12,425167	0,5	0,650800
12,433500	0,5	0,652250
12,441833	0,5	0,659950
12,450167	0,5	0,659200
12,458500	0,5	0,666850
12,466833	0,5	0,660650
12,475167	0,5	0,672500
12,483500	0,5	0,678700
12,491833	0,5	0,680500
12,500167	0,5	0,681800
12,508500	0,5	0,681950
12,516833	0,5	0,688750
12,525167	0,5	0,695550
12,533500	0,5	0,695900
12,541833	0,5	0,701800
12,550167	0,5	0,700150
12,558500	0,5	0,699600
12,566833	0,5	0,698350
12,575167	0,5	0,701200
12,583500	0,5	0,696600
12,591833	0,5	0,696250
12,600167	0,5	0,694600
12,608500	0,5	0,693450
12,616833	0,5	0,682150
12,625167	0,5	0,688350
12,633500	0,5	0,684750
12,641833	0,5	0,681300
12,650167	0,5	0,677100
12,658500	0,5	0,664850
12,666833	0,5	0,675050
12,675167	0,5	0,671500
12,683500	0,5	0,671150
12,691833	0,5	0,668500
12,700167	0,5	0,668400
12,708500	0,5	0,666450
12,716833	0,5	0,664700
12,725167	0,5	0,663000
12,733500	0,5	0,663650
12,741833	0,5	0,661200
12,750167	0,5	0,662600
12,758500	0,5	0,662100
12,766833	0,5	0,657450
12,775167	0,5	0,660000
12,783500	0,5	0,661750
12,791833	0,5	0,660050
12,800167	0,5	0,657650
12,808500	0,5	0,654150
12,816833	0,5	0,662500
12,825167	0,5	0,665500
12,833500	0,5	0,666550
12,841833	0,5	0,666850
12,850167	0,5	0,668300
12,858500	0,5	0,665350
12,866833	0,5	0,666450
12,875167	0,5	0,668350
12,883500	0,5	0,664800
12,891833	0,5	0,667000
12,900167	0,5	0,662700
12,908500	0,5	0,663550
12,916833	0,5	0,659600
12,925167	0,5	0,660800
12,933500	0,5	0,660350
12,941833	0,5	0,658450
12,950167	0,5	0,652600
12,958500	0,5	0,651550
12,966833	0,5	0,655850
12,975167	0,5	0,657550
12,983500	0,5	0,656350
12,991833	0,5	0,657550
13,000167	0,5	0,659350
13,008500	0,5	0,659500
13,016833	0,5	0,659900
13,025167	0,5	0,660100
13,033500	0,5	0,657850
13,041833	0,5	0,657600
13,050167	0,5	0,658450
13,058500	0,5	0,650400
13,066833	0,5	0,655250
13,075167	0,5	0,659850
13,083500	0,5	0,658150
13,091833	0,5	0,652350
13,100167	0,5	0,653500
13,108500	0,5	0,654600
13,116833	0,5	0,660650
13,125167	0,5	0,658900
13,133500	0,5	0,661650
13,141833	0,5	0,662800
13,150167	0,5	0,664400
13,158500	0,5	0,661200
13,166833	0,5	0,663700
13,175167	0,5	0,666250
13,183500	0,5	0,665950
13,191833	0,5	0,664400
13,200167	0,5	0,663950
13,208500	0,5	0,666350
13,216833	0,5	0,669200
13,225167	0,5	0,666800
13,233500	0,5	0,666850
13,241833	0,5	0,667250
13,250167	0,5	0,662100
13,258500	0,5	0,667750
13,266833	0,5	0,667350
13,275167	0,5	0,672600
13,283500	0,5	0,673000
13,291833	0,5	0,677300
13,300167	0,5	0,676400
13,308500	0,5	0,678000
13,316833	0,5	0,680000
13,325167	0,5	0,680500
13,333500	0,5	0,682550
13,341833	0,5	0,681200
13,350167	0,5	0,672650
13,358500	0,5	0,677850
13,366833	0,5	0,682000
13,375167	0,5	0,681800
13,383500	0,5	0,681800
13,391833	0,5	0,679800
13,400167	0,5	0,685300
13,408500	0,5	0,684650
13,416833	0,5	0,688800
13,425167	0,5	0,689350
13,433500	0,5	0,689350
13,441833	0,5	0,689100
13,450167	0,5	0,690950
13,458500	0,5	0,693900
13,466833	0,5	0,693050
13,475167	0,5	0,694050
13,483500	0,5	0,694600
13,491833	0,5	0,698100
13,500167	0,5	0,691750
13,508500	0,5	0,699550
13,516833	0,5	0,699700
13,525167	0,5	0,701400
13,533500	0,5	0,698500
13,541833	0,5	0,695000
13,550167	0,5	0,696600
13,558500	0,5	0,700550
13,566833	0,5	0,699400
13,575167	0,5	0,703000
13,583500	0,5	0,702300
13,591833	0,5	0,701800
13,600167	0,5	0,699200
13,608500	0,5	0,702500
13,616833	0,5	0,702100
13,625167	0,5	0,703800
13,633500	0,5	0,703250
13,641833	0,5	0,707650
13,650167	0,5	0,695600
13,658500	0,5	0,706650
13,666833	0,5	0,706200
13,675167	0,5	0,707100
13,683500	0,5	0,704650
13,691833	0,5	0,704700
13,700167	0,5	0,714450
13,708500	0,5	0,713150
13,716833	0,5	0,716200
13,725167	0,5	0,718700
13,733500	0,5	0,720700
13,741833	0,5	0,721700
13,750167	0,5	0,719850
13,758500	0,5	0,724300
13,766833	0,5	0,725650
13,775167	0,5	0,727700
13,783500	0,5	0,733800
13,791833	0,5	0,730700
13,800167	0,5	0,736000
13,808500	0,5	0,740850
13,816833	0,5	0,743400
13,825167	0,5	0,741700
13,833500	0,5	0,738800
13,841833	0,5	0,738400
13,850167	0,5	0,739400
13,858500	0,5	0,742100
13,866833	0,5	0,739850
13,875167	0,5	0,737900
13,883500	0,5	0,737350
13,891833	0,5	0,735000
13,900167	0,5	0,735100
13,908500	0,5	0,737350
13,916833	0,5	0,734100
13,925167	0,5	0,735850
13,933500	0,5	0,735000
13,941833	0,5	0,731350
13,950167	0,5	0,730750
13,958500	0,5	0,731200
13,966833	0,5	0,726550
13,975167	0,5	0,723150
13,983500	0,5	0,716050
13,991833	0,5	0,720300
14,000167	0,5	0,720650
14,008500	0,5	0,724100
14,016833	0,5	0,721900
14,025167	0,5	0,727250
14,033500	0,5	0,723700
14,041833	0,5	0,726350
14,050167	0,5	0,727550
14,058500	0,5	0,725750
14,066833	0,5	0,728650
14,075167	0,5	0,730000
14,083500	0,5	0,727700
14,091833	0,5	0,724550
14,100167	0,5	0,730450
14,108500	0,5	0,726050
14,116833	0,5	0,728800
14,125167	0,5	0,724600
14,133500	0,5	0,722600
14,141833	0,5	0,726500
14,150167	0,5	0,727700
14,158500	0,5	0,733400
14,166833	0,5	0,737850
14,175167	0,5	0,738550
14,183500	0,5	0,740050
14,191833	0,5	0,738900
14,200167	0,5	0,738450
14,208500	0,5	0,738500
14,216833	0,5	0,733200
14,225167	0,5	0,738850
14,233500	0,5	0,733150
14,241833	0,5	0,732950
14,250167	0,5	0,734600
14,258500	0,5	0,735050
14,266833	0,5	0,731850
14,275167	0,5	0,729350
14,283500	0,5	0,731700
14,291833	0,5	0,741800
14,300167	0,5	0,743150
14,308500	0,5	0,753050
14,316833	0,5	0,752600
14,325167	0,5	0,755650
14,333500	0,5	0,752700
14,341833	0,5	0,750100
14,350167	0,5	0,745100
14,358500	0,5	0,741950
14,366833	0,5	0,742500
14,375167	0,5	0,741800
14,383500	0,5	0,731900
14,391833	0,5	0,737200
14,400167	0,5	0,739400
14,408500	0,5	0,735500
14,416833	0,5	0,736200
14,425167	0,5	0,726650
14,433500	0,5	0,737250
14,441833	0,5	0,732950
14,450167	0,5	0,734900
14,458500	0,5	0,733550
14,466833	0,5	0,737400
14,475167	0,5	0,738350
14,483500	0,5	0,737900
14,491833	0,5	0,737200
14,500167	0,5	0,738700
14,508500	0,5	0,738150
14,516833	0,5	0,739550
14,525167	0,5	0,738550
14,533500	0,5	0,733750
14,541833	0,5	0,741500
14,550167	0,5	0,737950
14,558500	0,5	0,737350
14,566833	0,5	0,728750
14,575167	0,5	0,722600
14,583500	0,5	0,729950
14,591833	0,5	0,730150
14,600167	0,5	0,727550
14,608500	0,5	0,731250
14,616833	0,5	0,730600
14,625167	0,5	0,733250
14,633500	0,5	0,728900
14,641833	0,5	0,731850
14,650167	0,5	0,730450
14,658500	0,5	0,730150
14,666833	0,5	0,731250
14,675167	0,5	0,733000
14,683500	0,5	0,730850
14,691833	0,5	0,741000
14,700167	0,5	0,740300
14,708500	0,5	0,735650
14,716833	0,5	0,735450
14,725167	0,5	0,733700
14,733500	0,5	0,742350
14,741833	0,5	0,740550
14,750167	0,5	0,750800
14,758500	0,5	0,750400
14,766833	0,5	0,758900
14,775167	0,5	0,766850
14,783500	0,5	0,777250
14,791833	0,5	0,783850
14,800167	0,5	0,789250
14,808500	0,5	0,798850
14,816833	0,5	0,806900
14,825167	0,5	0,798200
14,833500	0,5	0,801700
14,841833	0,5	0,796600
14,850167	0,5	0,788150
14,858500	0,5	0,774800
14,866833	0,5	0,764800
14,875167	0,5	0,757150
14,883500	0,5	0,756100
14,891833	0,5	0,756300
14,900167	0,5	0,756650
14,908500	0,5	0,758750
14,916833	0,5	0,760900
14,925167	0,5	0,766800
14,933500	0,5	0,767000
14,941833	0,5	0,772650
14,950167	0,5	0,773400
14,958500	0,5	0,782300
14,966833	0,5	0,781050
14,975167	0,5	0,776050
14,983500	0,5	0,778900
14,991833	0,5	0,777950
15,000167	0,5	0,769350
15,008500	0,5	0,761800
15,016833	0,5	0,755800
15,025167	0,5	0,754700
15,033500	0,5	0,759650
15,041833	0,5	0,758100
15,050167	0,5	0,760000
15,058500	0,5	0,762900
15,066833	0,5	0,762950
15,075167	0,5	0,765900
15,083500	0,5	0,770000
15,091833	0,5	0,763000
15,100167	0,5	0,765800
15,108500	0,5	0,765000
15,116833	0,5	0,758450
15,125167	0,5	0,762000
15,133500	0,5	0,766200
15,141833	0,5	0,758700
15,150167	0,5	0,758600
15,158500	0,5	0,748350
15,166833	0,5	0,750200
15,175167	0,5	0,748700
15,183500	0,5	0,749500
15,191833	0,5	0,749150
15,200167	0,5	0,750850
15,208500	0,5	0,749800
15,216833	0,5	0,749350
15,225167	0,5	0,748600
15,233500	0,5	0,748550
15,241833	0,5	0,743400
15,250167	0,5	0,742500
15,258500	0,5	0,750300
15,266833	0,5	0,738850
15,275167	0,5	0,752100
15,283500	0,5	0,754000
15,291833	0,5	0,754500
15,300167	0,5	0,748200
15,308500	0,5	0,742550
15,316833	0,5	0,747850
15,325167	0,5	0,753850
15,333500	0,5	0,750500
15,341833	0,5	0,751150
15,350167	0,5	0,754200
15,358500	0,5	0,759950
15,366833	0,5	0,762900
15,375167	0,5	0,771250
15,383500	0,5	0,776400
15,391833	0,5	0,778550
15,400167	0,5	0,792300
15,408500	0,5	0,799350
15,416833	0,5	0,799300
15,425167	0,5	0,806900
15,433500	0,5	0,813300
15,441833	0,5	0,807100
15,450167	0,5	0,805000
15,458500	0,5	0,799300
15,466833	0,5	0,809300
15,475167	0,5	0,804500
15,483500	0,5	0,805800
15,491833	0,5	0,800550
15,500167	0,5	0,804100
15,508500	0,5	0,801550
15,516833	0,5	0,804800
15,525167	0,5	0,809200
15,533500	0,5	0,804750
15,541833	0,5	0,804200
15,550167	0,5	0,808700
15,558500	0,5	0,803850
15,566833	0,5	0,807550
15,575167	0,5	0,812350
15,583500	0,5	0,809850
15,591833	0,5	0,807500
15,600167	0,5	0,802500
15,608500	0,5	0,805500
15,616833	0,5	0,805500
15,625167	0,5	0,814750
15,633500	0,5	0,810150
15,641833	0,5	0,813300
15,650167	0,5	0,818200
15,658500	0,5	0,822200
15,666833	0,5	0,819400
15,675167	0,5	0,821200
15,683500	0,5	0,823800
15,691833	0,5	0,826550
15,700167	0,5	0,827250
15,708500	0,5	0,822450
15,716833	0,5	0,827700
15,725167	0,5	0,829600
15,733500	0,5	0,831300
15,741833	0,5	0,823550
15,750167	0,5	0,818800
15,758500	0,5	0,821850
15,766833	0,5	0,830500
15,775167	0,5	0,831050
15,783500	0,5	0,834850
15,791833	0,5	0,832850
15,800167	0,5	0,840150
15,808500	0,5	0,835300
15,816833	0,5	0,835600
15,825167	0,5	0,836350
15,833500	0,5	0,837800
15,841833	0,5	0,839600
15,850167	0,5	0,837800
15,858500	0,5	0,823450
15,866833	0,5	0,833750
15,875167	0,5	0,832750
15,883500	0,5	0,831100
15,891833	0,5	0,823350
15,900167	0,5	0,818700
15,908500	0,5	0,830550
15,916833	0,5	0,829650
15,925167	0,5	0,838400
15,933500	0,5	0,840000
15,941833	0,5	0,841900
15,950167	0,5	0,843350
15,958500	0,5	0,852000
15,966833	0,5	0,854100
15,975167	0,5	0,857500
15,983500	0,5	0,860350
15,991833	0,5	0,866750
16,000167	0,5	0,857350
16,008500	0,5	0,866800
16,016833	0,5	0,872150
16,025167	0,5	0,872050
16,033500	0,5	0,867350
16,041833	0,5	0,853400
16,050167	0,5	0,860250
16,058500	0,5	0,865450
16,066833	0,5	0,867150
16,075167	0,5	0,874500
16,083500	0,5	0,884100
16,091833	0,5	0,891050
16,100167	0,5	0,899550
16,108500	0,5	0,906350
16,116833	0,5	0,914000
16,125167	0,5	0,915000
16,133500	0,5	0,921100
16,141833	0,5	0,912300
16,150167	0,5	0,899850
16,158500	0,5	0,898650
16,166833	0,5	0,895150
16,175167	0,5	0,883500
16,183500	0,5	0,880450
16,191833	0,5	0,865650
16,200167	0,5	0,867600
16,208500	0,5	0,869750
16,216833	0,5	0,869400
16,225167	0,5	0,872850
16,233500	0,5	0,874550
16,241833	0,5	0,871950
16,250167	0,5	0,874600
16,258500	0,5	0,878050
16,266833	0,5	0,874700
16,275167	0,5	0,877600
16,283500	0,5	0,882900
16,291833	0,5	0,881700
16,300167	0,5	0,877100
16,308500	0,5	0,887150
16,316833	0,5	0,885650
16,325167	0,5	0,884800
16,333500	0,5	0,877100
16,341833	0,5	0,871700
16,350167	0,5	0,881400
16,358500	0,5	0,887550
16,366833	0,5	0,883100
16,375167	0,5	0,888400
16,383500	0,5	0,886250
16,391833	0,5	0,889050
16,400167	0,5	0,892800
16,408500	0,5	0,894650
16,416833	0,5	0,899950
16,425167	0,5	0,899600
16,433500	0,5	0,906650
16,441833	0,5	0,896500
16,450167	0,5	0,901950
16,458500	0,5	0,903950
16,466833	0,5	0,908200
16,475167	0,5	0,902250
16,483500	0,5	0,898250
16,491833	0,5	0,898050
16,500167	0,5	0,907600
16,508500	0,5	0,911400
16,516833	0,5	0,913700
16,525167	0,5	0,919900
16,533500	0,5	0,924900
16,541833	0,5	0,924000
16,550167	0,5	0,930600
16,558500	0,5	0,932650
16,566833	0,5	0,936150
16,575167	0,5	0,948850
16,583500	0,5	0,947050
16,591833	0,5	0,942650
16,600167	0,5	0,949250
16,608500	0,5	0,951550
16,616833	0,5	0,947650
16,625167	0,5	0,943250
16,633500	0,5	0,931900
16,641833	0,5	0,938750
16,650167	0,5	0,938750
16,658500	0,5	0,949200
16,666833	0,5	0,947300
16,675167	0,5	0,957700
16,683500	0,5	0,953100
16,691833	0,5	0,958750
16,700167	0,5	0,965800
16,708500	0,5	0,967550
16,716833	0,5	0,976000
16,725167	0,5	0,985200
16,733500	0,5	0,984400
16,741833	0,5	0,979700
16,750167	0,5	0,987300
16,758500	0,5	0,990650
16,766833	0,5	0,989000
16,775167	0,5	0,980650
16,783500	0,5	0,983050
16,791833	0,5	0,984300
16,800167	0,5	0,992550
16,808500	0,5	0,995200
16,816833	0,5	1,003850
16,825167	0,5	1,006100
16,833500	0,5	1,011400
16,841833	0,5	1,013350
16,850167	0,5	1,019700
16,858500	0,5	1,019950
16,866833	0,5	1,027550
16,875167	0,5	1,033600
16,883500	0,5	1,028900
16,891833	0,5	1,034900
16,900167	0,5	1,041000
16,908500	0,5	1,041650
16,916833	0,5	1,043650
16,925167	0,5	1,036050
16,933500	0,5	1,033750
16,941833	0,5	1,042350
16,950167	0,5	1,044200
16,958500	0,5	1,051450
16,966833	0,5	1,055500
16,975167	0,5	1,062350
16,983500	0,5	1,061300
16,991833	0,5	1,068500
17,000167	0,5	1,070450
17,008500	0,5	1,071350
17,016833	0,5	1,080250
17,025167	0,5	1,083100
17,033500	0,5	1,072800
17,041833	0,5	1,084850
17,050167	0,5	1,090550
17,058500	0,5	1,094150
17,066833	0,5	1,092200
17,075167	0,5	1,089800
17,083500	0,5	1,103050
17,091833	0,5	1,105050
17,100167	0,5	1,108750
17,108500	0,5	1,107550
17,116833	0,5	1,111250
17,125167	0,5	1,110750
17,133500	0,5	1,114100
17,141833	0,5	1,109900
17,150167	0,5	1,116250
17,158500	0,5	1,113300
17,166833	0,5	1,119950
17,175167	0,5	1,112950
17,183500	0,5	1,118150
17,191833	0,5	1,119300
17,200167	0,5	1,123650
17,208500	0,5	1,122000
17,216833	0,5	1,117050
17,225167	0,5	1,116850
17,233500	0,5	1,120650
17,241833	0,5	1,123250
17,250167	0,5	1,124250
17,258500	0,5	1,131850
17,266833	0,5	1,133700
17,275167	0,5	1,139100
17,283500	0,5	1,139100
17,291833	0,5	1,140100
17,300167	0,5	1,135150
17,308500	0,5	1,137050
17,316833	0,5	1,137900
17,325167	0,5	1,131750
17,333500	0,5	1,137800
17,341833	0,5	1,136000
17,350167	0,5	1,130050
17,358500	0,5	1,129850
17,366833	0,5	1,118000
17,375167	0,5	1,120700
17,383500	0,5	1,125900
17,391833	0,5	1,125450
17,400167	0,5	1,127050
17,408500	0,5	1,127050
17,416833	0,5	1,127400
17,425167	0,5	1,127500
17,433500	0,5	1,132900
17,441833	0,5	1,124200
17,450167	0,5	1,131100
17,458500	0,5	1,127800
17,466833	0,5	1,133400
17,475167	0,5	1,125000
17,483500	0,5	1,131600
17,491833	0,5	1,130050
17,500167	0,5	1,124600
17,508500	0,5	1,118050
17,516833	0,5	1,108500
17,525167	0,5	1,114050
17,533500	0,5	1,113450
17,541833	0,5	1,114250
17,550167	0,5	1,116400
17,558500	0,5	1,115350
17,566833	0,5	1,122300
17,575167	0,5	1,119500
17,583500	0,5	1,120300
17,591833	0,5	1,118800
17,600167	0,5	1,121100
17,608500	0,5	1,126950
17,616833	0,5	1,125700
17,625167	0,5	1,124500
17,633500	0,5	1,130100
17,641833	0,5	1,132050
17,650167	0,5	1,127750
17,658500	0,5	1,120700
17,666833	0,5	1,113100
17,675167	0,5	1,117450
17,683500	0,5	1,119550
17,691833	0,5	1,124050
17,700167	0,5	1,122250
17,708500	0,5	1,128650
17,716833	0,5	1,129150
17,725167	0,5	1,130750
17,733500	0,5	1,128950
17,741833	0,5	1,130800
17,750167	0,5	1,134300
17,758500	0,5	1,134900
17,766833	0,5	1,127800
17,775167	0,5	1,131450
17,783500	0,5	1,134700
17,791833	0,5	1,126650
17,800167	0,5	1,123150
17,808500	0,5	1,110900
17,816833	0,5	1,111750
17,825167	0,5	1,114500
17,833500	0,5	1,115550
17,841833	0,5	1,113300
17,850167	0,5	1,115850
17,858500	0,5	1,116850
17,866833	0,5	1,117900
17,875167	0,5	1,118950
17,883500	0,5	1,122850
17,891833	0,5	1,123500
17,900167	0,5	1,125350
17,908500	0,5	1,121300
17,916833	0,5	1,121300
17,925167	0,5	1,128250
17,933500	0,5	1,127700
17,941833	0,5	1,125200
17,950167	0,5	1,120250
17,958500	0,5	1,119300
17,966833	0,5	1,119400
17,975167	0,5	1,126300
17,983500	0,5	1,122750
17,991833	0,5	1,128050
18,000167	0,5	1,125900
18,008500	0,5	1,125650
18,016833	0,5	1,127700
18,025167	0,5	1,130250
18,033500	0,5	1,122550
18,041833	0,5	1,123900
18,050167	0,5	1,134400
18,058500	0,5	1,124750
18,066833	0,5	1,130000
18,075167	0,5	1,137200
18,083500	0,5	1,134900
18,091833	0,5	1,131250
18,100167	0,5	1,120250
18,108500	0,5	1,122150
18,116833	0,5	1,127600
18,125167	0,5	1,129300
18,133500	0,5	1,128800
18,141833	0,5	1,129600
18,150167	0,5	1,136900
18,158500	0,5	1,138350
18,166833	0,5	1,142300
18,175167	0,5	1,143650
18,183500	0,5	1,143650
18,191833	0,5	1,148850
18,200167	0,5	1,152900
18,208500	0,5	1,139200
18,216833	0,5	1,148250
18,225167	0,5	1,150900
18,233500	0,5	1,146350
18,241833	0,5	1,147600
18,250167	0,5	1,132650
18,258500	0,5	1,143950
18,266833	0,5	1,143200
18,275167	0,5	1,145800
18,283500	0,5	1,143200
18,291833	0,5	1,148900
18,300167	0,5	1,146350
18,308500	0,5	1,153500
18,316833	0,5	1,156000
18,325167	0,5	1,162250
18,333500	0,5	1,162150
18,341833	0,5	1,172550
18,350167	0,5	1,175000
18,358500	0,5	1,176250
18,366833	0,5	1,189300
18,375167	0,5	1,187900
18,383500	0,5	1,186600
18,391833	0,5	1,178550
18,400167	0,5	1,168450
18,408500	0,5	1,176000
18,416833	0,5	1,180250
18,425167	0,5	1,175150
18,433500	0,5	1,173800
18,441833	0,5	1,170950
18,450167	0,5	1,173650
18,458500	0,5	1,169600
18,466833	0,5	1,173900
18,475167	0,5	1,169000
18,483500	0,5	1,173350
18,491833	0,5	1,172650
18,500167	0,5	1,167150
18,508500	0,5	1,168900
18,516833	0,5	1,177650
18,525167	0,5	1,173250
18,533500	0,5	1,162300
18,541833	0,5	1,159600
18,550167	0,5	1,155850
18,558500	0,5	1,164600
18,566833	0,5	1,166050
18,575167	0,5	1,172050
18,583500	0,5	1,171900
18,591833	0,5	1,176650
18,600167	0,5	1,179550
18,608500	0,5	1,185800
18,616833	0,5	1,184500
18,625167	0,5	1,186800
18,633500	0,5	1,187800
18,641833	0,5	1,191950
18,650167	0,5	1,188600
18,658500	0,5	1,200350
18,666833	0,5	1,201200
18,675167	0,5	1,204250
18,683500	0,5	1,196850
18,691833	0,5	1,191250
18,700167	0,5	1,200200
18,708500	0,5	1,201850
18,716833	0,5	1,208750
18,725167	0,5	1,212200
18,733500	0,5	1,217800
18,741833	0,5	1,219100
18,750167	0,5	1,224600
18,758500	0,5	1,227700
18,766833	0,5	1,232850
18,775167	0,5	1,231750
18,783500	0,5	1,242650
18,791833	0,5	1,230900
18,800167	0,5	1,235750
18,808500	0,5	1,239100
18,816833	0,5	1,240500
18,825167	0,5	1,236300
18,833500	0,5	1,222150
18,841833	0,5	1,219150
18,850167	0,5	1,228300
18,858500	0,5	1,228350
18,866833	0,5	1,231550
18,875167	0,5	1,230950
18,883500	0,5	1,232500
18,891833	0,5	1,233800
18,900167	0,5	1,233750
18,908500	0,5	1,235800
18,916833	0,5	1,235800
18,925167	0,5	1,240500
18,933500	0,5	1,237450
18,941833	0,5	1,231700
18,950167	0,5	1,242100
18,958500	0,5	1,248700
18,966833	0,5	1,247350
18,975167	0,5	1,247250
18,983500	0,5	1,234500
18,991833	0,5	1,238400
19,000167	0,5	1,244300
19,008500	0,5	1,247250
19,016833	0,5	1,250000
19,025167	0,5	1,256800
19,033500	0,5	1,260600
19,041833	0,5	1,261250
19,050167	0,5	1,266100
19,058500	0,5	1,261100
19,066833	0,5	1,266000
19,075167	0,5	1,259100
19,083500	0,5	1,261200
19,091833	0,5	1,248000
19,100167	0,5	1,262650
19,108500	0,5	1,264900
19,116833	0,5	1,260500
19,125167	0,5	1,250800
19,133500	0,5	1,241600
19,141833	0,5	1,253250
19,150167	0,5	1,258250
19,158500	0,5	1,258300
19,166833	0,5	1,258950
19,175167	0,5	1,265150
19,183500	0,5	1,266350
19,191833	0,5	1,271350
19,200167	0,5	1,274500
19,208500	0,5	1,279650
19,216833	0,5	1,280100
19,225167	0,5	1,288700
19,233500	0,5	1,277950
19,241833	0,5	1,282450
19,250167	0,5	1,290700
19,258500	0,5	1,294450
19,266833	0,5	1,292200
19,275167	0,5	1,286600
19,283500	0,5	1,287650
19,291833	0,5	1,298900
19,300167	0,5	1,298250
19,308500	0,5	1,304300
19,316833	0,5	1,305700
19,325167	0,5	1,307100
19,333500	0,5	1,306650
19,341833	0,5	1,306700
19,350167	0,5	1,313150
19,358500	0,5	1,314050
19,366833	0,5	1,325300
19,375167	0,5	1,327350
19,383500	0,5	1,325000
19,391833	0,5	1,334900
19,400167	0,5	1,338450
19,408500	0,5	1,337500
19,416833	0,5	1,333350
19,425167	0,5	1,320900
19,433500	0,5	1,324600
19,441833	0,5	1,327500
19,450167	0,5	1,336700
19,458500	0,5	1,340650
19,466833	0,5	1,349200
19,475167	0,5	1,348050
19,483500	0,5	1,356950
19,491833	0,5	1,358050
19,500167	0,5	1,363000
19,508500	0,5	1,365550
19,516833	0,5	1,372600
19,525167	0,5	1,370650
19,533500	0,5	1,371100
19,541833	0,5	1,382650
19,550167	0,5	1,383100
19,558500	0,5	1,387550
19,566833	0,5	1,377550
19,575167	0,5	1,381850
19,583500	0,5	1,388350
19,591833	0,5	1,397850
19,600167	0,5	1,397250
19,608500	0,5	1,404450
19,616833	0,5	1,403450
19,625167	0,5	1,414600
19,633500	0,5	1,411950
19,641833	0,5	1,417350
19,650167	0,5	1,419750
19,658500	0,5	1,426600
19,666833	0,5	1,433300
19,675167	0,5	1,422600
19,683500	0,5	1,429050
19,691833	0,5	1,434350
19,700167	0,5	1,432150
19,708500	0,5	1,430750
19,716833	0,5	1,422800
19,725167	0,5	1,425800
19,733500	0,5	1,433150
19,741833	0,5	1,433800
19,750167	0,5	1,442250
19,758500	0,5	1,445600
19,766833	0,5	1,453050
19,775167	0,5	1,456500
19,783500	0,5	1,465750
19,791833	0,5	1,466250
19,800167	0,5	1,474000
19,808500	0,5	1,487600
19,816833	0,5	1,490650
19,825167	0,5	1,486200
19,833500	0,5	1,496300
19,841833	0,5	1,498800
19,850167	0,5	1,500950
19,858500	0,5	1,501000
19,866833	0,5	1,494800
19,875167	0,5	1,512300
19,883500	0,5	1,510200
19,891833	0,5	1,516000
19,900167	0,5	1,515000
19,908500	0,5	1,517450
19,916833	0,5	1,518800
19,925167	0,5	1,524200
19,933500	0,5	1,521150
19,941833	0,5	1,528600
19,950167	0,5	1,537000
19,958500	0,5	1,549800
19,966833	0,5	1,543200
19,975167	0,5	1,545450
19,983500	0,5	1,555100
19,991833	0,5	1,561250
20,000167	0,5	1,560100
20,008500	0,5	1,549400
20,016833	0,5	1,557200
20,025167	0,5	1,565650
20,033500	0,5	1,568500
20,041833	0,5	1,571250
20,050167	0,5	1,580800
20,058500	0,5	1,584800
20,066833	0,5	1,593300
20,075167	0,5	1,592550
20,083500	0,5	1,599300
20,091833	0,5	1,602800
20,100167	0,5	1,614450
20,108500	0,5	1,619550
20,116833	0,5	1,615300
20,125167	0,5	1,622700
20,133500	0,5	1,625350
20,141833	0,5	1,621650
20,150167	0,5	1,616700
20,158500	0,5	1,607300
20,166833	0,5	1,607600
20,175167	0,5	1,618850
20,183500	0,5	1,619350
20,191833	0,5	1,625650
20,200167	0,5	1,625600
20,208500	0,5	1,631650
20,216833	0,5	1,634050
20,225167	0,5	1,646900
20,233500	0,5	1,642550
20,241833	0,5	1,652950
20,250167	0,5	1,664600
20,258500	0,5	1,668150
20,266833	0,5	1,664600
20,275167	0,5	1,678400
20,283500	0,5	1,678550
20,291833	0,5	1,674800
20,300167	0,5	1,674700
20,308500	0,5	1,669200
20,316833	0,5	1,686200
20,325167	0,5	1,689000
20,333500	0,5	1,691250
20,341833	0,5	1,700350
20,350167	0,5	1,708750
20,358500	0,5	1,712600
20,366833	0,5	1,727300
20,375167	0,5	1,731100
20,383500	0,5	1,739150
20,391833	0,5	1,752800
20,400167	0,5	1,765800
20,408500	0,5	1,765000
20,416833	0,5	1,774700
20,425167	0,5	1,781000
20,433500	0,5	1,778600
20,441833	0,5	1,777300
20,450167	0,5	1,778400
20,458500	0,5	1,784350
20,466833	0,5	1,792300
20,475167	0,5	1,802600
20,483500	0,5	1,805000
20,491833	0,5	1,815700
20,500167	0,5	1,814500
20,508500	0,5	1,820400
20,516833	0,5	1,821900
20,525167	0,5	1,825500
20,533500	0,5	1,823850
20,541833	0,5	1,845900
20,550167	0,5	1,850350
20,558500	0,5	1,849200
20,566833	0,5	1,852600
20,575167	0,5	1,857200
20,583500	0,5	1,856900
20,591833	0,5	1,851400
20,600167	0,5	1,855700
20,608500	0,5	1,863400
20,616833	0,5	1,877450
20,625167	0,5	1,881600
20,633500	0,5	1,888200
20,641833	0,5	1,896150
20,650167	0,5	1,905150
20,658500	0,5	1,915100
20,666833	0,5	1,921200
20,675167	0,5	1,922950
20,683500	0,5	1,923350
20,691833	0,5	1,960700
20,700167	0,5	1,966350
20,708500	0,5	1,968050
20,716833	0,5	1,975850
20,725167	0,5	1,980650
20,733500	0,5	1,980900
20,741833	0,5	1,971900
20,750167	0,5	1,986900
20,758500	0,5	2,002400
20,766833	0,5	2,009900
20,775167	0,5	2,019150
20,783500	0,5	2,028250
20,791833	0,5	2,043650
20,800167	0,5	2,046800
20,808500	0,5	2,062250
20,816833	0,5	2,068200
20,825167	0,5	2,079000
20,833500	0,5	2,098100
20,841833	0,5	2,115600
20,850167	0,5	2,115400
20,858500	0,5	2,124850
20,866833	0,5	2,131850
20,875167	0,5	2,140900
20,883500	0,5	2,148850
20,891833	0,5	2,159450
20,900167	0,5	2,207600
20,908500	0,5	2,239600
20,916833	0,5	2,273900
20,925167	0,5	2,299750
20,933500	0,5	2,323650
20,941833	0,5	2,325800
20,950167	0,5	2,337900
20,958500	0,5	2,329850
20,966833	0,5	2,332200
20,975167	0,5	2,333550
20,983500	0,5	2,351550
20,991833	0,5	2,367350
21,000167	0,5	2,363200
21,008500	0,5	2,364900
21,016833	0,5	2,365400
21,025167	0,5	2,364400
21,033500	0,5	2,363150
21,041833	0,5	2,370100
21,050167	0,5	2,389450
21,058500	0,5	2,409900
21,066833	0,5	2,422350
21,075167	0,5	2,440450
21,083500	0,5	2,455800
21,091833	0,5	2,474450
21,100167	0,5	2,493800
21,108500	0,5	2,515800
21,116833	0,5	2,536000
21,125167	0,5	2,571950
21,133500	0,5	2,603250
21,141833	0,5	2,621250
21,150167	0,5	2,638600
21,158500	0,5	2,661250
21,166833	0,5	2,680600
21,175167	0,5	2,695250
21,183500	0,5	2,716200
21,191833	0,5	2,750950
21,200167	0,5	2,789950
21,208500	0,5	2,818200
21,216833	0,5	2,844950
21,225167	0,5	2,854950
21,233500	0,5	2,855450
21,241833	0,5	2,839800
21,250167	0,5	2,840500
21,258500	0,5	2,834050
21,266833	0,5	2,838150
21,275167	0,5	2,843000
21,283500	0,5	2,859000
21,291833	0,5	2,853850
21,300167	0,5	2,859150
21,308500	0,5	2,862250
21,316833	0,5	2,873750
21,325167	0,5	2,885350
21,333500	0,5	2,912300
21,341833	0,5	2,939050
21,350167	0,5	2,965250
21,358500	0,5	2,989200
21,366833	0,5	3,004250
21,375167	0,5	3,024050
21,383500	0,5	3,029250
21,391833	0,5	3,043000
21,400167	0,5	3,052850
21,408500	0,5	3,064100
21,416833	0,5	3,090550
21,425167	0,5	3,111850
21,433500	0,5	3,124500
21,441833	0,5	3,130750
21,450167	0,5	3,138500
21,458500	0,5	3,145700
21,466833	0,5	3,146800
21,475167	0,5	3,153550
21,483500	0,5	3,174200
21,491833	0,5	3,194450
21,500167	0,5	3,216400
21,508500	0,5	3,241900
21,516833	0,5	3,267650
21,525167	0,5	3,295400
21,533500	0,5	3,327950
21,541833	0,5	3,344150
21,550167	0,5	3,370800
21,558500	0,5	3,388900
21,566833	0,5	3,421950
21,575167	0,5	3,449300
21,583500	0,5	3,450450
21,591833	0,5	3,458000
21,600167	0,5	3,464450
21,608500	0,5	3,467700
21,616833	0,5	3,466250
21,625167	0,5	3,490950
21,633500	0,5	3,510000
21,641833	0,5	3,528450
21,650167	0,5	3,552800
21,658500	0,5	3,579000
21,666833	0,5	3,610500
21,675167	0,5	3,646100
21,683500	0,5	3,673000
21,691833	0,5	3,698900
21,700167	0,5	3,720800
21,708500	0,5	3,750000
21,716833	0,5	3,774400
21,725167	0,5	3,785550
21,733500	0,5	3,794850
21,741833	0,5	3,802000
21,750167	0,5	3,815500
21,758500	0,5	3,833300
21,766833	0,5	3,841000
21,775167	0,5	3,869800
21,783500	0,5	3,900500
21,791833	0,5	3,921650
21,800167	0,5	3,950300
21,808500	0,5	3,976900
21,816833	0,5	4,002300
21,825167	0,5	4,024600
21,833500	0,5	4,047100
21,841833	0,5	4,060600
21,850167	0,5	4,080700
21,858500	0,5	4,115500
21,866833	0,5	4,139750
21,875167	0,5	4,148050
21,883500	0,5	4,167700
21,891833	0,5	4,186550
21,900167	0,5	4,201100
21,908500	0,5	4,220200
21,916833	0,5	4,247700
21,925167	0,5	4,291600
21,933500	0,5	4,327800
21,941833	0,5	4,364050
21,950167	0,5	4,403400
21,958500	0,5	4,449550
21,966833	0,5	4,494100
21,975167	0,5	4,551050
21,983500	0,5	4,597100
21,991833	0,5	4,651550
22,000167	0,5	4,713300
22,008500	0,5	4,771600
22,016833	0,5	4,808650
22,025167	0,5	4,845800
22,033500	0,5	4,864200
22,041833	0,5	4,867600
22,050167	0,5	4,856200
22,058500	0,5	4,847900
22,066833	0,5	4,861650
22,075167	0,5	4,872100
22,083500	0,5	4,893700
22,091833	0,5	4,913250
22,100167	0,5	4,943600
22,108500	0,5	4,962500
22,116833	0,5	4,993150
22,125167	0,5	5,014350
22,133500	0,5	5,044300
22,141833	0,5	5,066600
22,150167	0,5	5,107600
22,158500	0,5	5,129850
22,166833	0,5	5,164100
22,175167	0,5	5,202000
22,183500	0,5	5,237050
22,191833	0,5	5,276600
22,200167	0,5	5,314000
22,208500	0,5	5,356000
22,216833	0,5	5,407650
22,225167	0,5	5,454150
22,233500	0,5	5,494700
22,241833	0,5	5,537750
22,250167	0,5	5,570200
22,258500	0,5	5,609300
22,266833	0,5	5,642850
22,275167	0,5	5,682350
22,283500	0,5	5,720150
22,291833	0,5	5,767550
22,300167	0,5	5,809650
22,308500	0,5	5,856700
22,316833	0,5	5,918650
22,325167	0,5	5,976000
22,333500	0,5	6,026900
22,341833	0,5	6,075450
22,350167	0,5	6,127350
22,358500	0,5	6,188350
22,366833	0,5	6,264000
22,375167	0,5	6,335250
22,383500	0,5	6,426550
22,391833	0,5	6,527900
22,400167	0,5	6,649000
22,408500	0,5	6,779300
22,416833	0,5	6,913850
22,425167	0,5	7,022200
22,433500	0,5	7,107150
22,441833	0,5	7,156950
22,450167	0,5	7,197750
22,458500	0,5	7,237200
22,466833	0,5	7,260450
22,475167	0,5	7,277600
22,483500	0,5	7,292500
22,491833	0,5	7,305050
22,500167	0,5	7,329250
22,508500	0,5	7,374700
22,516833	0,5	7,402750
22,525167	0,5	7,446050
22,533500	0,5	7,485350
22,541833	0,5	7,538200
22,550167	0,5	7,577050
22,558500	0,5	7,623900
22,566833	0,5	7,658300
22,575167	0,5	7,692000
22,583500	0,5	7,714500
22,591833	0,5	7,742850
22,600167	0,5	7,767400
22,608500	0,5	7,823400
22,616833	0,5	7,843000
22,625167	0,5	7,856650
22,633500	0,5	7,848450
22,641833	0,5	7,828450
22,650167	0,5	7,827750
22,658500	0,5	7,803750
22,666833	0,5	7,781600
22,675167	0,5	7,741750
22,683500	0,5	7,707200
22,691833	0,5	7,655350
22,700167	0,5	7,611250
22,708500	0,5	7,557950
22,716833	0,5	7,496900
22,725167	0,5	7,425650
22,733500	0,5	7,311300
22,741833	0,5	7,243350
22,750167	0,5	7,167100
22,758500	0,5	7,081950
22,766833	0,5	6,978100
22,775167	0,5	6,864100
22,783500	0,5	6,742500
22,791833	0,5	6,609950
22,800167	0,5	6,486650
22,808500	0,5	6,359450
22,816833	0,5	6,221300
22,825167	0,5	6,074300
22,833500	0,5	5,927750
22,841833	0,5	5,775150
22,850167	0,5	5,619350
22,858500	0,5	5,457250
22,866833	0,5	5,295800
22,875167	0,5	5,125800
22,883500	0,5	4,928900
22,891833	0,5	4,779800
22,900167	0,5	4,618800
22,908500	0,5	4,429650
22,916833	0,5	4,253100
22,925167	0,5	4,089000
22,933500	0,5	3,924250
22,941833	0,5	3,758350
22,950167	0,5	3,589800
22,958500	0,5	3,436200
22,966833	0,5	3,278700
22,975167	0,5	3,135250
22,983500	0,5	2,976800
22,991833	0,5	2,843350
23,000167	0,5	2,693650
23,008500	0,5	2,558900
23,016833	0,5	2,420950
23,025167	0,5	2,311700
23,033500	0,5	2,183250
23,041833	0,5	2,042700
23,050167	0,5	1,891500
23,058500	0,5	1,771700
23,066833	0,5	1,654250
23,075167	0,5	1,551950
23,083500	0,5	1,443750
23,091833	0,5	1,332050
23,100167	0,5	1,235050
23,108500	0,5	1,130600
23,116833	0,5	1,041350
23,125167	0,5	0,946950
23,133500	0,5	0,861650
23,141833	0,5	0,763550
23,150167	0,5	0,688650
23,158500	0,5	0,600850
23,166833	0,5	0,542200
23,175167	0,5	0,464350
23,183500	0,5	0,395650
23,191833	0,5	0,301150
23,200167	0,5	0,215450
23,208500	0,5	0,149500
23,216833	0,5	0,084950
23,225167	0,5	0,039650
23,233500	0,5	-0,022700
23,241833	0,5	-0,082200
23,250167	0,5	-0,136700
23,258500	0,5	-0,192300
23,266833	0,5	-0,244650
23,275167	0,5	-0,289750
23,283500	0,5	-0,339650
23,291833	0,5	-0,386050
23,300167	0,5	-0,435400
23,308500	0,5	-0,475750
23,316833	0,5	-0,512350
23,325167	0,5	-0,570900
23,333500	0,5	-0,585950
23,341833	0,5	-0,636300
23,350167	0,5	-0,700500
23,358500	0,5	-0,730000
23,366833	0,5	-0,765950
23,375167	0,5	-0,794750
23,383500	0,5	-0,830450
23,391833	0,5	-0,861900
23,400167	0,5	-0,886850
23,408500	0,5	-0,913000
23,416833	0,5	-0,940600
23,425167	0,5	-0,962100
23,433500	0,5	-0,989550
23,441833	0,5	-1,016000
23,450167	0,5	-1,039050
23,458500	0,5	-1,064900
23,466833	0,5	-1,138350
23,475167	0,5	-1,122700
23,483500	0,5	-1,122550
23,491833	0,5	-1,143200
23,500167	0,5	-1,177750
23,508500	0,5	-1,202600
23,516833	0,5	-1,222250
23,525167	0,5	-1,241650
23,533500	0,5	-1,265050
23,541833	0,5	-1,283200
23,550167	0,5	-1,298250
23,558500	0,5	-1,315500
23,566833	0,5	-1,329600
23,575167	0,5	-1,343450
23,583500	0,5	-1,359800
23,591833	0,5	-1,372950
23,600167	0,5	-1,387450
23,608500	0,5	-1,434800
23,616833	0,5	-1,482000
23,625167	0,5	-1,466800
23,633500	0,5	-1,432700
23,641833	0,5	-1,437750
23,650167	0,5	-1,453800
23,658500	0,5	-1,463750
23,666833	0,5	-1,477050
23,675167	0,5	-1,489350
23,683500	0,5	-1,498150
23,691833	0,5	-1,503050
23,700167	0,5	-1,512650
23,708500	0,5	-1,518200
23,716833	0,5	-1,524800
23,725167	0,5	-1,534700
23,733500	0,5	-1,534450
23,741833	0,5	-1,541300
23,750167	0,5	-1,550800
23,758500	0,5	-1,652600
23,766833	0,5	-1,631600
23,775167	0,5	-1,602000
23,783500	0,5	-1,564300
23,791833	0,5	-1,558700
23,800167	0,5	-1,562900
23,808500	0,5	-1,569250
23,816833	0,5	-1,578950
23,825167	0,5	-1,577450
23,833500	0,5	-1,577150
23,841833	0,5	-1,570350
23,850167	0,5	-1,573250
23,858500	0,5	-1,567500
23,866833	0,5	-1,565400
23,875167	0,5	-1,560600
23,883500	0,5	-1,559900
23,891833	0,5	-1,559550
23,900167	0,5	-1,567200
23,908500	0,5	-1,672350
23,916833	0,5	-1,635000
23,925167	0,5	-1,593850
23,933500	0,5	-1,558200
23,941833	0,5	-1,547250
23,950167	0,5	-1,547850
23,958500	0,5	-1,557400
23,966833	0,5	-1,554750
23,975167	0,5	-1,552350
23,983500	0,5	-1,536650
23,991833	0,5	-1,535650
24,000167	0,5	-1,522550
24,008500	0,5	-1,518250
24,016833	0,5	-1,513850
24,025167	0,5	-1,504500
24,033500	0,5	-1,492950
24,041833	0,5	-1,489750
24,050167	0,5	-1,537950
24,058500	0,5	-1,562450
24,066833	0,5	-1,526200
24,075167	0,5	-1,490450
24,083500	0,5	-1,460450
24,091833	0,5	-1,449450
24,100167	0,5	-1,444150
24,108500	0,5	-1,446950
24,116833	0,5	-1,451300
24,125167	0,5	-1,431250
24,133500	0,5	-1,426800
24,141833	0,5	-1,417050
24,150167	0,5	-1,409550
24,158500	0,5	-1,400450
24,166833	0,5	-1,396000
24,175167	0,5	-1,381900
24,183500	0,5	-1,375300
24,191833	0,5	-1,368400
24,200167	0,5	-1,444150
24,208500	0,5	-1,405050
24,216833	0,5	-1,400250
24,225167	0,5	-1,349250
24,233500	0,5	-1,330350
24,241833	0,5	-1,322000
24,250167	0,5	-1,311900
24,258500	0,5	-1,322400
24,266833	0,5	-1,301750
24,275167	0,5	-1,295250
24,283500	0,5	-1,285950
24,291833	0,5	-1,280750
24,300167	0,5	-1,267050
24,308500	0,5	-1,258600
24,316833	0,5	-1,252600
24,325167	0,5	-1,245800
24,333500	0,5	-1,237750
24,341833	0,5	-1,248350
24,350167	0,5	-1,288000
24,358500	0,5	-1,262600
24,366833	0,5	-1,239750
24,375167	0,5	-1,210100
24,383500	0,5	-1,199000
24,391833	0,5	-1,193850
24,400167	0,5	-1,190600
24,408500	0,5	-1,188350
24,416833	0,5	-1,178050
24,425167	0,5	-1,166550
24,433500	0,5	-1,155700
24,441833	0,5	-1,151650
24,450167	0,5	-1,142300
24,458500	0,5	-1,137550
24,466833	0,5	-1,130100
24,475167	0,5	-1,117900
24,483500	0,5	-1,114650
24,491833	0,5	-1,142050
24,500167	0,5	-1,145800
24,508500	0,5	-1,121650
24,516833	0,5	-1,105000
24,525167	0,5	-1,084850
24,533500	0,5	-1,076400
24,541833	0,5	-1,072550
24,550167	0,5	-1,075550
24,558500	0,5	-1,076550
24,566833	0,5	-1,069500
24,575167	0,5	-1,058600
24,583500	0,5	-1,054300
24,591833	0,5	-1,046050
24,600167	0,5	-1,040750
24,608500	0,5	-1,034400
24,616833	0,5	-1,028850
24,625167	0,5	-1,023200
24,633500	0,5	-1,014050
24,641833	0,5	-1,054700
24,650167	0,5	-1,030350
24,658500	0,5	-1,016500
24,666833	0,5	-0,998550
24,675167	0,5	-0,987400
24,683500	0,5	-0,983400
24,691833	0,5	-0,984500
24,700167	0,5	-0,987050
24,708500	0,5	-0,981250
24,716833	0,5	-0,977900
24,725167	0,5	-0,976400
24,733500	0,5	-0,966150
24,741833	0,5	-0,961900
24,750167	0,5	-0,956450
24,758500	0,5	-0,953800
24,766833	0,5	-0,948700
24,775167	0,5	-0,943950
24,783500	0,5	-0,945700
24,791833	0,5	-0,961700
24,800167	0,5	-0,951300
24,808500	0,5	-0,939600
24,816833	0,5	-0,929950
24,825167	0,5	-0,917050
24,833500	0,5	-0,915900
24,841833	0,5	-0,915150
24,850167	0,5	-0,917900
24,858500	0,5	-0,908600
24,866833	0,5	-0,906350
24,875167	0,5	-0,898550
24,883500	0,5	-0,900950
24,891833	0,5	-0,896400
24,900167	0,5	-0,892700
24,908500	0,5	-0,890200
24,916833	0,5	-0,887550
24,925167	0,5	-0,881700
24,933500	0,5	-0,893100
24,941833	0,5	-0,890150
24,950167	0,5	-0,884400
24,958500	0,5	-0,873650
24,966833	0,5	-0,866900
24,975167	0,5	-0,863400
24,983500	0,5	-0,864750
24,991833	0,5	-0,866950
25,000167	0,5	-0,861950
25,008500	0,5	-0,860050
25,016833	0,5	-0,854100
25,025167	0,5	-0,851700
25,033500	0,5	-0,849050
25,041833	0,5	-0,849950
25,050167	0,5	-0,844950
25,058500	0,5	-0,842700
25,066833	0,5	-0,836000
25,075167	0,5	-0,838400
25,083500	0,5	-0,842350
25,091833	0,5	-0,837950
25,100167	0,5	-0,833950
25,108500	0,5	-0,829450
25,116833	0,5	-0,828150
25,125167	0,5	-0,825750
25,133500	0,5	-0,826300
25,141833	0,5	-0,827800
25,150167	0,5	-0,823550
25,158500	0,5	-0,818600
25,166833	0,5	-0,817650
25,175167	0,5	-0,816400
25,183500	0,5	-0,812850
25,191833	0,5	-0,809200
25,200167	0,5	-0,807850
25,208500	0,5	-0,804900
25,216833	0,5	-0,803800
25,225167	0,5	-0,803900
25,233500	0,5	-0,804600
25,241833	0,5	-0,801500
25,250167	0,5	-0,797550
25,258500	0,5	-0,795000
25,266833	0,5	-0,795900
25,275167	0,5	-0,791050
25,283500	0,5	-0,793550
25,291833	0,5	-0,792050
25,300167	0,5	-0,790150
25,308500	0,5	-0,790350
25,316833	0,5	-0,790100
25,325167	0,5	-0,787050
25,333500	0,5	-0,788900
25,341833	0,5	-0,783750
25,350167	0,5	-0,784950
25,358500	0,5	-0,779050
25,366833	0,5	-0,781100
25,375167	0,5	-0,780200
25,383500	0,5	-0,775300
25,391833	0,5	-0,774750
25,400167	0,5	-0,771550
25,408500	0,5	-0,771700
25,416833	0,5	-0,774300
25,425167	0,5	-0,772050
25,433500	0,5	-0,773050
25,441833	0,5	-0,771300
25,450167	0,5	-0,769850
25,458500	0,5	-0,768650
25,466833	0,5	-0,768300
25,475167	0,5	-0,766150
25,483500	0,5	-0,766950
25,491833	0,5	-0,768050
25,500167	0,5	-0,765400
25,508500	0,5	-0,764750
25,516833	0,5	-0,762400
25,525167	0,5	-0,761450
25,533500	0,5	-0,757850
25,541833	0,5	-0,758000
25,550167	0,5	-0,756650
25,558500	0,5	-0,757700
25,566833	0,5	-0,756900
25,575167	0,5	-0,755800
25,583500	0,5	-0,752900
25,591833	0,5	-0,750350
25,600167	0,5	-0,748700
25,608500	0,5	-0,748150
25,616833	0,5	-0,746550
25,625167	0,5	-0,747250
25,633500	0,5	-0,746150
25,641833	0,5	-0,744900
25,650167	0,5	-0,743500
25,658500	0,5	-0,743750
25,666833	0,5	-0,743500
25,675167	0,5	-0,740200
25,683500	0,5	-0,736950
25,691833	0,5	-0,734950
25,700167	0,5	-0,740450
25,708500	0,5	-0,737550
25,716833	0,5	-0,739000
25,725167	0,5	-0,735300
25,733500	0,5	-0,733400
25,741833	0,5	-0,727550
25,750167	0,5	-0,731600
25,758500	0,5	-0,729900
25,766833	0,5	-0,727200
25,775167	0,5	-0,728000
25,783500	0,5	-0,723800
25,791833	0,5	-0,727150
25,800167	0,5	-0,725050
25,808500	0,5	-0,721150
25,816833	0,5	-0,718900
25,825167	0,5	-0,720200
25,833500	0,5	-0,715900
25,841833	0,5	-0,715800
25,850167	0,5	-0,722300
25,858500	0,5	-0,720750
25,866833	0,5	-0,716550
25,875167	0,5	-0,712350
25,883500	0,5	-0,705150
25,891833	0,5	-0,706750
25,900167	0,5	-0,703000
25,908500	0,5	-0,702950
25,916833	0,5	-0,700250
25,925167	0,5	-0,701450
25,933500	0,5	-0,698950
25,941833	0,5	-0,701400
25,950167	0,5	-0,698500
25,958500	0,5	-0,694600
25,966833	0,5	-0,692350
25,975167	0,5	-0,695950
25,983500	0,5	-0,684300
25,991833	0,5	-0,694050
26,000167	0,5	-0,693550
