File Path	chrom://chromeleon01/ikbm_chromeleon/2022/ICS-5000/ED1/Esteban/20220612_Cell_7_4_eg.seq/115.smp/ED_1.channel/ED_1.chm
Channel	ED_1

Injection Information:
Data Vault	ikbm_chromeleon
Injection	Std_C1ox-0.00125_2
Injection Number	74
Position	RA5
Comment	
Processing Method	Stop sequence after Cell Death
Instrument Method	ICS5000_PA200_FullNative_Ox_26min_ED1
Type	Unknown
Status	Finished
Injection Date	14.06.2022
Injection Time	02:50:54
Injection Volume (µl)	5,0
Dilution Factor	1,0000
Weight	1,0000

Chromatogram Data Information:
Time Min. (min)	0,000333
Time Max. (min)	26,000333
Data Points	3121
Detector	EDet1
Generating Data System	Chromeleon 7.2.9.11323
Exporting Data System	Chromeleon 7.2.9.0
Operator	Instrument Controller
Signal Quantity	
Signal Unit	nC
Signal Min.	-2,479550
Signal Max.	7,143200
Channel	ED_1
Driver Name	DC-5000
Channel Type	Evaluation
Min. Step (s)	0,5
Max. Step (s)	0,5
Average Step (s)	0,5

Signal Parameter Information:
Signal Info	

Chromatogram Data:
Time (min)	Step (s)	Value (nC)
0,000333	n.a.	-0,023150
0,008667	0,5	-0,059750
0,017000	0,5	-0,054000
0,025333	0,5	-0,042850
0,033667	0,5	-0,030700
0,042000	0,5	-0,046750
0,050333	0,5	-0,051100
0,058667	0,5	-0,045100
0,067000	0,5	-0,015300
0,075333	0,5	-0,004950
0,083667	0,5	-0,015400
0,092000	0,5	-0,009150
0,100333	0,5	-0,016600
0,108667	0,5	-0,011800
0,117000	0,5	-0,021750
0,125333	0,5	-0,018100
0,133667	0,5	-0,030250
0,142000	0,5	-0,023000
0,150333	0,5	-0,031050
0,158667	0,5	-0,010100
0,167000	0,5	-0,035400
0,175333	0,5	-0,002000
0,183667	0,5	-0,030600
0,192000	0,5	-0,043950
0,200333	0,5	-0,049550
0,208667	0,5	-0,041450
0,217000	0,5	-0,041350
0,225333	0,5	-0,022050
0,233667	0,5	-0,033950
0,242000	0,5	-0,034350
0,250333	0,5	-0,034950
0,258667	0,5	-0,033600
0,267000	0,5	-0,033200
0,275333	0,5	-0,044450
0,283667	0,5	-0,046700
0,292000	0,5	-0,052600
0,300333	0,5	-0,038950
0,308667	0,5	-0,033250
0,317000	0,5	-0,050150
0,325333	0,5	-0,044250
0,333667	0,5	-0,068700
0,342000	0,5	-0,076250
0,350333	0,5	-0,074950
0,358667	0,5	-0,072650
0,367000	0,5	-0,043050
0,375333	0,5	-0,050800
0,383667	0,5	-0,053550
0,392000	0,5	-0,061400
0,400333	0,5	-0,062200
0,408667	0,5	-0,071600
0,417000	0,5	-0,072850
0,425333	0,5	-0,076300
0,433667	0,5	-0,083050
0,442000	0,5	-0,072350
0,450333	0,5	-0,074650
0,458667	0,5	-0,068600
0,467000	0,5	-0,079200
0,475333	0,5	-0,068500
0,483667	0,5	-0,100550
0,492000	0,5	-0,097900
0,500333	0,5	-0,102700
0,508667	0,5	-0,085200
0,517000	0,5	-0,070300
0,525333	0,5	-0,068650
0,533667	0,5	-0,080300
0,542000	0,5	-0,072450
0,550333	0,5	-0,081000
0,558667	0,5	-0,086450
0,567000	0,5	-0,094850
0,575333	0,5	-0,097500
0,583667	0,5	-0,099450
0,592000	0,5	-0,104250
0,600333	0,5	-0,101500
0,608667	0,5	-0,104050
0,617000	0,5	-0,090050
0,625333	0,5	-0,088950
0,633667	0,5	-0,116050
0,642000	0,5	-0,115700
0,650333	0,5	-0,109550
0,658667	0,5	-0,100300
0,667000	0,5	-0,079900
0,675333	0,5	-0,086600
0,683667	0,5	-0,082400
0,692000	0,5	-0,093250
0,700333	0,5	-0,088200
0,708667	0,5	-0,091700
0,717000	0,5	-0,091200
0,725333	0,5	-0,100800
0,733667	0,5	-0,098250
0,742000	0,5	-0,097200
0,750333	0,5	-0,106750
0,758667	0,5	-0,112450
0,767000	0,5	-0,090000
0,775333	0,5	-0,110850
0,783667	0,5	-0,118950
0,792000	0,5	-0,111600
0,800333	0,5	-0,103700
0,808667	0,5	-0,079550
0,817000	0,5	-0,081800
0,825333	0,5	-0,074500
0,833667	0,5	-0,083700
0,842000	0,5	-0,080450
0,850333	0,5	-0,088000
0,858667	0,5	-0,085700
0,867000	0,5	-0,092650
0,875333	0,5	-0,089450
0,883667	0,5	-0,090950
0,892000	0,5	-0,084950
0,900333	0,5	-0,097100
0,908667	0,5	-0,087200
0,917000	0,5	-0,077600
0,925333	0,5	-0,089600
0,933667	0,5	-0,104100
0,942000	0,5	-0,094500
0,950333	0,5	-0,087350
0,958667	0,5	-0,065500
0,967000	0,5	-0,066000
0,975333	0,5	-0,068800
0,983667	0,5	-0,069100
0,992000	0,5	-0,069750
1,000333	0,5	-0,069450
1,008667	0,5	-0,074700
1,017000	0,5	-0,076550
1,025333	0,5	-0,083000
1,033667	0,5	-0,077850
1,042000	0,5	-0,074050
1,050333	0,5	-0,074300
1,058667	0,5	-0,065350
1,067000	0,5	-0,058500
1,075333	0,5	-0,083650
1,083667	0,5	-0,089100
1,092000	0,5	-0,088900
1,100333	0,5	-0,067200
1,108667	0,5	-0,059600
1,117000	0,5	-0,065650
1,125333	0,5	-0,068950
1,133667	0,5	-0,063100
1,142000	0,5	-0,067650
1,150333	0,5	-0,059400
1,158667	0,5	-0,055600
1,167000	0,5	-0,065200
1,175333	0,5	-0,062950
1,183667	0,5	-0,066500
1,192000	0,5	-0,055850
1,200333	0,5	-0,075450
1,208667	0,5	-0,052050
1,217000	0,5	-0,066550
1,225333	0,5	-0,072700
1,233667	0,5	-0,072150
1,242000	0,5	-0,058900
1,250333	0,5	-0,039100
1,258667	0,5	-0,039450
1,267000	0,5	-0,055550
1,275333	0,5	-0,042550
1,283667	0,5	-0,045800
1,292000	0,5	-0,042100
1,300333	0,5	-0,049950
1,308667	0,5	-0,048700
1,317000	0,5	-0,049850
1,325333	0,5	-0,052000
1,333667	0,5	-0,040650
1,342000	0,5	-0,048950
1,350333	0,5	-0,056600
1,358667	0,5	-0,031850
1,367000	0,5	-0,056950
1,375333	0,5	-0,060050
1,383667	0,5	-0,063150
1,392000	0,5	-0,057900
1,400333	0,5	-0,028300
1,408667	0,5	-0,032550
1,417000	0,5	-0,026400
1,425333	0,5	-0,034250
1,433667	0,5	-0,028050
1,442000	0,5	-0,041500
1,450333	0,5	-0,037550
1,458667	0,5	-0,044050
1,467000	0,5	-0,045500
1,475333	0,5	-0,043400
1,483667	0,5	-0,042200
1,492000	0,5	-0,042450
1,500333	0,5	-0,041200
1,508667	0,5	-0,033500
1,517000	0,5	-0,059900
1,525333	0,5	-0,060750
1,533667	0,5	-0,069500
1,542000	0,5	-0,056850
1,550333	0,5	-0,050800
1,558667	0,5	-0,091750
1,567000	0,5	-0,273400
1,575333	0,5	-0,716750
1,583667	0,5	-1,410750
1,592000	0,5	-1,900350
1,600333	0,5	-1,756050
1,608667	0,5	-0,913150
1,617000	0,5	0,414500
1,625333	0,5	2,096950
1,633667	0,5	3,723950
1,642000	0,5	4,721700
1,650333	0,5	4,846200
1,658667	0,5	4,373000
1,667000	0,5	3,730300
1,675333	0,5	3,220600
1,683667	0,5	2,883850
1,692000	0,5	2,703900
1,700333	0,5	2,596850
1,708667	0,5	2,500150
1,717000	0,5	2,431250
1,725333	0,5	2,372950
1,733667	0,5	2,350800
1,742000	0,5	2,351350
1,750333	0,5	2,363150
1,758667	0,5	2,344850
1,767000	0,5	2,354400
1,775333	0,5	2,457900
1,783667	0,5	2,717550
1,792000	0,5	3,061800
1,800333	0,5	3,395900
1,808667	0,5	3,559350
1,817000	0,5	3,587250
1,825333	0,5	3,515950
1,833667	0,5	3,371450
1,842000	0,5	3,198850
1,850333	0,5	2,985400
1,858667	0,5	2,773550
1,867000	0,5	2,563400
1,875333	0,5	2,374850
1,883667	0,5	2,204100
1,892000	0,5	2,050350
1,900333	0,5	1,900150
1,908667	0,5	1,775800
1,917000	0,5	1,662700
1,925333	0,5	1,572800
1,933667	0,5	1,477800
1,942000	0,5	1,414900
1,950333	0,5	1,367500
1,958667	0,5	1,299950
1,967000	0,5	1,240700
1,975333	0,5	1,207850
1,983667	0,5	1,191650
1,992000	0,5	1,231650
2,000333	0,5	1,298300
2,008667	0,5	1,428300
2,017000	0,5	1,629500
2,025333	0,5	2,051050
2,033667	0,5	2,865700
2,042000	0,5	3,942150
2,050333	0,5	4,696550
2,058667	0,5	4,737850
2,067000	0,5	4,284500
2,075333	0,5	3,799550
2,083667	0,5	3,674700
2,092000	0,5	4,141400
2,100333	0,5	5,088900
2,108667	0,5	5,889900
2,117000	0,5	5,969000
2,125333	0,5	5,338000
2,133667	0,5	4,481650
2,142000	0,5	3,742950
2,150333	0,5	3,221700
2,158667	0,5	2,889350
2,167000	0,5	2,695800
2,175333	0,5	2,585150
2,183667	0,5	2,548000
2,192000	0,5	2,552650
2,200333	0,5	2,583850
2,208667	0,5	2,612750
2,217000	0,5	2,632650
2,225333	0,5	2,653600
2,233667	0,5	2,672300
2,242000	0,5	2,735350
2,250333	0,5	2,788700
2,258667	0,5	2,851450
2,267000	0,5	2,918300
2,275333	0,5	3,007800
2,283667	0,5	3,105700
2,292000	0,5	3,202050
2,300333	0,5	3,287700
2,308667	0,5	3,395100
2,317000	0,5	3,492250
2,325333	0,5	3,595150
2,333667	0,5	3,669250
2,342000	0,5	3,745300
2,350333	0,5	3,806050
2,358667	0,5	3,882050
2,367000	0,5	3,953650
2,375333	0,5	4,025850
2,383667	0,5	4,093650
2,392000	0,5	4,192750
2,400333	0,5	4,249550
2,408667	0,5	4,314450
2,417000	0,5	4,379950
2,425333	0,5	4,448350
2,433667	0,5	4,528700
2,442000	0,5	4,582500
2,450333	0,5	4,634200
2,458667	0,5	4,680050
2,467000	0,5	4,729650
2,475333	0,5	4,769750
2,483667	0,5	4,810650
2,492000	0,5	4,831850
2,500333	0,5	4,866400
2,508667	0,5	4,890400
2,517000	0,5	4,910500
2,525333	0,5	4,915200
2,533667	0,5	4,932500
2,542000	0,5	4,947200
2,550333	0,5	4,943050
2,558667	0,5	4,945000
2,567000	0,5	4,951500
2,575333	0,5	4,962850
2,583667	0,5	4,971200
2,592000	0,5	4,961200
2,600333	0,5	4,939000
2,608667	0,5	4,921700
2,617000	0,5	4,899600
2,625333	0,5	4,877200
2,633667	0,5	4,844500
2,642000	0,5	4,819100
2,650333	0,5	4,790650
2,658667	0,5	4,771400
2,667000	0,5	4,736200
2,675333	0,5	4,718550
2,683667	0,5	4,721900
2,692000	0,5	4,724700
2,700333	0,5	4,696650
2,708667	0,5	4,668250
2,717000	0,5	4,609950
2,725333	0,5	4,565850
2,733667	0,5	4,524800
2,742000	0,5	4,512500
2,750333	0,5	4,541900
2,758667	0,5	4,634850
2,767000	0,5	4,761100
2,775333	0,5	4,855450
2,783667	0,5	4,865250
2,792000	0,5	4,750600
2,800333	0,5	4,560350
2,808667	0,5	4,322800
2,817000	0,5	4,091000
2,825333	0,5	3,886900
2,833667	0,5	3,739050
2,842000	0,5	3,579950
2,850333	0,5	3,449200
2,858667	0,5	3,342350
2,867000	0,5	3,248250
2,875333	0,5	3,173900
2,883667	0,5	3,092950
2,892000	0,5	3,004750
2,900333	0,5	2,931250
2,908667	0,5	2,846650
2,917000	0,5	2,773750
2,925333	0,5	2,698300
2,933667	0,5	2,624050
2,942000	0,5	2,549750
2,950333	0,5	2,474650
2,958667	0,5	2,402850
2,967000	0,5	2,321100
2,975333	0,5	2,256450
2,983667	0,5	2,200200
2,992000	0,5	2,124950
3,000333	0,5	2,060800
3,008667	0,5	2,018550
3,017000	0,5	1,980550
3,025333	0,5	1,963600
3,033667	0,5	1,922000
3,042000	0,5	1,921750
3,050333	0,5	1,945950
3,058667	0,5	2,045800
3,067000	0,5	2,224450
3,075333	0,5	2,505850
3,083667	0,5	2,836350
3,092000	0,5	3,125000
3,100333	0,5	3,256750
3,108667	0,5	3,176100
3,117000	0,5	2,906450
3,125333	0,5	2,561000
3,133667	0,5	2,197700
3,142000	0,5	1,864250
3,150333	0,5	1,600850
3,158667	0,5	1,404050
3,167000	0,5	1,264000
3,175333	0,5	1,155100
3,183667	0,5	1,056750
3,192000	0,5	0,971950
3,200333	0,5	0,906400
3,208667	0,5	0,840400
3,217000	0,5	0,787250
3,225333	0,5	0,733550
3,233667	0,5	0,685950
3,242000	0,5	0,640400
3,250333	0,5	0,602550
3,258667	0,5	0,568900
3,267000	0,5	0,528500
3,275333	0,5	0,503550
3,283667	0,5	0,469900
3,292000	0,5	0,428950
3,300333	0,5	0,399200
3,308667	0,5	0,376600
3,317000	0,5	0,359550
3,325333	0,5	0,335700
3,333667	0,5	0,296750
3,342000	0,5	0,267500
3,350333	0,5	0,239300
3,358667	0,5	0,217300
3,367000	0,5	0,189850
3,375333	0,5	0,173050
3,383667	0,5	0,138950
3,392000	0,5	0,121900
3,400333	0,5	0,096650
3,408667	0,5	0,082600
3,417000	0,5	0,054600
3,425333	0,5	0,053600
3,433667	0,5	0,019750
3,442000	0,5	0,002450
3,450333	0,5	-0,014650
3,458667	0,5	-0,015700
3,467000	0,5	-0,012250
3,475333	0,5	-0,028000
3,483667	0,5	-0,047700
3,492000	0,5	-0,063900
3,500333	0,5	-0,080550
3,508667	0,5	-0,098250
3,517000	0,5	-0,115000
3,525333	0,5	-0,138900
3,533667	0,5	-0,145400
3,542000	0,5	-0,158850
3,550333	0,5	-0,171000
3,558667	0,5	-0,190900
3,567000	0,5	-0,195450
3,575333	0,5	-0,195050
3,583667	0,5	-0,214250
3,592000	0,5	-0,224000
3,600333	0,5	-0,222300
3,608667	0,5	-0,212000
3,617000	0,5	-0,192200
3,625333	0,5	-0,192700
3,633667	0,5	-0,195250
3,642000	0,5	-0,196550
3,650333	0,5	-0,199000
3,658667	0,5	-0,204750
3,667000	0,5	-0,215600
3,675333	0,5	-0,228100
3,683667	0,5	-0,243300
3,692000	0,5	-0,251400
3,700333	0,5	-0,271200
3,708667	0,5	-0,284200
3,717000	0,5	-0,285150
3,725333	0,5	-0,297200
3,733667	0,5	-0,316500
3,742000	0,5	-0,317200
3,750333	0,5	-0,322650
3,758667	0,5	-0,310150
3,767000	0,5	-0,310600
3,775333	0,5	-0,307300
3,783667	0,5	-0,318550
3,792000	0,5	-0,319100
3,800333	0,5	-0,329900
3,808667	0,5	-0,330650
3,817000	0,5	-0,336850
3,825333	0,5	-0,339250
3,833667	0,5	-0,341800
3,842000	0,5	-0,347900
3,850333	0,5	-0,348900
3,858667	0,5	-0,354700
3,867000	0,5	-0,345400
3,875333	0,5	-0,359450
3,883667	0,5	-0,373350
3,892000	0,5	-0,375750
3,900333	0,5	-0,375300
3,908667	0,5	-0,356050
3,917000	0,5	-0,355300
3,925333	0,5	-0,365400
3,933667	0,5	-0,363950
3,942000	0,5	-0,370800
3,950333	0,5	-0,370150
3,958667	0,5	-0,375950
3,967000	0,5	-0,375000
3,975333	0,5	-0,380350
3,983667	0,5	-0,378850
3,992000	0,5	-0,376850
4,000333	0,5	-0,387400
4,008667	0,5	-0,389050
4,017000	0,5	-0,366000
4,025333	0,5	-0,379850
4,033667	0,5	-0,387900
4,042000	0,5	-0,380500
4,050333	0,5	-0,372900
4,058667	0,5	-0,348850
4,067000	0,5	-0,355000
4,075333	0,5	-0,346950
4,083667	0,5	-0,345100
4,092000	0,5	-0,328500
4,100333	0,5	-0,325200
4,108667	0,5	-0,313450
4,117000	0,5	-0,312150
4,125333	0,5	-0,304200
4,133667	0,5	-0,295800
4,142000	0,5	-0,281600
4,150333	0,5	-0,272900
4,158667	0,5	-0,238100
4,167000	0,5	-0,203400
4,175333	0,5	-0,173300
4,183667	0,5	-0,138450
4,192000	0,5	-0,091250
4,200333	0,5	-0,046000
4,208667	0,5	-0,009900
4,217000	0,5	-0,000300
4,225333	0,5	-0,002600
4,233667	0,5	-0,016500
4,242000	0,5	-0,042200
4,250333	0,5	-0,074400
4,258667	0,5	-0,107300
4,267000	0,5	-0,130200
4,275333	0,5	-0,151100
4,283667	0,5	-0,160400
4,292000	0,5	-0,169950
4,300333	0,5	-0,176350
4,308667	0,5	-0,172050
4,317000	0,5	-0,175500
4,325333	0,5	-0,189350
4,333667	0,5	-0,181550
4,342000	0,5	-0,164850
4,350333	0,5	-0,134200
4,358667	0,5	-0,108650
4,367000	0,5	-0,078400
4,375333	0,5	-0,037350
4,383667	0,5	0,017450
4,392000	0,5	0,072150
4,400333	0,5	0,123500
4,408667	0,5	0,168500
4,417000	0,5	0,189150
4,425333	0,5	0,198250
4,433667	0,5	0,182950
4,442000	0,5	0,143650
4,450333	0,5	0,085400
4,458667	0,5	0,045300
4,467000	0,5	-0,016300
4,475333	0,5	-0,072450
4,483667	0,5	-0,118050
4,492000	0,5	-0,147850
4,500333	0,5	-0,164450
4,508667	0,5	-0,180050
4,517000	0,5	-0,200100
4,525333	0,5	-0,208050
4,533667	0,5	-0,218900
4,542000	0,5	-0,220200
4,550333	0,5	-0,230750
4,558667	0,5	-0,232550
4,567000	0,5	-0,236600
4,575333	0,5	-0,233750
4,583667	0,5	-0,241650
4,592000	0,5	-0,253350
4,600333	0,5	-0,252350
4,608667	0,5	-0,243450
4,617000	0,5	-0,253950
4,625333	0,5	-0,256600
4,633667	0,5	-0,249100
4,642000	0,5	-0,235900
4,650333	0,5	-0,217200
4,658667	0,5	-0,214050
4,667000	0,5	-0,209000
4,675333	0,5	-0,212600
4,683667	0,5	-0,205250
4,692000	0,5	-0,211200
4,700333	0,5	-0,204800
4,708667	0,5	-0,199000
4,717000	0,5	-0,200650
4,725333	0,5	-0,192150
4,733667	0,5	-0,196550
4,742000	0,5	-0,189100
4,750333	0,5	-0,164350
4,758667	0,5	-0,157000
4,767000	0,5	-0,149250
4,775333	0,5	-0,132000
4,783667	0,5	-0,111900
4,792000	0,5	-0,074300
4,800333	0,5	-0,042550
4,808667	0,5	-0,012300
4,817000	0,5	0,016650
4,825333	0,5	0,059800
4,833667	0,5	0,100450
4,842000	0,5	0,157850
4,850333	0,5	0,218150
4,858667	0,5	0,307850
4,867000	0,5	0,427000
4,875333	0,5	0,601700
4,883667	0,5	0,825450
4,892000	0,5	1,136100
4,900333	0,5	1,546250
4,908667	0,5	2,024550
4,917000	0,5	2,561500
4,925333	0,5	3,122000
4,933667	0,5	3,645050
4,942000	0,5	4,075650
4,950333	0,5	4,326050
4,958667	0,5	4,376550
4,967000	0,5	4,243650
4,975333	0,5	3,939150
4,983667	0,5	3,517650
4,992000	0,5	3,032800
5,000333	0,5	2,537850
5,008667	0,5	2,065700
5,017000	0,5	1,660150
5,025333	0,5	1,313100
5,033667	0,5	1,025650
5,042000	0,5	0,793500
5,050333	0,5	0,633500
5,058667	0,5	0,480850
5,067000	0,5	0,372200
5,075333	0,5	0,290750
5,083667	0,5	0,235250
5,092000	0,5	0,199900
5,100333	0,5	0,155650
5,108667	0,5	0,128050
5,117000	0,5	0,110950
5,125333	0,5	0,099100
5,133667	0,5	0,090200
5,142000	0,5	0,089700
5,150333	0,5	0,086700
5,158667	0,5	0,092700
5,167000	0,5	0,095750
5,175333	0,5	0,099600
5,183667	0,5	0,087950
5,192000	0,5	0,086350
5,200333	0,5	0,080800
5,208667	0,5	0,054550
5,217000	0,5	0,031950
5,225333	0,5	0,016750
5,233667	0,5	-0,000450
5,242000	0,5	-0,006700
5,250333	0,5	-0,030050
5,258667	0,5	-0,037100
5,267000	0,5	-0,052550
5,275333	0,5	-0,063450
5,283667	0,5	-0,071150
5,292000	0,5	-0,078800
5,300333	0,5	-0,085650
5,308667	0,5	-0,088200
5,317000	0,5	-0,090150
5,325333	0,5	-0,099100
5,333667	0,5	-0,105900
5,342000	0,5	-0,107350
5,350333	0,5	-0,108050
5,358667	0,5	-0,117950
5,367000	0,5	-0,121100
5,375333	0,5	-0,120650
5,383667	0,5	-0,112750
5,392000	0,5	-0,114950
5,400333	0,5	-0,114900
5,408667	0,5	-0,124700
5,417000	0,5	-0,127800
5,425333	0,5	-0,135350
5,433667	0,5	-0,139550
5,442000	0,5	-0,148750
5,450333	0,5	-0,153650
5,458667	0,5	-0,162850
5,467000	0,5	-0,166900
5,475333	0,5	-0,171850
5,483667	0,5	-0,176200
5,492000	0,5	-0,174950
5,500333	0,5	-0,186800
5,508667	0,5	-0,193600
5,517000	0,5	-0,202350
5,525333	0,5	-0,198150
5,533667	0,5	-0,194350
5,542000	0,5	-0,184700
5,550333	0,5	-0,196000
5,558667	0,5	-0,195850
5,567000	0,5	-0,205800
5,575333	0,5	-0,208500
5,583667	0,5	-0,210550
5,592000	0,5	-0,216500
5,600333	0,5	-0,224550
5,608667	0,5	-0,226750
5,617000	0,5	-0,231600
5,625333	0,5	-0,245450
5,633667	0,5	-0,248500
5,642000	0,5	-0,245900
5,650333	0,5	-0,262000
5,658667	0,5	-0,268350
5,667000	0,5	-0,274950
5,675333	0,5	-0,266850
5,683667	0,5	-0,257450
5,692000	0,5	-0,260750
5,700333	0,5	-0,265300
5,708667	0,5	-0,274350
5,717000	0,5	-0,276800
5,725333	0,5	-0,282050
5,733667	0,5	-0,287200
5,742000	0,5	-0,294800
5,750333	0,5	-0,297350
5,758667	0,5	-0,305100
5,767000	0,5	-0,310200
5,775333	0,5	-0,318550
5,783667	0,5	-0,316000
5,792000	0,5	-0,321950
5,800333	0,5	-0,335100
5,808667	0,5	-0,340850
5,817000	0,5	-0,344200
5,825333	0,5	-0,340100
5,833667	0,5	-0,343400
5,842000	0,5	-0,346600
5,850333	0,5	-0,353350
5,858667	0,5	-0,359050
5,867000	0,5	-0,361950
5,875333	0,5	-0,364850
5,883667	0,5	-0,372250
5,892000	0,5	-0,380100
5,900333	0,5	-0,387050
5,908667	0,5	-0,389350
5,917000	0,5	-0,400050
5,925333	0,5	-0,399300
5,933667	0,5	-0,397250
5,942000	0,5	-0,404850
5,950333	0,5	-0,419450
5,958667	0,5	-0,417500
5,967000	0,5	-0,423300
5,975333	0,5	-0,413200
5,983667	0,5	-0,417450
5,992000	0,5	-0,420750
6,000333	0,5	-0,425350
6,008667	0,5	-0,426500
6,017000	0,5	-0,430250
6,025333	0,5	-0,437000
6,033667	0,5	-0,439050
6,042000	0,5	-0,441500
6,050333	0,5	-0,443400
6,058667	0,5	-0,445600
6,067000	0,5	-0,442100
6,075333	0,5	-0,451750
6,083667	0,5	-0,442500
6,092000	0,5	-0,454750
6,100333	0,5	-0,458700
6,108667	0,5	-0,465200
6,117000	0,5	-0,458050
6,125333	0,5	-0,450050
6,133667	0,5	-0,455300
6,142000	0,5	-0,460450
6,150333	0,5	-0,455150
6,158667	0,5	-0,456150
6,167000	0,5	-0,451800
6,175333	0,5	-0,454950
6,183667	0,5	-0,458200
6,192000	0,5	-0,458250
6,200333	0,5	-0,459050
6,208667	0,5	-0,458500
6,217000	0,5	-0,464850
6,225333	0,5	-0,464150
6,233667	0,5	-0,458900
6,242000	0,5	-0,467050
6,250333	0,5	-0,471150
6,258667	0,5	-0,465200
6,267000	0,5	-0,459100
6,275333	0,5	-0,445050
6,283667	0,5	-0,443000
6,292000	0,5	-0,430150
6,300333	0,5	-0,420050
6,308667	0,5	-0,401600
6,317000	0,5	-0,381200
6,325333	0,5	-0,358600
6,333667	0,5	-0,343300
6,342000	0,5	-0,323200
6,350333	0,5	-0,308450
6,358667	0,5	-0,300200
6,367000	0,5	-0,299000
6,375333	0,5	-0,297450
6,383667	0,5	-0,305650
6,392000	0,5	-0,322100
6,400333	0,5	-0,338050
6,408667	0,5	-0,349200
6,417000	0,5	-0,356450
6,425333	0,5	-0,361050
6,433667	0,5	-0,373500
6,442000	0,5	-0,387750
6,450333	0,5	-0,391300
6,458667	0,5	-0,400300
6,467000	0,5	-0,404350
6,475333	0,5	-0,412300
6,483667	0,5	-0,412950
6,492000	0,5	-0,413800
6,500333	0,5	-0,409850
6,508667	0,5	-0,408850
6,517000	0,5	-0,406950
6,525333	0,5	-0,399400
6,533667	0,5	-0,399650
6,542000	0,5	-0,403550
6,550333	0,5	-0,397800
6,558667	0,5	-0,389900
6,567000	0,5	-0,375150
6,575333	0,5	-0,357850
6,583667	0,5	-0,353700
6,592000	0,5	-0,346250
6,600333	0,5	-0,336950
6,608667	0,5	-0,325850
6,617000	0,5	-0,319850
6,625333	0,5	-0,311800
6,633667	0,5	-0,309150
6,642000	0,5	-0,300800
6,650333	0,5	-0,292900
6,658667	0,5	-0,285550
6,667000	0,5	-0,281350
6,675333	0,5	-0,273100
6,683667	0,5	-0,280100
6,692000	0,5	-0,280300
6,700333	0,5	-0,284700
6,708667	0,5	-0,272250
6,717000	0,5	-0,269200
6,725333	0,5	-0,270700
6,733667	0,5	-0,272300
6,742000	0,5	-0,277500
6,750333	0,5	-0,278100
6,758667	0,5	-0,279000
6,767000	0,5	-0,280800
6,775333	0,5	-0,281450
6,783667	0,5	-0,278500
6,792000	0,5	-0,282050
6,800333	0,5	-0,280950
6,808667	0,5	-0,282500
6,817000	0,5	-0,272700
6,825333	0,5	-0,274950
6,833667	0,5	-0,275750
6,842000	0,5	-0,276800
6,850333	0,5	-0,270250
6,858667	0,5	-0,263600
6,867000	0,5	-0,256750
6,875333	0,5	-0,256250
6,883667	0,5	-0,252350
6,892000	0,5	-0,250550
6,900333	0,5	-0,247750
6,908667	0,5	-0,249650
6,917000	0,5	-0,249550
6,925333	0,5	-0,249450
6,933667	0,5	-0,251550
6,942000	0,5	-0,250000
6,950333	0,5	-0,248000
6,958667	0,5	-0,246000
6,967000	0,5	-0,236800
6,975333	0,5	-0,244800
6,983667	0,5	-0,246250
6,992000	0,5	-0,246400
7,000333	0,5	-0,249750
7,008667	0,5	-0,238000
7,017000	0,5	-0,232200
7,025333	0,5	-0,230150
7,033667	0,5	-0,233550
7,042000	0,5	-0,230150
7,050333	0,5	-0,231350
7,058667	0,5	-0,225150
7,067000	0,5	-0,230150
7,075333	0,5	-0,228800
7,083667	0,5	-0,226800
7,092000	0,5	-0,221850
7,100333	0,5	-0,217250
7,108667	0,5	-0,222250
7,117000	0,5	-0,211450
7,125333	0,5	-0,215200
7,133667	0,5	-0,210450
7,142000	0,5	-0,204200
7,150333	0,5	-0,189300
7,158667	0,5	-0,159250
7,167000	0,5	-0,140150
7,175333	0,5	-0,115600
7,183667	0,5	-0,086900
7,192000	0,5	-0,058800
7,200333	0,5	-0,023550
7,208667	0,5	0,015800
7,217000	0,5	0,059150
7,225333	0,5	0,109550
7,233667	0,5	0,185150
7,242000	0,5	0,301450
7,250333	0,5	0,475650
7,258667	0,5	0,736950
7,267000	0,5	1,141100
7,275333	0,5	1,676100
7,283667	0,5	2,358500
7,292000	0,5	3,124950
7,300333	0,5	3,868700
7,308667	0,5	4,450750
7,317000	0,5	4,733500
7,325333	0,5	4,675300
7,333667	0,5	4,282200
7,342000	0,5	3,653450
7,350333	0,5	2,907650
7,358667	0,5	2,175200
7,367000	0,5	1,533950
7,375333	0,5	1,029800
7,383667	0,5	0,658350
7,392000	0,5	0,403000
7,400333	0,5	0,229150
7,408667	0,5	0,122600
7,417000	0,5	0,047300
7,425333	0,5	-0,004650
7,433667	0,5	-0,039150
7,442000	0,5	-0,059900
7,450333	0,5	-0,067900
7,458667	0,5	-0,077100
7,467000	0,5	-0,085800
7,475333	0,5	-0,091000
7,483667	0,5	-0,094950
7,492000	0,5	-0,099300
7,500333	0,5	-0,104500
7,508667	0,5	-0,106400
7,517000	0,5	-0,106900
7,525333	0,5	-0,113800
7,533667	0,5	-0,113900
7,542000	0,5	-0,115550
7,550333	0,5	-0,115800
7,558667	0,5	-0,118250
7,567000	0,5	-0,124000
7,575333	0,5	-0,131250
7,583667	0,5	-0,139900
7,592000	0,5	-0,139700
7,600333	0,5	-0,137450
7,608667	0,5	-0,135350
7,617000	0,5	-0,136650
7,625333	0,5	-0,141550
7,633667	0,5	-0,146150
7,642000	0,5	-0,145200
7,650333	0,5	-0,151500
7,658667	0,5	-0,153200
7,667000	0,5	-0,155050
7,675333	0,5	-0,156700
7,683667	0,5	-0,159550
7,692000	0,5	-0,161700
7,700333	0,5	-0,157450
7,708667	0,5	-0,155800
7,717000	0,5	-0,159800
7,725333	0,5	-0,161600
7,733667	0,5	-0,165100
7,742000	0,5	-0,160750
7,750333	0,5	-0,154850
7,758667	0,5	-0,150900
7,767000	0,5	-0,149250
7,775333	0,5	-0,145550
7,783667	0,5	-0,145250
7,792000	0,5	-0,144550
7,800333	0,5	-0,142950
7,808667	0,5	-0,139200
7,817000	0,5	-0,140800
7,825333	0,5	-0,135650
7,833667	0,5	-0,136850
7,842000	0,5	-0,139300
7,850333	0,5	-0,137350
7,858667	0,5	-0,134500
7,867000	0,5	-0,135750
7,875333	0,5	-0,135900
7,883667	0,5	-0,135100
7,892000	0,5	-0,127400
7,900333	0,5	-0,123300
7,908667	0,5	-0,123200
7,917000	0,5	-0,115350
7,925333	0,5	-0,116400
7,933667	0,5	-0,111100
7,942000	0,5	-0,108900
7,950333	0,5	-0,108600
7,958667	0,5	-0,108200
7,967000	0,5	-0,106600
7,975333	0,5	-0,105800
7,983667	0,5	-0,102500
7,992000	0,5	-0,103950
8,000333	0,5	-0,095700
8,008667	0,5	-0,095200
8,017000	0,5	-0,091800
8,025333	0,5	-0,095050
8,033667	0,5	-0,088950
8,042000	0,5	-0,083400
8,050333	0,5	-0,078550
8,058667	0,5	-0,073800
8,067000	0,5	-0,071000
8,075333	0,5	-0,068650
8,083667	0,5	-0,066400
8,092000	0,5	-0,063600
8,100333	0,5	-0,061700
8,108667	0,5	-0,059900
8,117000	0,5	-0,058750
8,125333	0,5	-0,053500
8,133667	0,5	-0,049300
8,142000	0,5	-0,049550
8,150333	0,5	-0,043250
8,158667	0,5	-0,046450
8,167000	0,5	-0,044050
8,175333	0,5	-0,043950
8,183667	0,5	-0,040150
8,192000	0,5	-0,031250
8,200333	0,5	-0,028400
8,208667	0,5	-0,024100
8,217000	0,5	-0,022650
8,225333	0,5	-0,018300
8,233667	0,5	-0,011450
8,242000	0,5	-0,011200
8,250333	0,5	-0,009950
8,258667	0,5	-0,005400
8,267000	0,5	-0,000150
8,275333	0,5	0,003850
8,283667	0,5	0,003850
8,292000	0,5	0,006550
8,300333	0,5	0,012100
8,308667	0,5	0,014200
8,317000	0,5	0,016050
8,325333	0,5	0,017300
8,333667	0,5	0,022150
8,342000	0,5	0,031250
8,350333	0,5	0,033400
8,358667	0,5	0,036000
8,367000	0,5	0,043050
8,375333	0,5	0,044350
8,383667	0,5	0,044900
8,392000	0,5	0,050050
8,400333	0,5	0,050150
8,408667	0,5	0,055300
8,417000	0,5	0,056750
8,425333	0,5	0,059600
8,433667	0,5	0,063050
8,442000	0,5	0,065200
8,450333	0,5	0,066950
8,458667	0,5	0,067250
8,467000	0,5	0,070550
8,475333	0,5	0,076600
8,483667	0,5	0,084700
8,492000	0,5	0,089550
8,500333	0,5	0,099800
8,508667	0,5	0,103250
8,517000	0,5	0,107650
8,525333	0,5	0,115800
8,533667	0,5	0,119950
8,542000	0,5	0,124400
8,550333	0,5	0,128350
8,558667	0,5	0,131150
8,567000	0,5	0,131200
8,575333	0,5	0,133500
8,583667	0,5	0,135950
8,592000	0,5	0,145550
8,600333	0,5	0,155900
8,608667	0,5	0,173800
8,617000	0,5	0,196850
8,625333	0,5	0,230200
8,633667	0,5	0,279400
8,642000	0,5	0,328300
8,650333	0,5	0,388800
8,658667	0,5	0,453700
8,667000	0,5	0,534700
8,675333	0,5	0,634100
8,683667	0,5	0,783150
8,692000	0,5	1,022750
8,700333	0,5	1,416300
8,708667	0,5	2,036150
8,717000	0,5	2,931450
8,725333	0,5	4,069200
8,733667	0,5	5,308850
8,742000	0,5	6,395300
8,750333	0,5	7,067800
8,758667	0,5	7,143200
8,767000	0,5	6,632700
8,775333	0,5	5,677800
8,783667	0,5	4,521800
8,792000	0,5	3,390850
8,800333	0,5	2,437550
8,808667	0,5	1,716650
8,817000	0,5	1,216450
8,825333	0,5	0,896000
8,833667	0,5	0,696550
8,842000	0,5	0,573650
8,850333	0,5	0,502350
8,858667	0,5	0,455200
8,867000	0,5	0,424800
8,875333	0,5	0,405500
8,883667	0,5	0,391900
8,892000	0,5	0,384350
8,900333	0,5	0,374800
8,908667	0,5	0,370000
8,917000	0,5	0,370450
8,925333	0,5	0,367000
8,933667	0,5	0,369500
8,942000	0,5	0,367250
8,950333	0,5	0,369100
8,958667	0,5	0,371650
8,967000	0,5	0,375300
8,975333	0,5	0,376600
8,983667	0,5	0,377450
8,992000	0,5	0,379400
9,000333	0,5	0,379200
9,008667	0,5	0,379050
9,017000	0,5	0,378500
9,025333	0,5	0,375550
9,033667	0,5	0,375900
9,042000	0,5	0,376750
9,050333	0,5	0,376200
9,058667	0,5	0,373950
9,067000	0,5	0,375550
9,075333	0,5	0,380500
9,083667	0,5	0,383050
9,092000	0,5	0,385550
9,100333	0,5	0,389050
9,108667	0,5	0,391000
9,117000	0,5	0,395900
9,125333	0,5	0,397850
9,133667	0,5	0,401750
9,142000	0,5	0,397100
9,150333	0,5	0,402700
9,158667	0,5	0,407800
9,167000	0,5	0,409600
9,175333	0,5	0,408050
9,183667	0,5	0,410850
9,192000	0,5	0,415950
9,200333	0,5	0,415750
9,208667	0,5	0,418600
9,217000	0,5	0,418550
9,225333	0,5	0,421650
9,233667	0,5	0,429650
9,242000	0,5	0,432400
9,250333	0,5	0,436400
9,258667	0,5	0,440250
9,267000	0,5	0,442600
9,275333	0,5	0,445200
9,283667	0,5	0,446450
9,292000	0,5	0,452800
9,300333	0,5	0,456350
9,308667	0,5	0,457500
9,317000	0,5	0,461650
9,325333	0,5	0,462500
9,333667	0,5	0,464850
9,342000	0,5	0,469900
9,350333	0,5	0,471200
9,358667	0,5	0,472100
9,367000	0,5	0,475900
9,375333	0,5	0,480500
9,383667	0,5	0,486900
9,392000	0,5	0,488150
9,400333	0,5	0,492800
9,408667	0,5	0,497550
9,417000	0,5	0,501150
9,425333	0,5	0,504150
9,433667	0,5	0,506050
9,442000	0,5	0,508350
9,450333	0,5	0,511000
9,458667	0,5	0,512150
9,467000	0,5	0,515800
9,475333	0,5	0,518100
9,483667	0,5	0,522800
9,492000	0,5	0,526400
9,500333	0,5	0,525600
9,508667	0,5	0,525350
9,517000	0,5	0,529700
9,525333	0,5	0,534450
9,533667	0,5	0,540700
9,542000	0,5	0,542700
9,550333	0,5	0,546850
9,558667	0,5	0,551000
9,567000	0,5	0,552100
9,575333	0,5	0,555700
9,583667	0,5	0,559600
9,592000	0,5	0,560450
9,600333	0,5	0,563750
9,608667	0,5	0,564550
9,617000	0,5	0,566300
9,625333	0,5	0,568500
9,633667	0,5	0,571400
9,642000	0,5	0,569900
9,650333	0,5	0,571350
9,658667	0,5	0,575700
9,667000	0,5	0,573750
9,675333	0,5	0,583500
9,683667	0,5	0,584800
9,692000	0,5	0,589150
9,700333	0,5	0,589800
9,708667	0,5	0,591550
9,717000	0,5	0,594800
9,725333	0,5	0,593900
9,733667	0,5	0,596650
9,742000	0,5	0,597250
9,750333	0,5	0,599650
9,758667	0,5	0,600350
9,767000	0,5	0,598000
9,775333	0,5	0,599550
9,783667	0,5	0,600400
9,792000	0,5	0,599050
9,800333	0,5	0,596300
9,808667	0,5	0,598750
9,817000	0,5	0,602150
9,825333	0,5	0,603000
9,833667	0,5	0,609300
9,842000	0,5	0,609950
9,850333	0,5	0,612250
9,858667	0,5	0,613650
9,867000	0,5	0,618750
9,875333	0,5	0,617400
9,883667	0,5	0,619500
9,892000	0,5	0,615300
9,900333	0,5	0,616900
9,908667	0,5	0,617600
9,917000	0,5	0,613650
9,925333	0,5	0,614300
9,933667	0,5	0,614950
9,942000	0,5	0,613150
9,950333	0,5	0,612600
9,958667	0,5	0,612300
9,967000	0,5	0,611250
9,975333	0,5	0,615100
9,983667	0,5	0,608750
9,992000	0,5	0,613050
10,000333	0,5	0,609900
10,008667	0,5	0,611800
10,017000	0,5	0,610700
10,025333	0,5	0,613450
10,033667	0,5	0,611600
10,042000	0,5	0,612700
10,050333	0,5	0,607000
10,058667	0,5	0,611300
10,067000	0,5	0,603800
10,075333	0,5	0,608250
10,083667	0,5	0,607450
10,092000	0,5	0,603450
10,100333	0,5	0,603100
10,108667	0,5	0,600200
10,117000	0,5	0,603000
10,125333	0,5	0,602700
10,133667	0,5	0,603300
10,142000	0,5	0,604850
10,150333	0,5	0,604550
10,158667	0,5	0,602700
10,167000	0,5	0,605800
10,175333	0,5	0,604850
10,183667	0,5	0,602700
10,192000	0,5	0,601500
10,200333	0,5	0,600550
10,208667	0,5	0,592400
10,217000	0,5	0,592100
10,225333	0,5	0,590150
10,233667	0,5	0,588400
10,242000	0,5	0,582350
10,250333	0,5	0,577250
10,258667	0,5	0,576700
10,267000	0,5	0,577050
10,275333	0,5	0,571800
10,283667	0,5	0,573300
10,292000	0,5	0,568400
10,300333	0,5	0,566600
10,308667	0,5	0,566050
10,317000	0,5	0,563850
10,325333	0,5	0,561350
10,333667	0,5	0,559600
10,342000	0,5	0,559250
10,350333	0,5	0,558800
10,358667	0,5	0,555950
10,367000	0,5	0,557250
10,375333	0,5	0,560400
10,383667	0,5	0,558700
10,392000	0,5	0,556500
10,400333	0,5	0,551050
10,408667	0,5	0,551600
10,417000	0,5	0,553300
10,425333	0,5	0,550350
10,433667	0,5	0,548150
10,442000	0,5	0,547800
10,450333	0,5	0,543250
10,458667	0,5	0,543100
10,467000	0,5	0,542150
10,475333	0,5	0,541650
10,483667	0,5	0,540150
10,492000	0,5	0,540000
10,500333	0,5	0,539150
10,508667	0,5	0,533900
10,517000	0,5	0,536300
10,525333	0,5	0,533550
10,533667	0,5	0,532850
10,542000	0,5	0,529800
10,550333	0,5	0,526150
10,558667	0,5	0,524400
10,567000	0,5	0,525150
10,575333	0,5	0,523000
10,583667	0,5	0,525100
10,592000	0,5	0,520600
10,600333	0,5	0,521050
10,608667	0,5	0,522700
10,617000	0,5	0,519100
10,625333	0,5	0,518750
10,633667	0,5	0,519950
10,642000	0,5	0,518100
10,650333	0,5	0,515400
10,658667	0,5	0,512550
10,667000	0,5	0,512850
10,675333	0,5	0,508100
10,683667	0,5	0,508000
10,692000	0,5	0,503250
10,700333	0,5	0,501050
10,708667	0,5	0,500850
10,717000	0,5	0,497750
10,725333	0,5	0,496400
10,733667	0,5	0,493850
10,742000	0,5	0,491100
10,750333	0,5	0,487700
10,758667	0,5	0,488100
10,767000	0,5	0,487800
10,775333	0,5	0,486750
10,783667	0,5	0,483050
10,792000	0,5	0,482650
10,800333	0,5	0,476600
10,808667	0,5	0,478700
10,817000	0,5	0,475400
10,825333	0,5	0,470500
10,833667	0,5	0,466800
10,842000	0,5	0,463000
10,850333	0,5	0,457350
10,858667	0,5	0,459700
10,867000	0,5	0,457650
10,875333	0,5	0,455200
10,883667	0,5	0,454450
10,892000	0,5	0,453100
10,900333	0,5	0,448350
10,908667	0,5	0,445600
10,917000	0,5	0,443000
10,925333	0,5	0,435600
10,933667	0,5	0,435900
10,942000	0,5	0,434250
10,950333	0,5	0,428400
10,958667	0,5	0,428300
10,967000	0,5	0,426800
10,975333	0,5	0,420750
10,983667	0,5	0,419300
10,992000	0,5	0,412550
11,000333	0,5	0,408750
11,008667	0,5	0,412650
11,017000	0,5	0,404450
11,025333	0,5	0,406550
11,033667	0,5	0,402850
11,042000	0,5	0,403500
11,050333	0,5	0,400100
11,058667	0,5	0,399050
11,067000	0,5	0,395150
11,075333	0,5	0,393450
11,083667	0,5	0,393200
11,092000	0,5	0,392450
11,100333	0,5	0,379800
11,108667	0,5	0,383600
11,117000	0,5	0,381850
11,125333	0,5	0,381000
11,133667	0,5	0,376250
11,142000	0,5	0,370950
11,150333	0,5	0,371800
11,158667	0,5	0,371250
11,167000	0,5	0,367550
11,175333	0,5	0,368050
11,183667	0,5	0,367800
11,192000	0,5	0,363800
11,200333	0,5	0,361550
11,208667	0,5	0,357850
11,217000	0,5	0,357650
11,225333	0,5	0,351650
11,233667	0,5	0,355350
11,242000	0,5	0,352250
11,250333	0,5	0,348700
11,258667	0,5	0,348050
11,267000	0,5	0,350150
11,275333	0,5	0,341900
11,283667	0,5	0,338650
11,292000	0,5	0,333000
11,300333	0,5	0,335750
11,308667	0,5	0,336100
11,317000	0,5	0,333900
11,325333	0,5	0,335900
11,333667	0,5	0,331700
11,342000	0,5	0,333200
11,350333	0,5	0,330950
11,358667	0,5	0,329200
11,367000	0,5	0,323600
11,375333	0,5	0,328050
11,383667	0,5	0,328900
11,392000	0,5	0,319100
11,400333	0,5	0,317100
11,408667	0,5	0,316750
11,417000	0,5	0,311750
11,425333	0,5	0,312550
11,433667	0,5	0,301800
11,442000	0,5	0,301100
11,450333	0,5	0,304050
11,458667	0,5	0,301550
11,467000	0,5	0,299000
11,475333	0,5	0,299350
11,483667	0,5	0,295850
11,492000	0,5	0,295350
11,500333	0,5	0,296650
11,508667	0,5	0,293600
11,517000	0,5	0,294750
11,525333	0,5	0,292450
11,533667	0,5	0,293300
11,542000	0,5	0,284850
11,550333	0,5	0,285800
11,558667	0,5	0,286600
11,567000	0,5	0,284100
11,575333	0,5	0,280500
11,583667	0,5	0,277650
11,592000	0,5	0,281600
11,600333	0,5	0,285700
11,608667	0,5	0,287650
11,617000	0,5	0,291800
11,625333	0,5	0,291950
11,633667	0,5	0,291400
11,642000	0,5	0,288050
11,650333	0,5	0,285700
11,658667	0,5	0,281400
11,667000	0,5	0,276900
11,675333	0,5	0,269350
11,683667	0,5	0,263000
11,692000	0,5	0,259900
11,700333	0,5	0,261200
11,708667	0,5	0,255300
11,717000	0,5	0,250450
11,725333	0,5	0,244850
11,733667	0,5	0,239500
11,742000	0,5	0,241050
11,750333	0,5	0,241700
11,758667	0,5	0,240350
11,767000	0,5	0,239300
11,775333	0,5	0,241600
11,783667	0,5	0,238850
11,792000	0,5	0,244300
11,800333	0,5	0,240950
11,808667	0,5	0,241200
11,817000	0,5	0,242150
11,825333	0,5	0,240650
11,833667	0,5	0,234550
11,842000	0,5	0,235950
11,850333	0,5	0,234100
11,858667	0,5	0,231100
11,867000	0,5	0,229800
11,875333	0,5	0,223650
11,883667	0,5	0,224500
11,892000	0,5	0,225700
11,900333	0,5	0,225850
11,908667	0,5	0,227050
11,917000	0,5	0,228100
11,925333	0,5	0,230650
11,933667	0,5	0,232250
11,942000	0,5	0,230250
11,950333	0,5	0,229750
11,958667	0,5	0,229600
11,967000	0,5	0,234300
11,975333	0,5	0,232800
11,983667	0,5	0,229300
11,992000	0,5	0,238450
12,000333	0,5	0,240950
12,008667	0,5	0,238250
12,017000	0,5	0,241000
12,025333	0,5	0,236350
12,033667	0,5	0,243250
12,042000	0,5	0,249850
12,050333	0,5	0,252750
12,058667	0,5	0,255100
12,067000	0,5	0,260350
12,075333	0,5	0,264250
12,083667	0,5	0,266400
12,092000	0,5	0,268050
12,100333	0,5	0,271650
12,108667	0,5	0,276150
12,117000	0,5	0,271550
12,125333	0,5	0,273800
12,133667	0,5	0,266500
12,142000	0,5	0,269350
12,150333	0,5	0,265800
12,158667	0,5	0,261850
12,167000	0,5	0,249350
12,175333	0,5	0,238900
12,183667	0,5	0,234450
12,192000	0,5	0,229100
12,200333	0,5	0,218300
12,208667	0,5	0,213700
12,217000	0,5	0,202200
12,225333	0,5	0,196000
12,233667	0,5	0,187600
12,242000	0,5	0,184750
12,250333	0,5	0,175250
12,258667	0,5	0,170550
12,267000	0,5	0,166500
12,275333	0,5	0,159000
12,283667	0,5	0,152350
12,292000	0,5	0,151150
12,300333	0,5	0,150250
12,308667	0,5	0,138200
12,317000	0,5	0,133850
12,325333	0,5	0,128350
12,333667	0,5	0,133500
12,342000	0,5	0,129350
12,350333	0,5	0,127450
12,358667	0,5	0,127150
12,367000	0,5	0,130350
12,375333	0,5	0,124600
12,383667	0,5	0,127600
12,392000	0,5	0,121750
12,400333	0,5	0,120800
12,408667	0,5	0,121100
12,417000	0,5	0,121150
12,425333	0,5	0,109450
12,433667	0,5	0,108600
12,442000	0,5	0,107750
12,450333	0,5	0,099300
12,458667	0,5	0,094450
12,467000	0,5	0,084650
12,475333	0,5	0,088400
12,483667	0,5	0,082300
12,492000	0,5	0,083200
12,500333	0,5	0,079400
12,508667	0,5	0,079950
12,517000	0,5	0,071600
12,525333	0,5	0,075500
12,533667	0,5	0,070800
12,542000	0,5	0,070750
12,550333	0,5	0,069950
12,558667	0,5	0,067950
12,567000	0,5	0,065850
12,575333	0,5	0,059800
12,583667	0,5	0,062150
12,592000	0,5	0,062250
12,600333	0,5	0,055600
12,608667	0,5	0,051300
12,617000	0,5	0,041900
12,625333	0,5	0,043050
12,633667	0,5	0,046000
12,642000	0,5	0,045650
12,650333	0,5	0,046800
12,658667	0,5	0,047050
12,667000	0,5	0,043800
12,675333	0,5	0,044550
12,683667	0,5	0,045550
12,692000	0,5	0,037850
12,700333	0,5	0,037950
12,708667	0,5	0,034900
12,717000	0,5	0,031500
12,725333	0,5	0,026800
12,733667	0,5	0,032150
12,742000	0,5	0,026850
12,750333	0,5	0,024900
12,758667	0,5	0,015900
12,767000	0,5	0,014300
12,775333	0,5	0,013850
12,783667	0,5	0,013900
12,792000	0,5	0,014700
12,800333	0,5	0,008600
12,808667	0,5	0,007400
12,817000	0,5	0,008300
12,825333	0,5	0,007900
12,833667	0,5	0,005550
12,842000	0,5	0,004700
12,850333	0,5	0,002950
12,858667	0,5	0,004750
12,867000	0,5	-0,008850
12,875333	0,5	-0,009100
12,883667	0,5	-0,006950
12,892000	0,5	-0,014300
12,900333	0,5	-0,022350
12,908667	0,5	-0,028900
12,917000	0,5	-0,028150
12,925333	0,5	-0,030650
12,933667	0,5	-0,032300
12,942000	0,5	-0,032200
12,950333	0,5	-0,030950
12,958667	0,5	-0,031150
12,967000	0,5	-0,034050
12,975333	0,5	-0,036450
12,983667	0,5	-0,041250
12,992000	0,5	-0,043800
13,000333	0,5	-0,038950
13,008667	0,5	-0,043750
13,017000	0,5	-0,052850
13,025333	0,5	-0,045550
13,033667	0,5	-0,047000
13,042000	0,5	-0,054300
13,050333	0,5	-0,052450
13,058667	0,5	-0,066050
13,067000	0,5	-0,060700
13,075333	0,5	-0,059200
13,083667	0,5	-0,064800
13,092000	0,5	-0,064000
13,100333	0,5	-0,064250
13,108667	0,5	-0,066450
13,117000	0,5	-0,064700
13,125333	0,5	-0,066100
13,133667	0,5	-0,071950
13,142000	0,5	-0,068150
13,150333	0,5	-0,071800
13,158667	0,5	-0,074650
13,167000	0,5	-0,078150
13,175333	0,5	-0,075250
13,183667	0,5	-0,080200
13,192000	0,5	-0,083000
13,200333	0,5	-0,086600
13,208667	0,5	-0,093000
13,217000	0,5	-0,093050
13,225333	0,5	-0,091750
13,233667	0,5	-0,097350
13,242000	0,5	-0,096750
13,250333	0,5	-0,100200
13,258667	0,5	-0,099800
13,267000	0,5	-0,101600
13,275333	0,5	-0,105050
13,283667	0,5	-0,106000
13,292000	0,5	-0,108750
13,300333	0,5	-0,104750
13,308667	0,5	-0,113300
13,317000	0,5	-0,114150
13,325333	0,5	-0,110800
13,333667	0,5	-0,112600
13,342000	0,5	-0,122550
13,350333	0,5	-0,130700
13,358667	0,5	-0,134100
13,367000	0,5	-0,129450
13,375333	0,5	-0,134050
13,383667	0,5	-0,130750
13,392000	0,5	-0,133600
13,400333	0,5	-0,133400
13,408667	0,5	-0,136900
13,417000	0,5	-0,138650
13,425333	0,5	-0,141000
13,433667	0,5	-0,142700
13,442000	0,5	-0,140650
13,450333	0,5	-0,139750
13,458667	0,5	-0,152650
13,467000	0,5	-0,146450
13,475333	0,5	-0,147800
13,483667	0,5	-0,151950
13,492000	0,5	-0,159350
13,500333	0,5	-0,167500
13,508667	0,5	-0,166200
13,517000	0,5	-0,163250
13,525333	0,5	-0,165950
13,533667	0,5	-0,166050
13,542000	0,5	-0,167950
13,550333	0,5	-0,171550
13,558667	0,5	-0,169800
13,567000	0,5	-0,171850
13,575333	0,5	-0,174900
13,583667	0,5	-0,172400
13,592000	0,5	-0,175450
13,600333	0,5	-0,180750
13,608667	0,5	-0,184750
13,617000	0,5	-0,180350
13,625333	0,5	-0,182600
13,633667	0,5	-0,184550
13,642000	0,5	-0,196200
13,650333	0,5	-0,201650
13,658667	0,5	-0,201250
13,667000	0,5	-0,199900
13,675333	0,5	-0,199700
13,683667	0,5	-0,197850
13,692000	0,5	-0,200050
13,700333	0,5	-0,199800
13,708667	0,5	-0,205700
13,717000	0,5	-0,202250
13,725333	0,5	-0,207600
13,733667	0,5	-0,205750
13,742000	0,5	-0,209700
13,750333	0,5	-0,217700
13,758667	0,5	-0,221250
13,767000	0,5	-0,212850
13,775333	0,5	-0,220550
13,783667	0,5	-0,223350
13,792000	0,5	-0,234000
13,800333	0,5	-0,234850
13,808667	0,5	-0,236100
13,817000	0,5	-0,233950
13,825333	0,5	-0,232350
13,833667	0,5	-0,234000
13,842000	0,5	-0,237500
13,850333	0,5	-0,234300
13,858667	0,5	-0,234300
13,867000	0,5	-0,237550
13,875333	0,5	-0,238900
13,883667	0,5	-0,242600
13,892000	0,5	-0,239250
13,900333	0,5	-0,254550
13,908667	0,5	-0,247850
13,917000	0,5	-0,249300
13,925333	0,5	-0,251250
13,933667	0,5	-0,264750
13,942000	0,5	-0,271600
13,950333	0,5	-0,272700
13,958667	0,5	-0,275350
13,967000	0,5	-0,276750
13,975333	0,5	-0,279450
13,983667	0,5	-0,285600
13,992000	0,5	-0,279400
14,000333	0,5	-0,283700
14,008667	0,5	-0,287150
14,017000	0,5	-0,290500
14,025333	0,5	-0,303250
14,033667	0,5	-0,295500
14,042000	0,5	-0,298700
14,050333	0,5	-0,312750
14,058667	0,5	-0,307150
14,067000	0,5	-0,307550
14,075333	0,5	-0,316650
14,083667	0,5	-0,323650
14,092000	0,5	-0,332650
14,100333	0,5	-0,331200
14,108667	0,5	-0,333500
14,117000	0,5	-0,339300
14,125333	0,5	-0,340600
14,133667	0,5	-0,340150
14,142000	0,5	-0,346300
14,150333	0,5	-0,345000
14,158667	0,5	-0,346350
14,167000	0,5	-0,352450
14,175333	0,5	-0,352750
14,183667	0,5	-0,354700
14,192000	0,5	-0,363700
14,200333	0,5	-0,366900
14,208667	0,5	-0,361350
14,217000	0,5	-0,370550
14,225333	0,5	-0,373150
14,233667	0,5	-0,381250
14,242000	0,5	-0,384700
14,250333	0,5	-0,382100
14,258667	0,5	-0,383350
14,267000	0,5	-0,389000
14,275333	0,5	-0,389000
14,283667	0,5	-0,392400
14,292000	0,5	-0,390950
14,300333	0,5	-0,392750
14,308667	0,5	-0,395350
14,317000	0,5	-0,398800
14,325333	0,5	-0,399450
14,333667	0,5	-0,398700
14,342000	0,5	-0,409150
14,350333	0,5	-0,407450
14,358667	0,5	-0,400550
14,367000	0,5	-0,408800
14,375333	0,5	-0,415650
14,383667	0,5	-0,426250
14,392000	0,5	-0,432850
14,400333	0,5	-0,429400
14,408667	0,5	-0,432950
14,417000	0,5	-0,430900
14,425333	0,5	-0,436600
14,433667	0,5	-0,433100
14,442000	0,5	-0,437750
14,450333	0,5	-0,436750
14,458667	0,5	-0,442700
14,467000	0,5	-0,445850
14,475333	0,5	-0,446000
14,483667	0,5	-0,444350
14,492000	0,5	-0,462050
14,500333	0,5	-0,453650
14,508667	0,5	-0,460250
14,517000	0,5	-0,463550
14,525333	0,5	-0,471800
14,533667	0,5	-0,485050
14,542000	0,5	-0,483950
14,550333	0,5	-0,485100
14,558667	0,5	-0,485100
14,567000	0,5	-0,490300
14,575333	0,5	-0,487250
14,583667	0,5	-0,497300
14,592000	0,5	-0,495050
14,600333	0,5	-0,502150
14,608667	0,5	-0,499400
14,617000	0,5	-0,499150
14,625333	0,5	-0,497200
14,633667	0,5	-0,505550
14,642000	0,5	-0,510550
14,650333	0,5	-0,508400
14,658667	0,5	-0,511250
14,667000	0,5	-0,518000
14,675333	0,5	-0,530900
14,683667	0,5	-0,536300
14,692000	0,5	-0,538300
14,700333	0,5	-0,539000
14,708667	0,5	-0,537950
14,717000	0,5	-0,538400
14,725333	0,5	-0,537400
14,733667	0,5	-0,537850
14,742000	0,5	-0,541800
14,750333	0,5	-0,543000
14,758667	0,5	-0,545000
14,767000	0,5	-0,542200
14,775333	0,5	-0,551250
14,783667	0,5	-0,559400
14,792000	0,5	-0,561450
14,800333	0,5	-0,553850
14,808667	0,5	-0,563050
14,817000	0,5	-0,564500
14,825333	0,5	-0,581450
14,833667	0,5	-0,582600
14,842000	0,5	-0,582700
14,850333	0,5	-0,578700
14,858667	0,5	-0,583800
14,867000	0,5	-0,586850
14,875333	0,5	-0,586600
14,883667	0,5	-0,588850
14,892000	0,5	-0,587600
14,900333	0,5	-0,595100
14,908667	0,5	-0,593750
14,917000	0,5	-0,589350
14,925333	0,5	-0,592250
14,933667	0,5	-0,605700
14,942000	0,5	-0,599100
14,950333	0,5	-0,598800
14,958667	0,5	-0,603000
14,967000	0,5	-0,615900
14,975333	0,5	-0,622500
14,983667	0,5	-0,622450
14,992000	0,5	-0,618750
15,000333	0,5	-0,623250
15,008667	0,5	-0,621200
15,017000	0,5	-0,621700
15,025333	0,5	-0,624200
15,033667	0,5	-0,624200
15,042000	0,5	-0,624600
15,050333	0,5	-0,627700
15,058667	0,5	-0,631300
15,067000	0,5	-0,625950
15,075333	0,5	-0,631000
15,083667	0,5	-0,641050
15,092000	0,5	-0,636200
15,100333	0,5	-0,632400
15,108667	0,5	-0,641550
15,117000	0,5	-0,645450
15,125333	0,5	-0,652550
15,133667	0,5	-0,645400
15,142000	0,5	-0,648050
15,150333	0,5	-0,651300
15,158667	0,5	-0,652050
15,167000	0,5	-0,652550
15,175333	0,5	-0,648450
15,183667	0,5	-0,651150
15,192000	0,5	-0,653150
15,200333	0,5	-0,656750
15,208667	0,5	-0,651200
15,217000	0,5	-0,647850
15,225333	0,5	-0,659550
15,233667	0,5	-0,659400
15,242000	0,5	-0,664950
15,250333	0,5	-0,671750
15,258667	0,5	-0,674150
15,267000	0,5	-0,688300
15,275333	0,5	-0,682700
15,283667	0,5	-0,686500
15,292000	0,5	-0,683550
15,300333	0,5	-0,691950
15,308667	0,5	-0,691350
15,317000	0,5	-0,696700
15,325333	0,5	-0,695400
15,333667	0,5	-0,699500
15,342000	0,5	-0,699800
15,350333	0,5	-0,701750
15,358667	0,5	-0,702650
15,367000	0,5	-0,702900
15,375333	0,5	-0,715350
15,383667	0,5	-0,707900
15,392000	0,5	-0,709200
15,400333	0,5	-0,711350
15,408667	0,5	-0,718950
15,417000	0,5	-0,734100
15,425333	0,5	-0,734250
15,433667	0,5	-0,734600
15,442000	0,5	-0,734600
15,450333	0,5	-0,727250
15,458667	0,5	-0,732150
15,467000	0,5	-0,731050
15,475333	0,5	-0,734000
15,483667	0,5	-0,733200
15,492000	0,5	-0,737000
15,500333	0,5	-0,735000
15,508667	0,5	-0,738200
15,517000	0,5	-0,740250
15,525333	0,5	-0,753950
15,533667	0,5	-0,744750
15,542000	0,5	-0,744650
15,550333	0,5	-0,750900
15,558667	0,5	-0,762850
15,567000	0,5	-0,773850
15,575333	0,5	-0,770900
15,583667	0,5	-0,770600
15,592000	0,5	-0,773500
15,600333	0,5	-0,777500
15,608667	0,5	-0,776550
15,617000	0,5	-0,782250
15,625333	0,5	-0,780350
15,633667	0,5	-0,782350
15,642000	0,5	-0,779450
15,650333	0,5	-0,771450
15,658667	0,5	-0,770400
15,667000	0,5	-0,782500
15,675333	0,5	-0,780000
15,683667	0,5	-0,774350
15,692000	0,5	-0,786600
15,700333	0,5	-0,787000
15,708667	0,5	-0,803550
15,717000	0,5	-0,810200
15,725333	0,5	-0,806500
15,733667	0,5	-0,804250
15,742000	0,5	-0,807100
15,750333	0,5	-0,808600
15,758667	0,5	-0,806000
15,767000	0,5	-0,806100
15,775333	0,5	-0,806750
15,783667	0,5	-0,807900
15,792000	0,5	-0,811650
15,800333	0,5	-0,800550
15,808667	0,5	-0,808450
15,817000	0,5	-0,814500
15,825333	0,5	-0,813500
15,833667	0,5	-0,807200
15,842000	0,5	-0,817400
15,850333	0,5	-0,824450
15,858667	0,5	-0,839150
15,867000	0,5	-0,838200
15,875333	0,5	-0,838850
15,883667	0,5	-0,837200
15,892000	0,5	-0,839100
15,900333	0,5	-0,844900
15,908667	0,5	-0,844500
15,917000	0,5	-0,844050
15,925333	0,5	-0,840200
15,933667	0,5	-0,846200
15,942000	0,5	-0,841400
15,950333	0,5	-0,842250
15,958667	0,5	-0,847100
15,967000	0,5	-0,858550
15,975333	0,5	-0,848900
15,983667	0,5	-0,850600
15,992000	0,5	-0,859350
16,000333	0,5	-0,871450
16,008667	0,5	-0,873700
16,017000	0,5	-0,873900
16,025333	0,5	-0,868350
16,033667	0,5	-0,874150
16,042000	0,5	-0,874650
16,050333	0,5	-0,877350
16,058667	0,5	-0,872950
16,067000	0,5	-0,874200
16,075333	0,5	-0,876300
16,083667	0,5	-0,881100
16,092000	0,5	-0,887850
16,100333	0,5	-0,875300
16,108667	0,5	-0,891650
16,117000	0,5	-0,887700
16,125333	0,5	-0,884250
16,133667	0,5	-0,881450
16,142000	0,5	-0,894950
16,150333	0,5	-0,905750
16,158667	0,5	-0,907950
16,167000	0,5	-0,900800
16,175333	0,5	-0,908700
16,183667	0,5	-0,907850
16,192000	0,5	-0,914850
16,200333	0,5	-0,910500
16,208667	0,5	-0,915050
16,217000	0,5	-0,915450
16,225333	0,5	-0,916500
16,233667	0,5	-0,919350
16,242000	0,5	-0,911750
16,250333	0,5	-0,912250
16,258667	0,5	-0,926350
16,267000	0,5	-0,916350
16,275333	0,5	-0,919950
16,283667	0,5	-0,926200
16,292000	0,5	-0,935550
16,300333	0,5	-0,954950
16,308667	0,5	-0,944600
16,317000	0,5	-0,945100
16,325333	0,5	-0,945250
16,333667	0,5	-0,948750
16,342000	0,5	-0,946700
16,350333	0,5	-0,953150
16,358667	0,5	-0,952250
16,367000	0,5	-0,954850
16,375333	0,5	-0,957950
16,383667	0,5	-0,956900
16,392000	0,5	-0,958550
16,400333	0,5	-0,957250
16,408667	0,5	-0,967300
16,417000	0,5	-0,961550
16,425333	0,5	-0,958300
16,433667	0,5	-0,962300
16,442000	0,5	-0,974500
16,450333	0,5	-0,987250
16,458667	0,5	-0,989600
16,467000	0,5	-0,984950
16,475333	0,5	-0,990650
16,483667	0,5	-0,986450
16,492000	0,5	-0,990350
16,500333	0,5	-0,983250
16,508667	0,5	-0,988850
16,517000	0,5	-0,988250
16,525333	0,5	-0,991100
16,533667	0,5	-0,995200
16,542000	0,5	-0,994050
16,550333	0,5	-0,995550
16,558667	0,5	-0,999350
16,567000	0,5	-0,987400
16,575333	0,5	-0,994000
16,583667	0,5	-0,997800
16,592000	0,5	-1,007150
16,600333	0,5	-1,016950
16,608667	0,5	-1,005850
16,617000	0,5	-1,008050
16,625333	0,5	-1,004050
16,633667	0,5	-1,008850
16,642000	0,5	-1,003000
16,650333	0,5	-1,010050
16,658667	0,5	-1,006650
16,667000	0,5	-1,009650
16,675333	0,5	-1,008650
16,683667	0,5	-1,005400
16,692000	0,5	-1,006100
16,700333	0,5	-1,019950
16,708667	0,5	-1,006650
16,717000	0,5	-1,005750
16,725333	0,5	-1,008500
16,733667	0,5	-1,015950
16,742000	0,5	-1,030850
16,750333	0,5	-1,034450
16,758667	0,5	-1,035450
16,767000	0,5	-1,027000
16,775333	0,5	-1,030450
16,783667	0,5	-1,027300
16,792000	0,5	-1,027200
16,800333	0,5	-1,026900
16,808667	0,5	-1,023550
16,817000	0,5	-1,024400
16,825333	0,5	-1,026800
16,833667	0,5	-1,022450
16,842000	0,5	-1,034450
16,850333	0,5	-1,029100
16,858667	0,5	-1,022400
16,867000	0,5	-1,022500
16,875333	0,5	-1,026800
16,883667	0,5	-1,036150
16,892000	0,5	-1,043700
16,900333	0,5	-1,041000
16,908667	0,5	-1,036000
16,917000	0,5	-1,034500
16,925333	0,5	-1,041600
16,933667	0,5	-1,037950
16,942000	0,5	-1,035400
16,950333	0,5	-1,035600
16,958667	0,5	-1,032800
16,967000	0,5	-1,033800
16,975333	0,5	-1,027400
16,983667	0,5	-1,029650
16,992000	0,5	-1,037750
17,000333	0,5	-1,032700
17,008667	0,5	-1,025950
17,017000	0,5	-1,028050
17,025333	0,5	-1,031300
17,033667	0,5	-1,048350
17,042000	0,5	-1,044000
17,050333	0,5	-1,043500
17,058667	0,5	-1,039250
17,067000	0,5	-1,036100
17,075333	0,5	-1,031650
17,083667	0,5	-1,027950
17,092000	0,5	-1,030550
17,100333	0,5	-1,026500
17,108667	0,5	-1,029200
17,117000	0,5	-1,027650
17,125333	0,5	-1,026800
17,133667	0,5	-1,017150
17,142000	0,5	-1,040150
17,150333	0,5	-1,020850
17,158667	0,5	-1,018100
17,167000	0,5	-1,014500
17,175333	0,5	-1,019800
17,183667	0,5	-1,031700
17,192000	0,5	-1,029100
17,200333	0,5	-1,019600
17,208667	0,5	-1,021600
17,217000	0,5	-1,015700
17,225333	0,5	-1,018700
17,233667	0,5	-1,012050
17,242000	0,5	-1,013750
17,250333	0,5	-1,008200
17,258667	0,5	-1,002900
17,267000	0,5	-1,002400
17,275333	0,5	-0,990750
17,283667	0,5	-0,991400
17,292000	0,5	-0,998350
17,300333	0,5	-0,988450
17,308667	0,5	-0,986000
17,317000	0,5	-0,987550
17,325333	0,5	-0,990900
17,333667	0,5	-0,999400
17,342000	0,5	-0,981950
17,350333	0,5	-0,984000
17,358667	0,5	-0,975750
17,367000	0,5	-0,974150
17,375333	0,5	-0,968700
17,383667	0,5	-0,969150
17,392000	0,5	-0,960300
17,400333	0,5	-0,959950
17,408667	0,5	-0,956550
17,417000	0,5	-0,951950
17,425333	0,5	-0,945450
17,433667	0,5	-0,946700
17,442000	0,5	-0,942750
17,450333	0,5	-0,931700
17,458667	0,5	-0,929150
17,467000	0,5	-0,930150
17,475333	0,5	-0,937750
17,483667	0,5	-0,941300
17,492000	0,5	-0,942700
17,500333	0,5	-0,931550
17,508667	0,5	-0,928100
17,517000	0,5	-0,922350
17,525333	0,5	-0,920150
17,533667	0,5	-0,914050
17,542000	0,5	-0,914250
17,550333	0,5	-0,907400
17,558667	0,5	-0,912650
17,567000	0,5	-0,907850
17,575333	0,5	-0,906400
17,583667	0,5	-0,917350
17,592000	0,5	-0,903400
17,600333	0,5	-0,898200
17,608667	0,5	-0,898950
17,617000	0,5	-0,908350
17,625333	0,5	-0,920600
17,633667	0,5	-0,920500
17,642000	0,5	-0,913350
17,650333	0,5	-0,917150
17,658667	0,5	-0,912750
17,667000	0,5	-0,918100
17,675333	0,5	-0,914700
17,683667	0,5	-0,918800
17,692000	0,5	-0,916850
17,700333	0,5	-0,918950
17,708667	0,5	-0,913800
17,717000	0,5	-0,905350
17,725333	0,5	-0,912600
17,733667	0,5	-0,920900
17,742000	0,5	-0,914600
17,750333	0,5	-0,912900
17,758667	0,5	-0,919050
17,767000	0,5	-0,933500
17,775333	0,5	-0,947650
17,783667	0,5	-0,945050
17,792000	0,5	-0,943200
17,800333	0,5	-0,943150
17,808667	0,5	-0,947050
17,817000	0,5	-0,944150
17,825333	0,5	-0,946650
17,833667	0,5	-0,942850
17,842000	0,5	-0,950600
17,850333	0,5	-0,949800
17,858667	0,5	-0,955200
17,867000	0,5	-0,951000
17,875333	0,5	-0,971800
17,883667	0,5	-0,960600
17,892000	0,5	-0,956600
17,900333	0,5	-0,958850
17,908667	0,5	-0,964350
17,917000	0,5	-0,980650
17,925333	0,5	-0,981250
17,933667	0,5	-0,985350
17,942000	0,5	-0,985050
17,950333	0,5	-0,987650
17,958667	0,5	-0,992450
17,967000	0,5	-0,996650
17,975333	0,5	-0,994150
17,983667	0,5	-0,995750
17,992000	0,5	-0,996900
18,000333	0,5	-1,004800
18,008667	0,5	-1,001950
18,017000	0,5	-1,002450
18,025333	0,5	-1,018750
18,033667	0,5	-1,009750
18,042000	0,5	-1,009600
18,050333	0,5	-1,022350
18,058667	0,5	-1,031450
18,067000	0,5	-1,045350
18,075333	0,5	-1,039750
18,083667	0,5	-1,044050
18,092000	0,5	-1,049650
18,100333	0,5	-1,051600
18,108667	0,5	-1,052450
18,117000	0,5	-1,056950
18,125333	0,5	-1,061650
18,133667	0,5	-1,060600
18,142000	0,5	-1,068700
18,150333	0,5	-1,073500
18,158667	0,5	-1,080550
18,167000	0,5	-1,080250
18,175333	0,5	-1,095800
18,183667	0,5	-1,083450
18,192000	0,5	-1,088700
18,200333	0,5	-1,094600
18,208667	0,5	-1,108750
18,217000	0,5	-1,122550
18,225333	0,5	-1,120900
18,233667	0,5	-1,121200
18,242000	0,5	-1,133300
18,250333	0,5	-1,133250
18,258667	0,5	-1,136800
18,267000	0,5	-1,139050
18,275333	0,5	-1,140400
18,283667	0,5	-1,149700
18,292000	0,5	-1,149500
18,300333	0,5	-1,159000
18,308667	0,5	-1,153050
18,317000	0,5	-1,165400
18,325333	0,5	-1,157100
18,333667	0,5	-1,166200
18,342000	0,5	-1,166900
18,350333	0,5	-1,181250
18,358667	0,5	-1,196750
18,367000	0,5	-1,204450
18,375333	0,5	-1,202150
18,383667	0,5	-1,204050
18,392000	0,5	-1,202900
18,400333	0,5	-1,207650
18,408667	0,5	-1,211400
18,417000	0,5	-1,217350
18,425333	0,5	-1,217950
18,433667	0,5	-1,220550
18,442000	0,5	-1,225600
18,450333	0,5	-1,217250
18,458667	0,5	-1,219450
18,467000	0,5	-1,233550
18,475333	0,5	-1,230600
18,483667	0,5	-1,229450
18,492000	0,5	-1,237950
18,500333	0,5	-1,245200
18,508667	0,5	-1,266900
18,517000	0,5	-1,270250
18,525333	0,5	-1,275650
18,533667	0,5	-1,269900
18,542000	0,5	-1,277100
18,550333	0,5	-1,273150
18,558667	0,5	-1,275600
18,567000	0,5	-1,277700
18,575333	0,5	-1,279450
18,583667	0,5	-1,286350
18,592000	0,5	-1,286600
18,600333	0,5	-1,283250
18,608667	0,5	-1,293750
18,617000	0,5	-1,305700
18,625333	0,5	-1,289850
18,633667	0,5	-1,300400
18,642000	0,5	-1,304550
18,650333	0,5	-1,325400
18,658667	0,5	-1,334650
18,667000	0,5	-1,339850
18,675333	0,5	-1,332350
18,683667	0,5	-1,339950
18,692000	0,5	-1,334900
18,700333	0,5	-1,343000
18,708667	0,5	-1,347150
18,717000	0,5	-1,344900
18,725333	0,5	-1,343800
18,733667	0,5	-1,346100
18,742000	0,5	-1,346950
18,750333	0,5	-1,351150
18,758667	0,5	-1,360550
18,767000	0,5	-1,361800
18,775333	0,5	-1,354550
18,783667	0,5	-1,363000
18,792000	0,5	-1,369450
18,800333	0,5	-1,384250
18,808667	0,5	-1,394700
18,817000	0,5	-1,389700
18,825333	0,5	-1,397450
18,833667	0,5	-1,393550
18,842000	0,5	-1,398750
18,850333	0,5	-1,393900
18,858667	0,5	-1,394550
18,867000	0,5	-1,392700
18,875333	0,5	-1,398450
18,883667	0,5	-1,401550
18,892000	0,5	-1,393100
18,900333	0,5	-1,398450
18,908667	0,5	-1,413700
18,917000	0,5	-1,401650
18,925333	0,5	-1,401750
18,933667	0,5	-1,407350
18,942000	0,5	-1,415750
18,950333	0,5	-1,430450
18,958667	0,5	-1,429800
18,967000	0,5	-1,437150
18,975333	0,5	-1,433800
18,983667	0,5	-1,442200
18,992000	0,5	-1,441200
19,000333	0,5	-1,444900
19,008667	0,5	-1,441300
19,017000	0,5	-1,446350
19,025333	0,5	-1,447100
19,033667	0,5	-1,445350
19,042000	0,5	-1,438400
19,050333	0,5	-1,452650
19,058667	0,5	-1,453150
19,067000	0,5	-1,449500
19,075333	0,5	-1,453450
19,083667	0,5	-1,462450
19,092000	0,5	-1,479850
19,100333	0,5	-1,481650
19,108667	0,5	-1,479850
19,117000	0,5	-1,482350
19,125333	0,5	-1,484800
19,133667	0,5	-1,481150
19,142000	0,5	-1,485000
19,150333	0,5	-1,487900
19,158667	0,5	-1,489450
19,167000	0,5	-1,493300
19,175333	0,5	-1,498950
19,183667	0,5	-1,499400
19,192000	0,5	-1,496350
19,200333	0,5	-1,507400
19,208667	0,5	-1,501650
19,217000	0,5	-1,499700
19,225333	0,5	-1,501300
19,233667	0,5	-1,509600
19,242000	0,5	-1,532150
19,250333	0,5	-1,527400
19,258667	0,5	-1,525800
19,267000	0,5	-1,537850
19,275333	0,5	-1,538750
19,283667	0,5	-1,542800
19,292000	0,5	-1,542900
19,300333	0,5	-1,549050
19,308667	0,5	-1,544750
19,317000	0,5	-1,558800
19,325333	0,5	-1,554950
19,333667	0,5	-1,558300
19,342000	0,5	-1,553900
19,350333	0,5	-1,574200
19,358667	0,5	-1,567000
19,367000	0,5	-1,575950
19,375333	0,5	-1,578450
19,383667	0,5	-1,590900
19,392000	0,5	-1,608300
19,400333	0,5	-1,598850
19,408667	0,5	-1,603850
19,417000	0,5	-1,605900
19,425333	0,5	-1,612350
19,433667	0,5	-1,615150
19,442000	0,5	-1,616300
19,450333	0,5	-1,619900
19,458667	0,5	-1,628300
19,467000	0,5	-1,625700
19,475333	0,5	-1,622850
19,483667	0,5	-1,617750
19,492000	0,5	-1,626750
19,500333	0,5	-1,631000
19,508667	0,5	-1,625700
19,517000	0,5	-1,630450
19,525333	0,5	-1,642550
19,533667	0,5	-1,658600
19,542000	0,5	-1,670650
19,550333	0,5	-1,673000
19,558667	0,5	-1,670150
19,567000	0,5	-1,670450
19,575333	0,5	-1,672300
19,583667	0,5	-1,673850
19,592000	0,5	-1,673050
19,600333	0,5	-1,674350
19,608667	0,5	-1,674600
19,617000	0,5	-1,679600
19,625333	0,5	-1,670450
19,633667	0,5	-1,674450
19,642000	0,5	-1,685200
19,650333	0,5	-1,682350
19,658667	0,5	-1,680400
19,667000	0,5	-1,690250
19,675333	0,5	-1,697100
19,683667	0,5	-1,713550
19,692000	0,5	-1,717650
19,700333	0,5	-1,715650
19,708667	0,5	-1,711300
19,717000	0,5	-1,716100
19,725333	0,5	-1,715300
19,733667	0,5	-1,721750
19,742000	0,5	-1,718900
19,750333	0,5	-1,713300
19,758667	0,5	-1,715350
19,767000	0,5	-1,715600
19,775333	0,5	-1,710100
19,783667	0,5	-1,713850
19,792000	0,5	-1,721750
19,800333	0,5	-1,715500
19,808667	0,5	-1,720950
19,817000	0,5	-1,724100
19,825333	0,5	-1,748650
19,833667	0,5	-1,752750
19,842000	0,5	-1,758150
19,850333	0,5	-1,755100
19,858667	0,5	-1,759150
19,867000	0,5	-1,761850
19,875333	0,5	-1,764850
19,883667	0,5	-1,762600
19,892000	0,5	-1,763050
19,900333	0,5	-1,765300
19,908667	0,5	-1,769150
19,917000	0,5	-1,773400
19,925333	0,5	-1,763400
19,933667	0,5	-1,781500
19,942000	0,5	-1,774550
19,950333	0,5	-1,772250
19,958667	0,5	-1,770250
19,967000	0,5	-1,775750
19,975333	0,5	-1,792600
19,983667	0,5	-1,791700
19,992000	0,5	-1,787750
20,000333	0,5	-1,792250
20,008667	0,5	-1,789550
20,017000	0,5	-1,792250
20,025333	0,5	-1,787150
20,033667	0,5	-1,784900
20,042000	0,5	-1,781050
20,050333	0,5	-1,783900
20,058667	0,5	-1,790200
20,067000	0,5	-1,773550
20,075333	0,5	-1,768200
20,083667	0,5	-1,781250
20,092000	0,5	-1,774700
20,100333	0,5	-1,773800
20,108667	0,5	-1,784950
20,117000	0,5	-1,784800
20,125333	0,5	-1,799800
20,133667	0,5	-1,786100
20,142000	0,5	-1,790250
20,150333	0,5	-1,783700
20,158667	0,5	-1,789650
20,167000	0,5	-1,783800
20,175333	0,5	-1,790250
20,183667	0,5	-1,781450
20,192000	0,5	-1,784250
20,200333	0,5	-1,786000
20,208667	0,5	-1,787100
20,217000	0,5	-1,772700
20,225333	0,5	-1,782250
20,233667	0,5	-1,785200
20,242000	0,5	-1,773600
20,250333	0,5	-1,776600
20,258667	0,5	-1,779800
20,267000	0,5	-1,795650
20,275333	0,5	-1,802100
20,283667	0,5	-1,799450
20,292000	0,5	-1,794850
20,300333	0,5	-1,798700
20,308667	0,5	-1,788600
20,317000	0,5	-1,792650
20,325333	0,5	-1,786850
20,333667	0,5	-1,784250
20,342000	0,5	-1,781550
20,350333	0,5	-1,781200
20,358667	0,5	-1,775350
20,367000	0,5	-1,764150
20,375333	0,5	-1,773750
20,383667	0,5	-1,766500
20,392000	0,5	-1,762800
20,400333	0,5	-1,764750
20,408667	0,5	-1,770900
20,417000	0,5	-1,787350
20,425333	0,5	-1,788900
20,433667	0,5	-1,784800
20,442000	0,5	-1,791500
20,450333	0,5	-1,787400
20,458667	0,5	-1,796250
20,467000	0,5	-1,789450
20,475333	0,5	-1,800150
20,483667	0,5	-1,797700
20,492000	0,5	-1,799350
20,500333	0,5	-1,796750
20,508667	0,5	-1,780950
20,517000	0,5	-1,780950
20,525333	0,5	-1,794600
20,533667	0,5	-1,783200
20,542000	0,5	-1,791050
20,550333	0,5	-1,796650
20,558667	0,5	-1,807800
20,567000	0,5	-1,825500
20,575333	0,5	-1,824550
20,583667	0,5	-1,826300
20,592000	0,5	-1,816750
20,600333	0,5	-1,820200
20,608667	0,5	-1,818650
20,617000	0,5	-1,821350
20,625333	0,5	-1,812850
20,633667	0,5	-1,814550
20,642000	0,5	-1,814700
20,650333	0,5	-1,801850
20,658667	0,5	-1,786300
20,667000	0,5	-1,793200
20,675333	0,5	-1,798700
20,683667	0,5	-1,791300
20,692000	0,5	-1,795600
20,700333	0,5	-1,808350
20,708667	0,5	-1,823100
20,717000	0,5	-1,824400
20,725333	0,5	-1,826300
20,733667	0,5	-1,819400
20,742000	0,5	-1,821150
20,750333	0,5	-1,812150
20,758667	0,5	-1,818200
20,767000	0,5	-1,805300
20,775333	0,5	-1,809100
20,783667	0,5	-1,799250
20,792000	0,5	-1,795450
20,800333	0,5	-1,771550
20,808667	0,5	-1,760350
20,817000	0,5	-1,762250
20,825333	0,5	-1,762250
20,833667	0,5	-1,760850
20,842000	0,5	-1,766600
20,850333	0,5	-1,785950
20,858667	0,5	-1,788700
20,867000	0,5	-1,785550
20,875333	0,5	-1,779250
20,883667	0,5	-1,779900
20,892000	0,5	-1,773150
20,900333	0,5	-1,775600
20,908667	0,5	-1,769200
20,917000	0,5	-1,765000
20,925333	0,5	-1,755650
20,933667	0,5	-1,757650
20,942000	0,5	-1,749150
20,950333	0,5	-1,728550
20,958667	0,5	-1,718900
20,967000	0,5	-1,724750
20,975333	0,5	-1,724150
20,983667	0,5	-1,726650
20,992000	0,5	-1,731650
21,000333	0,5	-1,749750
21,008667	0,5	-1,750950
21,017000	0,5	-1,742200
21,025333	0,5	-1,742900
21,033667	0,5	-1,738400
21,042000	0,5	-1,740600
21,050333	0,5	-1,731700
21,058667	0,5	-1,728900
21,067000	0,5	-1,721550
21,075333	0,5	-1,719850
21,083667	0,5	-1,716500
21,092000	0,5	-1,693850
21,100333	0,5	-1,672900
21,108667	0,5	-1,672700
21,117000	0,5	-1,670000
21,125333	0,5	-1,673750
21,133667	0,5	-1,677750
21,142000	0,5	-1,685550
21,150333	0,5	-1,696700
21,158667	0,5	-1,678000
21,167000	0,5	-1,678450
21,175333	0,5	-1,670750
21,183667	0,5	-1,668000
21,192000	0,5	-1,659700
21,200333	0,5	-1,658250
21,208667	0,5	-1,649150
21,217000	0,5	-1,647650
21,225333	0,5	-1,647500
21,233667	0,5	-1,639350
21,242000	0,5	-1,611150
21,250333	0,5	-1,593800
21,258667	0,5	-1,600700
21,267000	0,5	-1,598350
21,275333	0,5	-1,597600
21,283667	0,5	-1,603050
21,292000	0,5	-1,613450
21,300333	0,5	-1,619050
21,308667	0,5	-1,613450
21,317000	0,5	-1,608150
21,325333	0,5	-1,606350
21,333667	0,5	-1,597650
21,342000	0,5	-1,594550
21,350333	0,5	-1,587100
21,358667	0,5	-1,580100
21,367000	0,5	-1,571700
21,375333	0,5	-1,571150
21,383667	0,5	-1,546100
21,392000	0,5	-1,526700
21,400333	0,5	-1,517250
21,408667	0,5	-1,520750
21,417000	0,5	-1,518300
21,425333	0,5	-1,521350
21,433667	0,5	-1,521950
21,442000	0,5	-1,527050
21,450333	0,5	-1,521150
21,458667	0,5	-1,503450
21,467000	0,5	-1,492950
21,475333	0,5	-1,478350
21,483667	0,5	-1,462650
21,492000	0,5	-1,444150
21,500333	0,5	-1,416900
21,508667	0,5	-1,389200
21,517000	0,5	-1,362950
21,525333	0,5	-1,334750
21,533667	0,5	-1,301450
21,542000	0,5	-1,288700
21,550333	0,5	-1,296100
21,558667	0,5	-1,304550
21,567000	0,5	-1,322600
21,575333	0,5	-1,333700
21,583667	0,5	-1,348400
21,592000	0,5	-1,350750
21,600333	0,5	-1,344550
21,608667	0,5	-1,335300
21,617000	0,5	-1,321450
21,625333	0,5	-1,312550
21,633667	0,5	-1,295100
21,642000	0,5	-1,286200
21,650333	0,5	-1,272150
21,658667	0,5	-1,260650
21,667000	0,5	-1,247000
21,675333	0,5	-1,220800
21,683667	0,5	-1,195100
21,692000	0,5	-1,180100
21,700333	0,5	-1,170550
21,708667	0,5	-1,153600
21,717000	0,5	-1,144700
21,725333	0,5	-1,141150
21,733667	0,5	-1,142950
21,742000	0,5	-1,130700
21,750333	0,5	-1,116900
21,758667	0,5	-1,096700
21,767000	0,5	-1,080400
21,775333	0,5	-1,060400
21,783667	0,5	-1,052950
21,792000	0,5	-1,032400
21,800333	0,5	-1,017050
21,808667	0,5	-0,999900
21,817000	0,5	-0,983800
21,825333	0,5	-0,947150
21,833667	0,5	-0,932650
21,842000	0,5	-0,924600
21,850333	0,5	-0,907850
21,858667	0,5	-0,890550
21,867000	0,5	-0,883500
21,875333	0,5	-0,882550
21,883667	0,5	-0,866900
21,892000	0,5	-0,848600
21,900333	0,5	-0,820100
21,908667	0,5	-0,806400
21,917000	0,5	-0,780100
21,925333	0,5	-0,759550
21,933667	0,5	-0,734200
21,942000	0,5	-0,712950
21,950333	0,5	-0,685500
21,958667	0,5	-0,667550
21,967000	0,5	-0,640550
21,975333	0,5	-0,599100
21,983667	0,5	-0,587300
21,992000	0,5	-0,569250
22,000333	0,5	-0,534900
22,008667	0,5	-0,511150
22,017000	0,5	-0,485700
22,025333	0,5	-0,474850
22,033667	0,5	-0,444650
22,042000	0,5	-0,407800
22,050333	0,5	-0,376100
22,058667	0,5	-0,340600
22,067000	0,5	-0,305700
22,075333	0,5	-0,261950
22,083667	0,5	-0,226650
22,092000	0,5	-0,189400
22,100333	0,5	-0,166850
22,108667	0,5	-0,135400
22,117000	0,5	-0,096900
22,125333	0,5	-0,070250
22,133667	0,5	-0,064950
22,142000	0,5	-0,023650
22,150333	0,5	0,001550
22,158667	0,5	0,021550
22,167000	0,5	0,045850
22,175333	0,5	0,067000
22,183667	0,5	0,119400
22,192000	0,5	0,154450
22,200333	0,5	0,194850
22,208667	0,5	0,230600
22,217000	0,5	0,270600
22,225333	0,5	0,312400
22,233667	0,5	0,359650
22,242000	0,5	0,392850
22,250333	0,5	0,435650
22,258667	0,5	0,473500
22,267000	0,5	0,514350
22,275333	0,5	0,542700
22,283667	0,5	0,594650
22,292000	0,5	0,644800
22,300333	0,5	0,689550
22,308667	0,5	0,727550
22,317000	0,5	0,768100
22,325333	0,5	0,819150
22,333667	0,5	0,870950
22,342000	0,5	0,928600
22,350333	0,5	0,977650
22,358667	0,5	1,037150
22,367000	0,5	1,091700
22,375333	0,5	1,147500
22,383667	0,5	1,199050
22,392000	0,5	1,256750
22,400333	0,5	1,306400
22,408667	0,5	1,336450
22,417000	0,5	1,397000
22,425333	0,5	1,459800
22,433667	0,5	1,539750
22,442000	0,5	1,602800
22,450333	0,5	1,663500
22,458667	0,5	1,719600
22,467000	0,5	1,776950
22,475333	0,5	1,842250
22,483667	0,5	1,918000
22,492000	0,5	1,981250
22,500333	0,5	2,054800
22,508667	0,5	2,116750
22,517000	0,5	2,186450
22,525333	0,5	2,254500
22,533667	0,5	2,320700
22,542000	0,5	2,378700
22,550333	0,5	2,436800
22,558667	0,5	2,463350
22,567000	0,5	2,537450
22,575333	0,5	2,605600
22,583667	0,5	2,678700
22,592000	0,5	2,722700
22,600333	0,5	2,772300
22,608667	0,5	2,802450
22,617000	0,5	2,839400
22,625333	0,5	2,887050
22,633667	0,5	2,926900
22,642000	0,5	2,963650
22,650333	0,5	2,988600
22,658667	0,5	3,017500
22,667000	0,5	3,035850
22,675333	0,5	3,057550
22,683667	0,5	3,059850
22,692000	0,5	3,058350
22,700333	0,5	3,002350
22,708667	0,5	2,981100
22,717000	0,5	2,962650
22,725333	0,5	2,945150
22,733667	0,5	2,893850
22,742000	0,5	2,826450
22,750333	0,5	2,746900
22,758667	0,5	2,658900
22,767000	0,5	2,575800
22,775333	0,5	2,482900
22,783667	0,5	2,395200
22,792000	0,5	2,296550
22,800333	0,5	2,195950
22,808667	0,5	2,091350
22,817000	0,5	1,979550
22,825333	0,5	1,862400
22,833667	0,5	1,741350
22,842000	0,5	1,607000
22,850333	0,5	1,428450
22,858667	0,5	1,288650
22,867000	0,5	1,175800
22,875333	0,5	1,030000
22,883667	0,5	0,877500
22,892000	0,5	0,721800
22,900333	0,5	0,574950
22,908667	0,5	0,425750
22,917000	0,5	0,279700
22,925333	0,5	0,138600
22,933667	0,5	0,002950
22,942000	0,5	-0,129200
22,950333	0,5	-0,258050
22,958667	0,5	-0,392900
22,967000	0,5	-0,511150
22,975333	0,5	-0,634100
22,983667	0,5	-0,748100
22,992000	0,5	-0,849050
23,000333	0,5	-0,981600
23,008667	0,5	-1,089600
23,017000	0,5	-1,224950
23,025333	0,5	-1,346750
23,033667	0,5	-1,439150
23,042000	0,5	-1,537550
23,050333	0,5	-1,604850
23,058667	0,5	-1,695700
23,067000	0,5	-1,769150
23,075333	0,5	-1,838400
23,083667	0,5	-1,893300
23,092000	0,5	-1,949450
23,100333	0,5	-2,005100
23,108667	0,5	-2,054700
23,117000	0,5	-2,105550
23,125333	0,5	-2,148350
23,133667	0,5	-2,190600
23,142000	0,5	-2,219900
23,150333	0,5	-2,252200
23,158667	0,5	-2,297050
23,167000	0,5	-2,368900
23,175333	0,5	-2,408600
23,183667	0,5	-2,431250
23,192000	0,5	-2,447500
23,200333	0,5	-2,454850
23,208667	0,5	-2,477700
23,217000	0,5	-2,479550
23,225333	0,5	-2,471800
23,233667	0,5	-2,470350
23,242000	0,5	-2,465800
23,250333	0,5	-2,454100
23,258667	0,5	-2,450850
23,267000	0,5	-2,441450
23,275333	0,5	-2,440400
23,283667	0,5	-2,423800
23,292000	0,5	-2,420100
23,300333	0,5	-2,422550
23,308667	0,5	-2,424050
23,317000	0,5	-2,437300
23,325333	0,5	-2,430050
23,333667	0,5	-2,418050
23,342000	0,5	-2,402150
23,350333	0,5	-2,383650
23,358667	0,5	-2,373850
23,367000	0,5	-2,348650
23,375333	0,5	-2,327600
23,383667	0,5	-2,298450
23,392000	0,5	-2,270200
23,400333	0,5	-2,242950
23,408667	0,5	-2,215450
23,417000	0,5	-2,185550
23,425333	0,5	-2,153800
23,433667	0,5	-2,124800
23,442000	0,5	-2,102800
23,450333	0,5	-2,086500
23,458667	0,5	-2,072400
23,467000	0,5	-2,067600
23,475333	0,5	-2,050400
23,483667	0,5	-2,032900
23,492000	0,5	-2,010700
23,500333	0,5	-1,990400
23,508667	0,5	-1,972100
23,517000	0,5	-1,954800
23,525333	0,5	-1,932100
23,533667	0,5	-1,908700
23,542000	0,5	-1,887700
23,550333	0,5	-1,861200
23,558667	0,5	-1,837050
23,567000	0,5	-1,816800
23,575333	0,5	-1,790850
23,583667	0,5	-1,768000
23,592000	0,5	-1,743850
23,600333	0,5	-1,727250
23,608667	0,5	-1,707550
23,617000	0,5	-1,691950
23,625333	0,5	-1,674250
23,633667	0,5	-1,659800
23,642000	0,5	-1,640300
23,650333	0,5	-1,626750
23,658667	0,5	-1,604950
23,667000	0,5	-1,587450
23,675333	0,5	-1,570150
23,683667	0,5	-1,552550
23,692000	0,5	-1,535050
23,700333	0,5	-1,520950
23,708667	0,5	-1,504350
23,717000	0,5	-1,492600
23,725333	0,5	-1,479450
23,733667	0,5	-1,475450
23,742000	0,5	-1,461800
23,750333	0,5	-1,448650
23,758667	0,5	-1,426300
23,767000	0,5	-1,415100
23,775333	0,5	-1,402350
23,783667	0,5	-1,394650
23,792000	0,5	-1,383350
23,800333	0,5	-1,371400
23,808667	0,5	-1,351050
23,817000	0,5	-1,330800
23,825333	0,5	-1,312000
23,833667	0,5	-1,285100
23,842000	0,5	-1,268300
23,850333	0,5	-1,247250
23,858667	0,5	-1,232500
23,867000	0,5	-1,215550
23,875333	0,5	-1,216050
23,883667	0,5	-1,192200
23,892000	0,5	-1,222050
23,900333	0,5	-1,173000
23,908667	0,5	-1,154350
23,917000	0,5	-1,145000
23,925333	0,5	-1,141950
23,933667	0,5	-1,147450
23,942000	0,5	-1,132300
23,950333	0,5	-1,117400
23,958667	0,5	-1,104750
23,967000	0,5	-1,086800
23,975333	0,5	-1,074250
23,983667	0,5	-1,068200
23,992000	0,5	-1,043150
24,000333	0,5	-1,024250
24,008667	0,5	-1,001150
24,017000	0,5	-0,989300
24,025333	0,5	-0,978500
24,033667	0,5	-0,964700
24,042000	0,5	-0,974700
24,050333	0,5	-0,926850
24,058667	0,5	-0,906250
24,067000	0,5	-0,894050
24,075333	0,5	-0,884200
24,083667	0,5	-0,911450
24,092000	0,5	-0,874800
24,100333	0,5	-0,860750
24,108667	0,5	-0,839500
24,117000	0,5	-0,830750
24,125333	0,5	-0,809550
24,133667	0,5	-0,797350
24,142000	0,5	-0,782850
24,150333	0,5	-0,763650
24,158667	0,5	-0,755450
24,167000	0,5	-0,748750
24,175333	0,5	-0,745550
24,183667	0,5	-0,723800
24,192000	0,5	-0,735550
24,200333	0,5	-0,689000
24,208667	0,5	-0,675200
24,217000	0,5	-0,665200
24,225333	0,5	-0,665600
24,233667	0,5	-0,677750
24,242000	0,5	-0,650550
24,250333	0,5	-0,621600
24,258667	0,5	-0,620700
24,267000	0,5	-0,598850
24,275333	0,5	-0,585350
24,283667	0,5	-0,559150
24,292000	0,5	-0,547150
24,300333	0,5	-0,527000
24,308667	0,5	-0,514550
24,317000	0,5	-0,506550
24,325333	0,5	-0,486850
24,333667	0,5	-0,487650
24,342000	0,5	-0,485750
24,350333	0,5	-0,458900
24,358667	0,5	-0,452250
24,367000	0,5	-0,452050
24,375333	0,5	-0,454900
24,383667	0,5	-0,466300
24,392000	0,5	-0,435900
24,400333	0,5	-0,431600
24,408667	0,5	-0,413300
24,417000	0,5	-0,409600
24,425333	0,5	-0,390800
24,433667	0,5	-0,379100
24,442000	0,5	-0,364950
24,450333	0,5	-0,353100
24,458667	0,5	-0,343650
24,467000	0,5	-0,327350
24,475333	0,5	-0,306350
24,483667	0,5	-0,310750
24,492000	0,5	-0,287050
24,500333	0,5	-0,267900
24,508667	0,5	-0,261450
24,517000	0,5	-0,264850
24,525333	0,5	-0,271150
24,533667	0,5	-0,277500
24,542000	0,5	-0,268450
24,550333	0,5	-0,248250
24,558667	0,5	-0,241750
24,567000	0,5	-0,227100
24,575333	0,5	-0,221350
24,583667	0,5	-0,209300
24,592000	0,5	-0,200950
24,600333	0,5	-0,192950
24,608667	0,5	-0,185800
24,617000	0,5	-0,173100
24,625333	0,5	-0,179150
24,633667	0,5	-0,175800
24,642000	0,5	-0,157150
24,650333	0,5	-0,142450
24,658667	0,5	-0,137700
24,667000	0,5	-0,139450
24,675333	0,5	-0,142500
24,683667	0,5	-0,130900
24,692000	0,5	-0,121300
24,700333	0,5	-0,109300
24,708667	0,5	-0,103550
24,717000	0,5	-0,098250
24,725333	0,5	-0,087300
24,733667	0,5	-0,075650
24,742000	0,5	-0,065000
24,750333	0,5	-0,064250
24,758667	0,5	-0,056150
24,767000	0,5	-0,053000
24,775333	0,5	-0,050400
24,783667	0,5	-0,050400
24,792000	0,5	-0,031450
24,800333	0,5	-0,027350
24,808667	0,5	-0,027500
24,817000	0,5	-0,034100
24,825333	0,5	-0,037800
24,833667	0,5	-0,026800
24,842000	0,5	-0,021650
24,850333	0,5	-0,014900
24,858667	0,5	-0,006500
24,867000	0,5	-0,000450
24,875333	0,5	0,007000
24,883667	0,5	0,016900
24,892000	0,5	0,023650
24,900333	0,5	0,027250
24,908667	0,5	0,029900
24,917000	0,5	0,042200
24,925333	0,5	0,035300
24,933667	0,5	0,048100
24,942000	0,5	0,057250
24,950333	0,5	0,059050
24,958667	0,5	0,058450
24,967000	0,5	0,054600
24,975333	0,5	0,056800
24,983667	0,5	0,062800
24,992000	0,5	0,062000
25,000333	0,5	0,064500
25,008667	0,5	0,067500
25,017000	0,5	0,072600
25,025333	0,5	0,075200
25,033667	0,5	0,080850
25,042000	0,5	0,084750
25,050333	0,5	0,090000
25,058667	0,5	0,095150
25,067000	0,5	0,102000
25,075333	0,5	0,093850
25,083667	0,5	0,101000
25,092000	0,5	0,108550
25,100333	0,5	0,110950
25,108667	0,5	0,112350
25,117000	0,5	0,106550
25,125333	0,5	0,113550
25,133667	0,5	0,115200
25,142000	0,5	0,121300
25,150333	0,5	0,120600
25,158667	0,5	0,126450
25,167000	0,5	0,126250
25,175333	0,5	0,125200
25,183667	0,5	0,126000
25,192000	0,5	0,128050
25,200333	0,5	0,127850
25,208667	0,5	0,132050
25,217000	0,5	0,130100
25,225333	0,5	0,133450
25,233667	0,5	0,134500
25,242000	0,5	0,138800
25,250333	0,5	0,139300
25,258667	0,5	0,141700
25,267000	0,5	0,139200
25,275333	0,5	0,141050
25,283667	0,5	0,145400
25,292000	0,5	0,147750
25,300333	0,5	0,150000
25,308667	0,5	0,152250
25,317000	0,5	0,153150
25,325333	0,5	0,154650
25,333667	0,5	0,156100
25,342000	0,5	0,154500
25,350333	0,5	0,156500
25,358667	0,5	0,156800
25,367000	0,5	0,156800
25,375333	0,5	0,157000
25,383667	0,5	0,156050
25,392000	0,5	0,153600
25,400333	0,5	0,155150
25,408667	0,5	0,155000
25,417000	0,5	0,153950
25,425333	0,5	0,156700
25,433667	0,5	0,157200
25,442000	0,5	0,156950
25,450333	0,5	0,159850
25,458667	0,5	0,157600
25,467000	0,5	0,162250
25,475333	0,5	0,160350
25,483667	0,5	0,162400
25,492000	0,5	0,164900
25,500333	0,5	0,166500
25,508667	0,5	0,165900
25,517000	0,5	0,166550
25,525333	0,5	0,166950
25,533667	0,5	0,166850
25,542000	0,5	0,166550
25,550333	0,5	0,166400
25,558667	0,5	0,168200
25,567000	0,5	0,166300
25,575333	0,5	0,165400
25,583667	0,5	0,166300
25,592000	0,5	0,163600
25,600333	0,5	0,164300
25,608667	0,5	0,167450
25,617000	0,5	0,164600
25,625333	0,5	0,165600
25,633667	0,5	0,166300
25,642000	0,5	0,168100
25,650333	0,5	0,165550
25,658667	0,5	0,167200
25,667000	0,5	0,167800
25,675333	0,5	0,166300
25,683667	0,5	0,166150
25,692000	0,5	0,166050
25,700333	0,5	0,166300
25,708667	0,5	0,169800
25,717000	0,5	0,170950
25,725333	0,5	0,169500
25,733667	0,5	0,169750
25,742000	0,5	0,168400
25,750333	0,5	0,167100
25,758667	0,5	0,166200
25,767000	0,5	0,165850
25,775333	0,5	0,163400
25,783667	0,5	0,163450
25,792000	0,5	0,165150
25,800333	0,5	0,165100
25,808667	0,5	0,164300
25,817000	0,5	0,167600
25,825333	0,5	0,161000
25,833667	0,5	0,163400
25,842000	0,5	0,161200
25,850333	0,5	0,168450
25,858667	0,5	0,168600
25,867000	0,5	0,170650
25,875333	0,5	0,167700
25,883667	0,5	0,170850
25,892000	0,5	0,172150
25,900333	0,5	0,168300
25,908667	0,5	0,167650
25,917000	0,5	0,168150
25,925333	0,5	0,168650
25,933667	0,5	0,165550
25,942000	0,5	0,167150
25,950333	0,5	0,165350
25,958667	0,5	0,172200
25,967000	0,5	0,168350
25,975333	0,5	0,166000
25,983667	0,5	0,167150
25,992000	0,5	0,172850
26,000333	0,5	0,182400
